-0.839	402.79167
3.438	452.45833
7.711	138.79167
11.981	57.45833
16.247	49.125
20.509	46.79167
24.768	51.45833
29.024	49.125
33.276	44.79167
37.524	51.125
41.769	48.79167
46.01	40.125
50.247	53.45833
54.481	68.125
58.712	69.79167
62.939	55.125
67.162	70.79167
71.382	63.79167
75.599	53.45833
79.812	65.79167
84.021	84.125
88.227	63.125
92.429	66.79167
96.628	57.79167
100.823	71.45833
105.015	83.79167
109.204	85.125
113.388	80.45833
117.57	86.125
121.748	98.45833
125.922	91.79167
130.093	111.125
134.261	117.79167
138.425	112.45833
142.585	154.79167
146.742	156.45833
150.896	180.79167
155.046	236.125
159.193	367.79167
163.336	637.45833
167.476	1132.45833
171.613	2116.79167
175.746	3575.45833
179.875	5378.45833
184.002	7127.45833
188.124	8360.45833
192.244	8847.45833
196.36	8918.79167
200.472	8745.45833
204.581	8603.125
208.687	8489.125
212.79	8507.125
216.889	8634.45833
220.984	8784.79167
225.077	8956.125
229.165	9159.45833
233.251	9287.45833
237.333	9435.79167
241.412	9460.125
245.487	9465.125
249.559	9381.125
253.628	9291.79167
257.694	9159.79167
261.756	9024.79167
265.814	8836.125
269.87	8587.79167
273.922	8240.45833
277.97	8032.45833
282.016	7815.79167
286.058	7652.125
290.097	7651.45833
294.132	7613.125
298.164	7442.125
302.193	7081.45833
306.219	6589.79167
310.241	5985.79167
314.26	5469.45833
318.276	5057.125
322.288	4744.125
326.297	4490.45833
330.303	4281.125
334.305	4162.125
338.305	4064.125
342.301	4020.125
346.294	3960.79167
350.283	3952.45833
354.269	3906.45833
358.252	3877.125
362.232	3889.125
366.209	3820.79167
370.182	3790.45833
374.152	3770.45833
378.119	3790.125
382.083	3771.79167
386.043	3808.125
390	3765.125
393.954	3741.125
397.905	3702.45833
401.852	3653.79167
405.797	3595.125
409.738	3588.45833
413.676	3568.45833
417.61	3518.45833
421.542	3497.125
425.47	3470.45833
429.396	3430.79167
433.318	3422.125
437.236	3364.45833
441.152	3388.45833
445.065	3325.45833
448.974	3353.45833
452.88	3312.45833
456.783	3294.79167
460.683	3284.79167
464.58	3267.125
468.473	3285.45833
472.364	3292.125
476.251	3281.45833
480.135	3329.45833
484.016	3371.45833
487.894	3378.79167
491.769	3391.45833
495.641	3387.79167
499.509	3379.125
503.375	3403.45833
507.237	3375.125
511.096	3361.125
514.952	3391.125
518.805	3377.79167
522.655	3438.125
526.502	3357.45833
530.346	3334.45833
534.187	3329.79167
538.024	3342.79167
541.859	3328.79167
545.69	3341.125
549.519	3335.125
553.344	3302.45833
557.166	3265.45833
560.985	3225.125
564.802	3186.79167
568.615	3138.79167
572.425	3118.45833
576.232	3105.45833
580.036	3066.79167
583.836	3092.45833
587.634	3096.125
591.429	3117.125
595.221	3152.45833
599.01	3177.125
602.796	3225.125
606.578	3260.79167
610.358	3266.45833
614.135	3228.79167
617.909	3227.79167
621.679	3215.45833
625.447	3208.45833
629.212	3200.45833
632.973	3226.79167
636.732	3196.125
640.488	3177.45833
644.241	3171.79167
647.991	3157.125
651.737	3182.79167
655.481	3153.45833
659.222	3134.125
662.96	3145.79167
666.695	3165.125
670.427	3164.125
674.156	3164.125
677.882	3189.79167
681.605	3186.45833
685.325	3150.125
689.043	3161.79167
692.757	3127.45833
696.468	3127.79167
700.177	3170.45833
703.882	3162.79167
707.585	3161.125
711.284	3162.79167
714.981	3174.125
718.675	3182.125
722.366	3189.45833
726.054	3165.45833
729.739	3147.79167
733.421	3170.79167
737.1	3172.125
740.777	3212.45833
744.45	3218.45833
748.121	3216.125
751.789	3306.125
755.453	3267.79167
759.115	3302.125
762.774	3355.45833
766.431	3361.125
770.084	3415.125
773.734	3450.45833
777.382	3502.45833
781.027	3538.45833
784.669	3554.45833
788.308	3577.79167
791.944	3598.125
795.577	3603.45833
799.208	3674.79167
802.835	3660.45833
806.46	3710.125
810.082	3736.45833
813.701	3750.79167
817.317	3777.125
820.931	3788.125
824.542	3791.79167
828.149	3736.45833
831.754	3719.125
835.357	3714.79167
838.956	3696.45833
842.553	3681.125
846.146	3653.125
849.737	3641.125
853.326	3662.45833
856.911	3700.125
860.493	3731.45833
864.073	3742.45833
867.65	3798.125
871.225	3817.45833
874.796	3834.125
878.365	3852.79167
881.931	3884.45833
885.494	3943.79167
889.054	3924.45833
892.612	3895.45833
896.166	3894.125
899.719	3843.45833
903.268	3812.79167
906.814	3786.125
910.358	3754.45833
913.899	3757.125
917.438	3753.125
920.973	3754.45833
924.506	3787.125
928.036	3836.125
931.564	3867.125
935.088	3917.125
938.61	3922.125
942.129	3958.79167
945.646	4041.79167
949.16	4140.45833
952.671	4236.45833
956.179	4265.45833
959.685	4239.45833
963.188	4225.79167
966.688	4175.45833
970.185	4074.79167
973.68	3993.45833
977.173	3959.125
980.662	4000.125
984.149	4000.45833
987.633	4001.125
991.114	4045.79167
994.593	4197.45833
998.069	4296.45833
1001.542	4441.45833
1005.013	4338.79167
1008.481	4096.45833
1011.947	4027.79167
1015.409	4019.79167
1018.869	4007.79167
1022.327	3998.45833
1025.782	3968.125
1029.234	3989.125
1032.683	3942.125
1036.13	3792.125
1039.574	3677.125
1043.016	3540.79167
1046.455	3476.125
1049.891	3443.125
1053.325	3443.125
1056.756	3451.125
1060.184	3464.79167
1063.61	3492.45833
1067.033	3493.79167
1070.454	3496.125
1073.872	3524.125
1077.287	3541.125
1080.7	3563.45833
1084.11	3571.45833
1087.517	3517.79167
1090.922	3485.125
1094.325	3446.45833
1097.724	3420.125
1101.122	3414.45833
1104.516	3401.45833
1107.908	3399.45833
1111.298	3467.45833
1114.684	3496.79167
1118.069	3564.125
1121.45	3593.45833
1124.83	3571.45833
1128.206	3576.79167
1131.58	3634.79167
1134.951	3706.45833
1138.32	3822.45833
1141.687	3985.79167
1145.05	4082.125
1148.412	4110.45833
1151.77	4114.45833
1155.126	4100.125
1158.48	4103.125
1161.831	4133.45833
1165.18	4162.79167
1168.525	4298.125
1171.869	4301.45833
1175.21	4357.45833
1178.548	4390.79167
1181.884	4451.125
1185.217	4461.45833
1188.548	4524.125
1191.877	4591.125
1195.202	4683.79167
1198.526	4736.79167
1201.846	4785.45833
1205.165	4787.125
1208.48	4741.45833
1211.794	4750.45833
1215.104	4732.125
1218.413	4731.79167
1221.719	4731.125
1225.022	4669.45833
1228.323	4667.125
1231.621	4617.79167
1234.917	4609.125
1238.21	4616.79167
1241.501	4652.125
1244.79	4675.45833
1248.076	4668.125
1251.359	4692.125
1254.64	4795.125
1257.919	4824.125
1261.195	4903.45833
1264.468	4962.125
1267.74	5015.79167
1271.008	5066.79167
1274.275	4996.125
1277.538	4978.125
1280.8	4940.79167
1284.059	4965.125
1287.315	5002.45833
1290.569	5039.45833
1293.821	5062.45833
1297.07	5070.45833
1300.317	5066.45833
1303.562	5079.125
1306.803	5034.45833
1310.043	4967.45833
1313.28	4895.45833
1316.515	4887.45833
1319.747	4812.45833
1322.977	4775.79167
1326.204	4705.45833
1329.429	4649.125
1332.652	4595.125
1335.872	4598.45833
1339.09	4556.79167
1342.306	4573.45833
1345.519	4545.125
1348.729	4506.79167
1351.938	4509.79167
1355.144	4456.125
1358.347	4391.45833
1361.548	4362.45833
1364.747	4352.125
1367.944	4359.79167
1371.138	4377.79167
1374.329	4396.45833
1377.518	4436.45833
1380.705	4466.125
1383.89	4464.125
1387.072	4333.45833
1390.252	4189.125
1393.429	4060.125
1396.605	3916.45833
1399.777	3827.125
1402.948	3788.125
1406.116	3751.125
1409.282	3774.45833
1412.445	3771.45833
1415.606	3797.79167
1418.765	3839.125
1421.921	3927.45833
1425.075	4038.45833
1428.227	4161.79167
1431.376	4351.45833
1434.524	4485.79167
1437.668	4583.79167
1440.811	4657.125
1443.951	4672.45833
1447.089	4675.125
1450.224	4665.125
1453.357	4655.45833
1456.488	4594.45833
1459.617	4549.79167
1462.743	4514.45833
1465.867	4388.125
1468.989	4342.125
1472.108	4268.79167
1475.225	4177.79167
1478.34	4141.79167
1481.453	4141.79167
1484.563	4142.45833
1487.671	4169.79167
1490.776	4266.45833
1493.88	4346.79167
1496.981	4439.125
1500.08	4490.79167
1503.176	4621.45833
1506.271	4681.79167
1509.363	4750.125
1512.452	4827.45833
1515.54	4929.45833
1518.625	5011.125
1521.708	5239.45833
1524.789	5500.45833
1527.867	5861.45833
1530.944	6259.45833
1534.018	6540.45833
1537.089	6746.125
1540.159	6713.79167
1543.226	6557.125
1546.291	6308.79167
1549.354	6107.79167
1552.415	5908.45833
1555.473	5756.125
1558.529	5628.45833
1561.583	5529.125
1564.634	5481.45833
1567.684	5475.125
1570.731	5510.79167
1573.776	5510.45833
1576.819	5592.125
1579.859	5642.125
1582.898	5694.125
1585.934	5753.125
1588.968	5777.45833
1591.999	5733.45833
1595.029	5748.125
1598.056	5741.125
1601.081	5819.125
1604.104	5757.45833
1607.125	5711.45833
1610.144	5600.79167
1613.16	5446.125
1616.174	5355.79167
1619.186	5211.45833
1622.196	5119.45833
1625.203	5021.125
1628.209	4921.45833
1631.212	4878.79167
1634.213	4850.45833
1637.212	4805.79167
1640.209	4772.79167
1643.203	4631.79167
1646.196	4495.45833
1649.186	4321.45833
1652.174	4194.125
1655.16	4051.79167
1658.144	3942.79167
1661.125	3777.45833
1664.105	3571.125
1667.082	3416.79167
1670.057	3219.79167
1673.03	3011.79167
1676.001	2847.79167
1678.97	2660.45833
1681.937	2505.45833
1684.901	2356.45833
1687.863	2273.79167
1690.824	2177.45833
1693.782	2154.79167
1696.738	2072.45833
1699.692	2016.79167
1702.643	1972.45833
1705.593	1933.125
1708.54	1925.79167
1711.486	1937.125
1714.429	1869.125
1717.37	1837.79167
1720.309	1836.125
1723.246	1813.79167
1726.181	1784.79167
1729.113	1790.125
1732.044	1752.45833
1734.972	1752.79167
1737.899	1742.125
1740.823	1729.125
1743.745	1713.45833
1746.665	1675.125
1749.583	1654.45833
1752.499	1607.45833
1755.413	1594.79167
1758.325	1545.125
1761.235	1549.79167
1764.142	1518.79167
1767.048	1511.79167
1769.951	1508.125
1772.852	1476.125
1775.752	1474.125
1778.649	1480.79167
1781.544	1482.79167
1784.437	1446.125
1787.328	1452.45833
1790.217	1443.125
1793.104	1415.45833
1795.989	1419.125
1798.872	1409.79167
1801.753	1401.125
1804.631	1415.79167
1807.508	1416.79167
1810.383	1404.125
1813.255	1397.79167
1816.126	1392.45833
1818.994	1390.79167
1821.861	1371.125
1824.725	1366.45833
1827.587	1357.79167
1830.448	1358.125
1833.306	1321.79167
1836.162	1342.79167
1839.017	1337.45833
1841.869	1329.125
1844.719	1315.79167
1847.567	1312.45833
1850.414	1300.45833
1853.258	1310.79167
1856.1	1321.79167
1858.94	1308.45833
1861.778	1318.45833
1864.614	1289.125
1867.448	1300.125
1870.28	1294.79167
1873.111	1322.125
1875.939	1289.125
1878.765	1312.125
1881.589	1292.125
1884.411	1288.125
1887.231	1299.79167
1890.049	1286.125
1892.865	1275.45833
1895.68	1263.79167
1898.492	1256.125
1901.302	1245.125
1904.11	1253.45833
1906.916	1238.45833
1909.721	1239.79167
1912.523	1248.125
1915.323	1210.79167
1918.122	1233.125
1920.918	1229.45833
1923.712	1224.125
1926.505	1216.79167
1929.295	1214.45833
1932.084	1212.45833
1934.87	1217.45833
1937.655	1196.125
1940.438	1203.79167
1943.218	1214.45833
1945.997	1208.45833
1948.774	1218.45833
1951.549	1211.79167
1954.322	1193.79167
1957.093	1202.125
1959.862	1197.45833
1962.629	1189.79167
1965.394	1191.79167
1968.157	1180.79167
1970.918	1177.79167
1973.678	1182.79167
1976.435	1183.125
1979.19	1168.45833
1981.944	1152.79167
1984.696	1152.125
1987.445	1142.45833
1990.193	1143.45833
1992.939	1174.79167
1995.683	1166.125
1998.425	1119.79167
2001.165	1151.79167
2003.903	1128.125
2006.639	1123.45833
2009.374	1135.125
2012.106	1147.125
2014.837	1114.79167
2017.566	1145.45833
2020.292	1132.45833
2023.017	1139.79167
2025.74	1117.45833
2028.461	1119.125
2031.18	1113.79167
2033.898	1109.79167
2036.613	1116.45833
2039.327	1127.125
2042.038	1097.45833
2044.748	1112.45833
2047.456	1112.79167
2050.162	1077.45833
2052.866	1106.45833
2055.568	1099.79167
2058.268	1084.79167
2060.967	1103.79167
2063.663	1076.45833
2066.358	1082.45833
2069.051	1061.45833
2071.742	1078.79167
2074.431	1098.79167
2077.118	1082.125
2079.804	1060.45833
2082.487	1082.45833
2085.169	1101.45833
2087.849	1113.125
2090.527	1085.45833
2093.203	1101.79167
2095.877	1124.45833
2098.55	1111.79167
2101.22	1134.125
2103.889	1157.125
2106.556	1146.45833
2109.221	1200.125
2111.884	1251.45833
2114.546	1316.79167
2117.205	1415.125
2119.863	1548.45833
2122.519	1676.45833
2125.173	1811.45833
2127.825	1922.79167
2130.475	1970.79167
2133.124	1943.79167
2135.771	1877.125
2138.416	1783.45833
2141.059	1684.79167
2143.7	1598.45833
2146.339	1506.125
2148.977	1422.125
2151.613	1391.45833
2154.247	1334.45833
2156.879	1309.79167
2159.51	1282.45833
2162.138	1281.45833
2164.765	1269.79167
2167.39	1239.79167
2170.013	1261.45833
2172.634	1256.79167
2175.254	1249.125
2177.872	1261.79167
2180.488	1231.125
2183.102	1228.45833
2185.714	1205.45833
2188.325	1173.125
2190.934	1169.125
2193.541	1137.45833
2196.146	1118.79167
2198.75	1097.125
2201.351	1088.45833
2203.951	1050.125
2206.549	1059.79167
2209.146	1021.45833
2211.74	1002.45833
2214.333	1022.45833
2216.924	984.125
2219.514	987.125
2222.101	961.79167
2224.687	994.79167
2227.271	978.45833
2229.853	961.125
2232.433	945.79167
2235.012	969.79167
2237.589	970.45833
2240.164	967.79167
2242.738	950.125
2245.309	930.79167
2247.879	932.45833
2250.448	948.45833
2253.014	908.79167
2255.579	895.45833
2258.142	909.79167
2260.703	872.45833
2263.262	892.45833
2265.82	871.45833
2268.376	877.79167
2270.93	851.125
2273.483	850.125
2276.033	862.45833
2278.583	844.45833
2281.13	849.45833
2283.675	840.79167
2286.219	839.125
2288.761	834.125
2291.302	832.125
2293.841	841.45833
2296.377	818.125
2298.913	824.45833
2301.446	832.79167
2303.978	824.125
2306.508	805.79167
2309.037	816.45833
2311.563	818.45833
2314.088	821.79167
2316.612	795.79167
2319.133	797.79167
2321.653	805.45833
2324.171	785.45833
2326.688	803.125
2329.202	785.125
2331.715	788.45833
2334.227	788.125
2336.736	775.45833
2339.244	780.45833
2341.751	764.45833
2344.255	776.45833
2346.758	761.125
2349.259	763.79167
2351.759	763.45833
2354.257	756.45833
2356.753	763.79167
2359.247	761.45833
2361.74	773.125
2364.231	754.79167
2366.721	762.45833
2369.209	742.79167
2371.695	749.125
2374.179	743.79167
2376.662	749.45833
2379.143	770.45833
2381.622	750.45833
2384.1	746.45833
2386.576	740.79167
2389.051	760.125
2391.524	753.125
2393.995	753.45833
2396.464	736.125
2398.932	724.45833
2401.398	734.45833
2403.863	731.79167
2406.325	724.45833
2408.787	722.79167
2411.246	718.125
2413.704	716.125
2416.16	710.125
2418.615	718.45833
2421.068	729.45833
2423.519	722.79167
2425.969	710.125
2428.417	719.79167
2430.863	729.45833
2433.308	725.45833
2435.751	710.45833
2438.193	711.79167
2440.633	707.79167
2443.071	720.45833
2445.508	696.79167
2447.943	696.45833
2450.376	694.79167
2452.808	705.79167
2455.238	684.45833
2457.667	716.45833
2460.093	694.79167
2462.519	694.125
2464.942	698.125
2467.365	703.45833
2469.785	685.79167
2472.204	685.79167
2474.621	684.45833
2477.037	698.45833
2479.451	667.79167
2481.863	670.125
2484.274	667.79167
2486.683	678.45833
2489.091	677.45833
2491.497	683.125
2493.901	682.45833
2496.304	677.45833
2498.705	669.125
2501.105	669.79167
2503.503	687.45833
2505.899	654.79167
2508.294	680.45833
2510.687	657.125
2513.079	665.125
2515.469	664.125
2517.858	654.45833
2520.245	681.125
2522.63	655.79167
2525.014	654.79167
2527.396	652.79167
2529.776	645.125
2532.156	654.45833
2534.533	645.45833
2536.909	646.125
2539.283	627.45833
2541.656	644.125
2544.027	662.79167
2546.397	650.45833
2548.765	651.45833
2551.131	639.45833
2553.496	649.79167
2555.86	650.45833
2558.221	645.79167
2560.582	642.79167
2562.94	626.45833
2565.298	632.79167
2567.653	646.45833
2570.007	627.79167
2572.36	642.45833
2574.711	638.125
2577.06	659.45833
2579.408	639.45833
2581.754	634.125
2584.099	636.125
2586.442	643.45833
2588.784	634.125
2591.124	634.45833
2593.463	626.45833
2595.8	626.45833
2598.135	616.45833
2600.469	637.79167
2602.802	644.79167
2605.133	633.79167
2607.462	611.79167
2609.79	617.45833
2612.116	628.79167
2614.441	622.45833
2616.764	621.125
2619.086	618.79167
2621.406	616.45833
2623.725	625.45833
2626.042	631.79167
2628.358	610.45833
2630.672	617.45833
2632.985	639.125
2635.296	639.125
2637.606	622.45833
2639.914	615.125
2642.22	633.79167
2644.525	621.125
2646.829	635.125
2649.131	630.45833
2651.432	632.45833
2653.731	633.79167
2656.028	638.125
2658.324	639.125
2660.619	629.45833
2662.912	636.79167
2665.204	626.125
2667.494	654.79167
2669.782	626.79167
2672.07	638.125
2674.355	648.79167
2676.639	632.79167
2678.922	630.45833
2681.203	624.45833
2683.483	620.45833
2685.761	616.125
2688.038	642.79167
2690.313	655.79167
2692.587	639.125
2694.859	642.45833
2697.13	645.125
2699.399	658.45833
2701.667	662.79167
2703.933	659.125
2706.198	662.45833
2708.461	671.79167
2710.723	677.45833
2712.984	664.125
2715.243	684.45833
2717.5	681.79167
2719.757	687.125
2722.011	678.125
2724.264	696.45833
2726.516	713.79167
2728.766	687.125
2731.015	690.79167
2733.262	687.45833
2735.508	683.125
2737.753	696.45833
2739.996	652.45833
2742.237	662.45833
2744.477	678.79167
2746.716	669.45833
2748.953	663.45833
2751.189	661.125
2753.423	646.79167
2755.656	651.79167
2757.887	645.45833
2760.117	644.45833
2762.346	646.79167
2764.573	642.45833
2766.798	643.45833
2769.022	646.45833
2771.245	644.79167
2773.467	647.125
2775.686	665.125
2777.905	660.79167
2780.122	666.125
2782.337	675.125
2784.552	667.125
2786.764	684.125
2788.976	690.79167
2791.186	691.125
2793.394	703.45833
2795.601	707.79167
2797.807	718.45833
2800.011	723.125
2802.214	740.125
2804.415	743.125
2806.615	755.45833
2808.814	761.45833
2811.011	772.79167
2813.206	765.45833
2815.401	794.79167
2817.594	807.79167
2819.785	830.125
2821.975	808.45833
2824.164	824.125
2826.351	856.45833
2828.537	882.79167
2830.722	896.45833
2832.905	904.125
2835.086	937.125
2837.267	995.125
2839.445	1026.45833
2841.623	1046.45833
2843.799	1093.45833
2845.974	1138.45833
2848.147	1178.125
2850.319	1215.125
2852.489	1264.79167
2854.659	1272.45833
2856.826	1315.45833
2858.993	1338.45833
2861.158	1323.45833
2863.321	1329.125
2865.483	1348.79167
2867.644	1347.79167
2869.804	1353.79167
2871.962	1335.125
2874.118	1336.79167
2876.274	1344.125
2878.428	1320.125
2880.58	1315.125
2882.731	1302.79167
2884.881	1326.125
2887.03	1314.125
2889.177	1311.125
2891.322	1330.45833
2893.467	1343.79167
2895.61	1333.79167
2897.751	1368.79167
2899.892	1344.45833
2902.03	1388.125
2904.168	1375.45833
2906.304	1382.79167
2908.439	1401.79167
2910.572	1385.79167
2912.704	1408.45833
2914.835	1392.79167
2916.965	1407.125
2919.093	1409.45833
2921.219	1354.45833
2923.345	1395.79167
2925.469	1342.45833
2927.591	1332.125
2929.712	1301.125
2931.832	1287.79167
2933.951	1248.79167
2936.068	1224.79167
2938.184	1175.45833
2940.299	1143.79167
2942.412	1112.79167
2944.524	1055.125
2946.634	1049.45833
2948.744	989.125
2950.851	1000.45833
2952.958	936.45833
2955.063	920.79167
2957.167	905.125
2959.269	870.125
2961.371	878.45833
2963.471	824.79167
2965.569	831.125
2967.666	796.45833
2969.762	772.125
2971.857	744.45833
2973.95	728.79167
2976.042	718.45833
2978.133	692.45833
2980.222	667.45833
2982.31	655.125
2984.396	619.125
2986.482	631.125
2988.566	617.45833
2990.648	614.79167
2992.73	599.125
2994.81	582.45833
2996.889	600.79167
2998.966	577.125
3001.042	568.125
3003.117	575.79167
3005.191	570.45833
3007.263	560.45833
3009.334	552.45833
3011.403	553.45833
3013.472	515.79167
3015.539	516.45833
3017.604	529.79167
3019.669	482.125
3021.732	497.45833
3023.794	501.125
3025.854	474.79167
3027.914	480.45833
3029.971	491.79167
3032.028	481.125
3034.083	483.125
3036.137	481.79167
3038.19	466.125
3040.242	444.45833
3042.292	434.79167
3044.341	432.79167
3046.388	443.79167
3048.435	422.125
3050.48	433.45833
3052.524	427.125
3054.566	401.45833
3056.607	411.125
3058.647	409.45833
3060.686	388.79167
3062.723	383.79167
3064.759	369.45833
3066.794	-0.875
3068.828	-2.54167
3070.86	-1.20833
