-0.839	405.58333
3.438	446.91667
7.711	130.25
11.981	58.25
16.247	47.58333
20.509	43.58333
24.768	46.58333
29.024	51.25
33.276	41.91667
37.524	52.25
41.769	44.25
46.01	40.58333
50.247	52.25
54.481	59.91667
58.712	68.58333
62.939	50.25
67.162	63.25
71.382	58.25
75.599	48.91667
79.812	67.25
84.021	80.58333
88.227	63.25
92.429	66.25
96.628	55.91667
100.823	72.25
105.015	76.58333
109.204	84.91667
113.388	81.91667
117.57	79.25
121.748	95.58333
125.922	88.25
130.093	105.58333
134.261	117.58333
138.425	104.58333
142.585	150.91667
146.742	152.25
150.896	180.25
155.046	228.25
159.193	356.91667
163.336	602.58333
167.476	1113.25
171.613	2044.25
175.746	3408.91667
179.875	5117.91667
184.002	6717.58333
188.124	7847.58333
192.244	8277.25
196.36	8241.91667
200.472	8030.25
204.581	7864.58333
208.687	7698.25
212.79	7686.25
216.889	7682.91667
220.984	7802.58333
225.077	7908.25
229.165	8021.58333
233.251	8130.58333
237.333	8239.91667
241.412	8251.91667
245.487	8219.25
249.559	8152.91667
253.628	8126.25
257.694	8062.91667
261.756	7972.91667
265.814	7852.91667
269.87	7577.91667
273.922	7337.58333
277.97	7167.25
282.016	6980.91667
286.058	6853.58333
290.097	6803.25
294.132	6818.91667
298.164	6748.58333
302.193	6497.58333
306.219	6018.25
310.241	5407.91667
314.26	4922.58333
318.276	4491.91667
322.288	4182.58333
326.297	3933.91667
330.303	3759.91667
334.305	3648.25
338.305	3550.91667
342.301	3459.91667
346.294	3422.25
350.283	3392.25
354.269	3362.91667
358.252	3316.58333
362.232	3310.25
366.209	3275.91667
370.182	3233.58333
374.152	3199.58333
378.119	3180.91667
382.083	3178.58333
386.043	3224.58333
390	3161.58333
393.954	3159.91667
397.905	3131.58333
401.852	3111.58333
405.797	3071.91667
409.738	3024.58333
413.676	3033.91667
417.61	3001.58333
421.542	2957.91667
425.47	2938.58333
429.396	2917.58333
433.318	2903.25
437.236	2886.25
441.152	2901.25
445.065	2844.91667
448.974	2819.25
452.88	2796.58333
456.783	2768.58333
460.683	2773.58333
464.58	2755.91667
468.473	2769.58333
472.364	2772.25
476.251	2794.25
480.135	2811.58333
484.016	2819.25
487.894	2837.25
491.769	2840.91667
495.641	2863.91667
499.509	2847.91667
503.375	2852.91667
507.237	2856.58333
511.096	2832.91667
514.952	2827.25
518.805	2832.25
522.655	2832.58333
526.502	2821.25
530.346	2808.58333
534.187	2848.58333
538.024	2866.91667
541.859	2867.91667
545.69	2888.91667
549.519	2872.91667
553.344	2835.58333
557.166	2796.58333
560.985	2762.25
564.802	2722.58333
568.615	2694.25
572.425	2632.58333
576.232	2606.91667
580.036	2622.25
583.836	2629.58333
587.634	2639.58333
591.429	2638.25
595.221	2677.91667
599.01	2714.58333
602.796	2756.91667
606.578	2782.58333
610.358	2771.25
614.135	2766.91667
617.909	2756.58333
621.679	2736.58333
625.447	2710.58333
629.212	2731.25
632.973	2714.25
636.732	2718.25
640.488	2731.25
644.241	2687.91667
647.991	2687.91667
651.737	2689.91667
655.481	2682.58333
659.222	2691.91667
662.96	2700.58333
666.695	2715.91667
670.427	2725.91667
674.156	2726.58333
677.882	2712.25
681.605	2701.58333
685.325	2686.91667
689.043	2675.25
692.757	2676.58333
696.468	2649.25
700.177	2675.91667
703.882	2662.91667
707.585	2656.91667
711.284	2663.25
714.981	2683.25
718.675	2687.91667
722.366	2691.58333
726.054	2690.91667
729.739	2664.58333
733.421	2661.25
737.1	2651.25
740.777	2692.25
744.45	2708.25
748.121	2735.91667
751.789	2794.25
755.453	2767.58333
759.115	2787.25
762.774	2830.91667
766.431	2855.58333
770.084	2879.58333
773.734	2944.25
777.382	3023.25
781.027	3044.91667
784.669	3047.91667
788.308	3054.25
791.944	3061.58333
795.577	3076.91667
799.208	3091.58333
802.835	3113.58333
806.46	3156.58333
810.082	3196.25
813.701	3212.58333
817.317	3231.91667
820.931	3224.25
824.542	3228.58333
828.149	3204.58333
831.754	3172.91667
835.357	3145.25
838.956	3151.91667
842.553	3120.91667
846.146	3092.91667
849.737	3087.25
853.326	3105.58333
856.911	3135.58333
860.493	3180.25
864.073	3177.25
867.65	3247.25
871.225	3259.25
874.796	3270.25
878.365	3298.91667
881.931	3323.58333
885.494	3334.25
889.054	3322.25
892.612	3355.25
896.166	3292.25
899.719	3281.25
903.268	3250.58333
906.814	3211.58333
910.358	3207.58333
913.899	3194.25
917.438	3190.58333
920.973	3179.91667
924.506	3228.58333
928.036	3286.25
931.564	3342.91667
935.088	3345.25
938.61	3360.91667
942.129	3396.91667
945.646	3493.58333
949.16	3563.58333
952.671	3685.91667
956.179	3697.25
959.685	3681.91667
963.188	3684.58333
966.688	3616.25
970.185	3522.25
973.68	3455.25
977.173	3418.91667
980.662	3375.58333
984.149	3401.91667
987.633	3382.91667
991.114	3453.58333
994.593	3518.25
998.069	3659.91667
1001.542	3764.58333
1005.013	3685.58333
1008.481	3456.25
1011.947	3403.58333
1015.409	3406.91667
1018.869	3385.91667
1022.327	3368.91667
1025.782	3355.91667
1029.234	3355.25
1032.683	3305.58333
1036.13	3209.91667
1039.574	3088.25
1043.016	2983.58333
1046.455	2941.25
1049.891	2916.58333
1053.325	2900.91667
1056.756	2901.25
1060.184	2933.91667
1063.61	2958.91667
1067.033	2968.58333
1070.454	2956.91667
1073.872	3008.58333
1077.287	2995.25
1080.7	3007.25
1084.11	3013.58333
1087.517	2990.25
1090.922	2977.25
1094.325	2926.91667
1097.724	2890.25
1101.122	2891.58333
1104.516	2895.58333
1107.908	2906.58333
1111.298	2959.91667
1114.684	2997.58333
1118.069	3014.25
1121.45	3058.58333
1124.83	3031.58333
1128.206	3078.25
1131.58	3121.25
1134.951	3221.25
1138.32	3340.25
1141.687	3482.25
1145.05	3588.91667
1148.412	3626.91667
1151.77	3622.58333
1155.126	3587.25
1158.48	3583.25
1161.831	3595.58333
1165.18	3651.25
1168.525	3698.91667
1171.869	3754.58333
1175.21	3797.58333
1178.548	3838.91667
1181.884	3880.91667
1185.217	3894.25
1188.548	3975.91667
1191.877	4018.91667
1195.202	4118.58333
1198.526	4175.25
1201.846	4208.91667
1205.165	4174.58333
1208.48	4170.91667
1211.794	4150.25
1215.104	4144.25
1218.413	4138.58333
1221.719	4116.25
1225.022	4072.58333
1228.323	4029.58333
1231.621	4003.58333
1234.917	3983.25
1238.21	4036.25
1241.501	3979.25
1244.79	4014.25
1248.076	3989.91667
1251.359	3997.25
1254.64	4111.25
1257.919	4147.58333
1261.195	4214.91667
1264.468	4306.25
1267.74	4373.25
1271.008	4383.91667
1274.275	4392.58333
1277.538	4326.91667
1280.8	4333.25
1284.059	4296.91667
1287.315	4347.25
1290.569	4343.58333
1293.821	4392.25
1297.07	4411.25
1300.317	4421.25
1303.562	4421.91667
1306.803	4402.25
1310.043	4327.91667
1313.28	4282.91667
1316.515	4254.58333
1319.747	4184.91667
1322.977	4136.58333
1326.204	4097.58333
1329.429	4051.91667
1332.652	4016.25
1335.872	3981.25
1339.09	3943.25
1342.306	3946.58333
1345.519	3890.58333
1348.729	3870.91667
1351.938	3842.58333
1355.144	3795.58333
1358.347	3725.91667
1361.548	3714.58333
1364.747	3737.91667
1367.944	3716.25
1371.138	3744.58333
1374.329	3780.25
1377.518	3810.91667
1380.705	3845.58333
1383.89	3844.91667
1387.072	3730.91667
1390.252	3588.91667
1393.429	3455.91667
1396.605	3333.25
1399.777	3228.91667
1402.948	3203.58333
1406.116	3181.25
1409.282	3173.58333
1412.445	3189.25
1415.606	3202.25
1418.765	3263.91667
1421.921	3325.91667
1425.075	3430.58333
1428.227	3528.58333
1431.376	3723.91667
1434.524	3883.91667
1437.668	3971.25
1440.811	4012.25
1443.951	4039.25
1447.089	4072.25
1450.224	4080.91667
1453.357	4048.58333
1456.488	3994.25
1459.617	3947.91667
1462.743	3926.91667
1465.867	3824.25
1468.989	3776.91667
1472.108	3735.58333
1475.225	3668.25
1478.34	3626.58333
1481.453	3637.58333
1484.563	3651.25
1487.671	3695.25
1490.776	3774.58333
1493.88	3870.25
1496.981	3942.25
1500.08	4002.58333
1503.176	4083.58333
1506.271	4126.25
1509.363	4183.91667
1512.452	4232.91667
1515.54	4333.25
1518.625	4424.58333
1521.708	4554.25
1524.789	4803.91667
1527.867	5074.58333
1530.944	5341.25
1534.018	5588.58333
1537.089	5723.58333
1540.159	5680.91667
1543.226	5560.25
1546.291	5372.25
1549.354	5203.25
1552.415	5074.91667
1555.473	4931.91667
1558.529	4847.58333
1561.583	4790.91667
1564.634	4778.58333
1567.684	4764.25
1570.731	4793.58333
1573.776	4865.91667
1576.819	4890.25
1579.859	4938.91667
1582.898	5025.25
1585.934	5033.58333
1588.968	5058.58333
1591.999	5055.25
1595.029	5061.91667
1598.056	5066.25
1601.081	5046.25
1604.104	5078.58333
1607.125	5024.91667
1610.144	4929.58333
1613.16	4794.58333
1616.174	4696.91667
1619.186	4551.25
1622.196	4460.91667
1625.203	4335.25
1628.209	4294.25
1631.212	4277.25
1634.213	4224.91667
1637.212	4201.91667
1640.209	4079.25
1643.203	3989.91667
1646.196	3842.25
1649.186	3676.91667
1652.174	3544.58333
1655.16	3433.25
1658.144	3330.25
1661.125	3179.91667
1664.105	3030.58333
1667.082	2887.91667
1670.057	2739.91667
1673.03	2547.58333
1676.001	2402.58333
1678.97	2224.25
1681.937	2074.25
1684.901	1961.91667
1687.863	1895.58333
1690.824	1822.91667
1693.782	1757.58333
1696.738	1719.58333
1699.692	1675.25
1702.643	1633.25
1705.593	1616.91667
1708.54	1591.58333
1711.486	1571.25
1714.429	1546.25
1717.37	1534.91667
1720.309	1511.91667
1723.246	1513.58333
1726.181	1463.25
1729.113	1479.25
1732.044	1446.58333
1734.972	1427.58333
1737.899	1441.91667
1740.823	1421.58333
1743.745	1427.58333
1746.665	1361.25
1749.583	1349.58333
1752.499	1328.25
1755.413	1291.25
1758.325	1276.91667
1761.235	1274.25
1764.142	1247.58333
1767.048	1240.58333
1769.951	1238.25
1772.852	1219.25
1775.752	1215.91667
1778.649	1211.58333
1781.544	1215.25
1784.437	1166.25
1787.328	1193.25
1790.217	1183.91667
1793.104	1151.58333
1795.989	1148.58333
1798.872	1142.91667
1801.753	1166.58333
1804.631	1155.25
1807.508	1161.25
1810.383	1145.91667
1813.255	1136.58333
1816.126	1140.91667
1818.994	1136.25
1821.861	1109.58333
1824.725	1112.25
1827.587	1120.58333
1830.448	1115.91667
1833.306	1074.58333
1836.162	1091.58333
1839.017	1080.58333
1841.869	1077.25
1844.719	1088.91667
1847.567	1073.25
1850.414	1058.58333
1853.258	1064.91667
1856.1	1061.25
1858.94	1078.91667
1861.778	1056.25
1864.614	1047.58333
1867.448	1063.58333
1870.28	1053.25
1873.111	1066.25
1875.939	1064.25
1878.765	1060.91667
1881.589	1040.58333
1884.411	1039.58333
1887.231	1058.91667
1890.049	1045.58333
1892.865	1043.58333
1895.68	1033.58333
1898.492	1024.91667
1901.302	1011.58333
1904.11	1014.91667
1906.916	1006.25
1909.721	1004.25
1912.523	1007.25
1915.323	991.58333
1918.122	994.91667
1920.918	1008.58333
1923.712	998.25
1926.505	989.91667
1929.295	961.58333
1932.084	991.91667
1934.87	995.58333
1937.655	974.58333
1940.438	973.25
1943.218	977.58333
1945.997	991.25
1948.774	1000.25
1951.549	988.58333
1954.322	960.58333
1957.093	969.25
1959.862	963.58333
1962.629	967.58333
1965.394	959.91667
1968.157	937.58333
1970.918	958.25
1973.678	949.58333
1976.435	930.25
1979.19	949.58333
1981.944	933.25
1984.696	936.25
1987.445	929.58333
1990.193	924.91667
1992.939	926.58333
1995.683	920.58333
1998.425	910.25
2001.165	936.25
2003.903	924.25
2006.639	917.25
2009.374	920.25
2012.106	923.25
2014.837	898.91667
2017.566	913.58333
2020.292	915.91667
2023.017	922.58333
2025.74	903.58333
2028.461	905.25
2031.18	894.25
2033.898	893.91667
2036.613	900.25
2039.327	902.91667
2042.038	877.58333
2044.748	891.25
2047.456	882.58333
2050.162	868.25
2052.866	874.91667
2055.568	884.91667
2058.268	892.91667
2060.967	883.91667
2063.663	868.91667
2066.358	875.91667
2069.051	847.25
2071.742	872.58333
2074.431	873.91667
2077.118	862.25
2079.804	856.25
2082.487	858.58333
2085.169	888.58333
2087.849	896.58333
2090.527	869.25
2093.203	883.25
2095.877	862.58333
2098.55	876.91667
2101.22	892.25
2103.889	878.25
2106.556	899.91667
2109.221	903.25
2111.884	929.91667
2114.546	976.25
2117.205	1029.25
2119.863	1099.91667
2122.519	1169.58333
2125.173	1263.25
2127.825	1356.91667
2130.475	1394.58333
2133.124	1367.25
2135.771	1325.25
2138.416	1288.25
2141.059	1207.25
2143.7	1161.58333
2146.339	1079.25
2148.977	1031.58333
2151.613	1013.58333
2154.247	990.58333
2156.879	957.91667
2159.51	953.25
2162.138	946.58333
2164.765	922.25
2167.39	917.25
2170.013	934.91667
2172.634	931.58333
2175.254	919.91667
2177.872	931.25
2180.488	898.91667
2183.102	899.25
2185.714	874.58333
2188.325	860.25
2190.934	864.58333
2193.541	859.58333
2196.146	853.58333
2198.75	832.91667
2201.351	827.25
2203.951	803.58333
2206.549	814.25
2209.146	799.58333
2211.74	792.91667
2214.333	807.25
2216.924	773.25
2219.514	773.25
2222.101	767.25
2224.687	773.58333
2227.271	760.58333
2229.853	758.58333
2232.433	734.25
2235.012	759.91667
2237.589	773.58333
2240.164	762.91667
2242.738	764.91667
2245.309	744.91667
2247.879	739.25
2250.448	732.58333
2253.014	719.91667
2255.579	699.58333
2258.142	718.91667
2260.703	690.25
2263.262	698.58333
2265.82	691.91667
2268.376	693.25
2270.93	674.91667
2273.483	669.25
2276.033	686.91667
2278.583	674.91667
2281.13	660.25
2283.675	652.58333
2286.219	666.58333
2288.761	659.91667
2291.302	660.91667
2293.841	658.58333
2296.377	642.91667
2298.913	648.58333
2301.446	652.58333
2303.978	648.58333
2306.508	639.58333
2309.037	642.25
2311.563	644.91667
2314.088	646.91667
2316.612	627.58333
2319.133	631.25
2321.653	619.91667
2324.171	621.25
2326.688	629.58333
2329.202	616.91667
2331.715	627.58333
2334.227	623.25
2336.736	615.25
2339.244	604.25
2341.751	601.25
2344.255	612.25
2346.758	605.91667
2349.259	599.25
2351.759	604.25
2354.257	599.25
2356.753	594.58333
2359.247	595.58333
2361.74	604.91667
2364.231	595.58333
2366.721	606.91667
2369.209	590.91667
2371.695	577.58333
2374.179	580.91667
2376.662	582.25
2379.143	606.91667
2381.622	578.58333
2384.1	580.58333
2386.576	575.25
2389.051	582.91667
2391.524	599.91667
2393.995	595.58333
2396.464	571.91667
2398.932	574.25
2401.398	569.91667
2403.863	571.25
2406.325	560.91667
2408.787	558.91667
2411.246	569.58333
2413.704	564.25
2416.16	561.58333
2418.615	563.25
2421.068	573.58333
2423.519	566.58333
2425.969	554.58333
2428.417	570.91667
2430.863	574.58333
2433.308	573.25
2435.751	558.91667
2438.193	553.58333
2440.633	558.25
2443.071	557.91667
2445.508	525.91667
2447.943	546.58333
2450.376	528.91667
2452.808	545.91667
2455.238	537.58333
2457.667	570.58333
2460.093	545.25
2462.519	526.25
2464.942	532.25
2467.365	525.58333
2469.785	542.58333
2472.204	536.25
2474.621	530.25
2477.037	557.58333
2479.451	522.58333
2481.863	507.91667
2484.274	516.25
2486.683	522.91667
2489.091	518.25
2491.497	522.58333
2493.901	525.91667
2496.304	513.91667
2498.705	525.91667
2501.105	513.25
2503.503	538.91667
2505.899	516.25
2508.294	530.91667
2510.687	511.91667
2513.079	506.58333
2515.469	503.58333
2517.858	500.91667
2520.245	524.25
2522.63	500.25
2525.014	497.25
2527.396	496.25
2529.776	500.58333
2532.156	502.58333
2534.533	488.58333
2536.909	496.91667
2539.283	484.25
2541.656	489.58333
2544.027	510.25
2546.397	498.25
2548.765	494.91667
2551.131	491.58333
2553.496	499.91667
2555.86	494.58333
2558.221	494.91667
2560.582	482.58333
2562.94	479.25
2565.298	485.91667
2567.653	512.25
2570.007	466.91667
2572.36	488.91667
2574.711	476.58333
2577.06	497.91667
2579.408	481.91667
2581.754	478.91667
2584.099	478.25
2586.442	480.58333
2588.784	481.58333
2591.124	480.91667
2593.463	478.58333
2595.8	473.91667
2598.135	457.25
2600.469	478.25
2602.802	489.58333
2605.133	484.25
2607.462	475.58333
2609.79	466.58333
2612.116	470.91667
2614.441	464.91667
2616.764	467.58333
2619.086	472.58333
2621.406	471.91667
2623.725	475.91667
2626.042	470.25
2628.358	451.91667
2630.672	469.25
2632.985	484.25
2635.296	471.58333
2637.606	476.91667
2639.914	463.58333
2642.22	474.25
2644.525	463.25
2646.829	475.25
2649.131	488.58333
2651.432	478.58333
2653.731	466.58333
2656.028	484.25
2658.324	468.25
2660.619	466.91667
2662.912	485.91667
2665.204	469.58333
2667.494	476.58333
2669.782	469.91667
2672.07	469.91667
2674.355	476.58333
2676.639	465.25
2678.922	475.58333
2681.203	481.25
2683.483	465.58333
2685.761	462.25
2688.038	481.25
2690.313	492.91667
2692.587	472.91667
2694.859	473.25
2697.13	469.25
2699.399	471.58333
2701.667	496.25
2703.933	500.91667
2706.198	489.25
2708.461	492.91667
2710.723	503.58333
2712.984	499.91667
2715.243	509.58333
2717.5	506.58333
2719.757	508.58333
2722.011	516.58333
2724.264	517.91667
2726.516	535.25
2728.766	518.25
2731.015	516.91667
2733.262	513.25
2735.508	511.58333
2737.753	513.91667
2739.996	489.58333
2742.237	496.58333
2744.477	497.58333
2746.716	503.58333
2748.953	492.25
2751.189	495.58333
2753.423	473.25
2755.656	480.25
2757.887	470.58333
2760.117	479.58333
2762.346	466.25
2764.573	460.91667
2766.798	472.58333
2769.022	476.58333
2771.245	476.58333
2773.467	468.91667
2775.686	469.91667
2777.905	485.91667
2780.122	487.25
2782.337	487.25
2784.552	477.91667
2786.764	491.91667
2788.976	497.91667
2791.186	506.91667
2793.394	504.58333
2795.601	508.91667
2797.807	521.25
2800.011	528.58333
2802.214	532.91667
2804.415	548.25
2806.615	538.58333
2808.814	564.91667
2811.011	561.58333
2813.206	552.25
2815.401	588.25
2817.594	597.58333
2819.785	601.58333
2821.975	593.91667
2824.164	606.91667
2826.351	634.25
2828.537	663.25
2830.722	673.25
2832.905	680.91667
2835.086	724.25
2837.267	755.58333
2839.445	795.25
2841.623	825.91667
2843.799	871.25
2845.974	912.91667
2848.147	962.25
2850.319	994.91667
2852.489	1015.58333
2854.659	1023.91667
2856.826	1078.25
2858.993	1083.58333
2861.158	1084.58333
2863.321	1080.25
2865.483	1102.91667
2867.644	1103.91667
2869.804	1098.25
2871.962	1097.58333
2874.118	1105.91667
2876.274	1081.91667
2878.428	1071.91667
2880.58	1080.91667
2882.731	1081.25
2884.881	1075.25
2887.03	1078.25
2889.177	1079.91667
2891.322	1106.91667
2893.467	1086.91667
2895.61	1101.91667
2897.751	1132.58333
2899.892	1130.91667
2902.03	1140.25
2904.168	1145.91667
2906.304	1150.58333
2908.439	1166.91667
2910.572	1148.58333
2912.704	1166.91667
2914.835	1166.58333
2916.965	1165.91667
2919.093	1180.91667
2921.219	1143.25
2923.345	1152.25
2925.469	1128.58333
2927.591	1131.91667
2929.712	1073.91667
2931.832	1073.91667
2933.951	1044.25
2936.068	1017.25
2938.184	988.58333
2940.299	961.58333
2942.412	919.25
2944.524	875.58333
2946.634	856.58333
2948.744	797.58333
2950.851	797.25
2952.958	749.91667
2955.063	746.58333
2957.167	730.25
2959.269	678.58333
2961.371	707.58333
2963.471	658.25
2965.569	653.25
2967.666	618.91667
2969.762	598.58333
2971.857	569.25
2973.95	570.25
2976.042	556.25
2978.133	538.91667
2980.222	526.25
2982.31	501.25
2984.396	483.91667
2986.482	484.58333
2988.566	472.58333
2990.648	458.25
2992.73	458.91667
2994.81	446.25
2996.889	442.91667
2998.966	427.58333
3001.042	446.91667
3003.117	432.58333
3005.191	419.58333
3007.263	409.25
3009.334	416.91667
3011.403	409.25
3013.472	394.25
3015.539	398.58333
3017.604	394.25
3019.669	368.58333
3021.732	371.91667
3023.794	364.58333
3025.854	359.25
3027.914	350.91667
3029.971	361.58333
3032.028	345.58333
3034.083	350.25
3036.137	341.25
3038.19	329.58333
3040.242	322.58333
3042.292	314.91667
3044.341	311.58333
3046.388	332.58333
3048.435	294.58333
3050.48	322.58333
3052.524	310.25
3054.566	288.25
3056.607	312.25
3058.647	292.91667
3060.686	277.25
3062.723	273.25
3064.759	265.25
3066.794	1.25
3068.828	-1.41667
3070.86	-3.41667
