-0.839	404.54167
3.438	449.20833
7.711	142.20833
11.981	54.875
16.247	50.54167
20.509	48.20833
24.768	49.54167
29.024	49.54167
33.276	49.20833
37.524	56.20833
41.769	47.20833
46.01	35.875
50.247	55.875
54.481	61.54167
58.712	68.875
62.939	53.875
67.162	63.54167
71.382	59.875
75.599	48.875
79.812	71.20833
84.021	86.20833
88.227	64.54167
92.429	62.54167
96.628	52.54167
100.823	74.20833
105.015	81.54167
109.204	85.20833
113.388	86.875
117.57	83.875
121.748	96.54167
125.922	91.875
130.093	116.20833
134.261	123.54167
138.425	110.54167
142.585	161.54167
146.742	158.20833
150.896	186.54167
155.046	235.20833
159.193	368.20833
163.336	630.20833
167.476	1144.875
171.613	2130.54167
175.746	3575.20833
179.875	5398.20833
184.002	7141.54167
188.124	8438.875
192.244	8853.54167
196.36	8900.875
200.472	8815.875
204.581	8642.20833
208.687	8503.54167
212.79	8493.875
216.889	8604.54167
220.984	8778.875
225.077	8932.20833
229.165	9114.20833
233.251	9298.20833
237.333	9463.875
241.412	9433.20833
245.487	9421.20833
249.559	9301.875
253.628	9239.54167
257.694	9170.20833
261.756	9032.20833
265.814	8841.20833
269.87	8523.54167
273.922	8238.20833
277.97	7999.54167
282.016	7780.54167
286.058	7694.875
290.097	7691.54167
294.132	7628.54167
298.164	7461.20833
302.193	7063.875
306.219	6605.875
310.241	5988.875
314.26	5476.20833
318.276	5029.875
322.288	4726.54167
326.297	4461.875
330.303	4234.20833
334.305	4138.20833
338.305	4070.20833
342.301	3987.54167
346.294	3945.20833
350.283	3918.54167
354.269	3889.20833
358.252	3859.875
362.232	3826.875
366.209	3791.875
370.182	3747.20833
374.152	3751.54167
378.119	3729.20833
382.083	3737.20833
386.043	3775.875
390	3719.875
393.954	3674.20833
397.905	3653.875
401.852	3625.54167
405.797	3577.20833
409.738	3521.875
413.676	3525.875
417.61	3490.20833
421.542	3466.54167
425.47	3417.54167
429.396	3406.54167
433.318	3360.54167
437.236	3329.875
441.152	3370.54167
445.065	3302.875
448.974	3281.20833
452.88	3267.54167
456.783	3245.54167
460.683	3239.875
464.58	3248.20833
468.473	3247.54167
472.364	3252.20833
476.251	3254.54167
480.135	3303.54167
484.016	3315.875
487.894	3338.54167
491.769	3362.54167
495.641	3344.54167
499.509	3326.54167
503.375	3310.875
507.237	3325.875
511.096	3313.875
514.952	3338.54167
518.805	3351.20833
522.655	3389.20833
526.502	3325.20833
530.346	3290.20833
534.187	3297.20833
538.024	3307.54167
541.859	3299.875
545.69	3328.875
549.519	3290.54167
553.344	3287.20833
557.166	3227.54167
560.985	3221.54167
564.802	3168.20833
568.615	3133.875
572.425	3091.20833
576.232	3071.54167
580.036	3045.54167
583.836	3061.875
587.634	3071.20833
591.429	3072.20833
595.221	3106.54167
599.01	3131.875
602.796	3184.875
606.578	3237.20833
610.358	3216.20833
614.135	3214.875
617.909	3195.875
621.679	3170.20833
625.447	3151.875
629.212	3167.54167
632.973	3175.20833
636.732	3162.20833
640.488	3160.54167
644.241	3152.54167
647.991	3136.20833
651.737	3103.54167
655.481	3095.875
659.222	3097.875
662.96	3098.20833
666.695	3106.20833
670.427	3135.54167
674.156	3128.20833
677.882	3131.875
681.605	3121.875
685.325	3092.54167
689.043	3086.875
692.757	3087.54167
696.468	3115.875
700.177	3109.20833
703.882	3124.54167
707.585	3095.20833
711.284	3116.54167
714.981	3135.875
718.675	3139.20833
722.366	3129.20833
726.054	3129.875
729.739	3138.875
733.421	3142.54167
737.1	3122.20833
740.777	3163.875
744.45	3192.20833
748.121	3172.54167
751.789	3246.20833
755.453	3259.875
759.115	3322.875
762.774	3316.54167
766.431	3326.54167
770.084	3400.20833
773.734	3421.20833
777.382	3494.875
781.027	3517.20833
784.669	3537.875
788.308	3577.54167
791.944	3589.875
795.577	3583.54167
799.208	3640.875
802.835	3628.54167
806.46	3680.875
810.082	3692.875
813.701	3730.20833
817.317	3777.20833
820.931	3750.54167
824.542	3741.54167
828.149	3736.54167
831.754	3696.875
835.357	3696.20833
838.956	3669.875
842.553	3684.875
846.146	3644.20833
849.737	3632.875
853.326	3683.875
856.911	3667.875
860.493	3704.54167
864.073	3748.20833
867.65	3793.875
871.225	3849.875
874.796	3815.20833
878.365	3873.54167
881.931	3906.875
885.494	3914.875
889.054	3936.54167
892.612	3921.20833
896.166	3901.54167
899.719	3863.54167
903.268	3842.20833
906.814	3797.20833
910.358	3758.875
913.899	3759.20833
917.438	3771.875
920.973	3724.54167
924.506	3760.20833
928.036	3828.54167
931.564	3859.20833
935.088	3889.54167
938.61	3936.875
942.129	3948.20833
945.646	4025.54167
949.16	4106.875
952.671	4225.54167
956.179	4247.875
959.685	4222.875
963.188	4194.875
966.688	4167.20833
970.185	4066.20833
973.68	3954.54167
977.173	3967.875
980.662	3939.54167
984.149	3987.54167
987.633	3971.20833
991.114	4042.54167
994.593	4210.875
998.069	4299.20833
1001.542	4423.54167
1005.013	4328.54167
1008.481	4108.20833
1011.947	4005.875
1015.409	3984.20833
1018.869	4032.54167
1022.327	3992.20833
1025.782	3949.54167
1029.234	3964.54167
1032.683	3884.875
1036.13	3758.20833
1039.574	3619.20833
1043.016	3528.20833
1046.455	3471.875
1049.891	3402.875
1053.325	3427.54167
1056.756	3418.875
1060.184	3443.875
1063.61	3445.20833
1067.033	3501.20833
1070.454	3486.54167
1073.872	3532.20833
1077.287	3509.20833
1080.7	3518.54167
1084.11	3553.875
1087.517	3488.20833
1090.922	3464.54167
1094.325	3438.54167
1097.724	3395.54167
1101.122	3357.54167
1104.516	3382.875
1107.908	3394.875
1111.298	3455.875
1114.684	3496.875
1118.069	3534.20833
1121.45	3559.20833
1124.83	3527.875
1128.206	3586.875
1131.58	3653.54167
1134.951	3700.54167
1138.32	3838.20833
1141.687	3982.20833
1145.05	4100.54167
1148.412	4129.20833
1151.77	4126.20833
1155.126	4108.875
1158.48	4153.875
1161.831	4176.54167
1165.18	4192.875
1168.525	4276.875
1171.869	4322.54167
1175.21	4393.875
1178.548	4433.875
1181.884	4477.54167
1185.217	4504.875
1188.548	4546.875
1191.877	4623.20833
1195.202	4706.54167
1198.526	4782.20833
1201.846	4802.875
1205.165	4774.54167
1208.48	4744.54167
1211.794	4729.54167
1215.104	4741.54167
1218.413	4765.20833
1221.719	4751.54167
1225.022	4712.875
1228.323	4660.875
1231.621	4639.54167
1234.917	4639.54167
1238.21	4673.20833
1241.501	4673.54167
1244.79	4657.20833
1248.076	4661.54167
1251.359	4728.20833
1254.64	4819.54167
1257.919	4826.20833
1261.195	4925.875
1264.468	4991.875
1267.74	5026.20833
1271.008	5047.54167
1274.275	5033.54167
1277.538	4996.20833
1280.8	4980.54167
1284.059	4957.875
1287.315	4976.20833
1290.569	5009.54167
1293.821	5032.54167
1297.07	5063.54167
1300.317	5076.875
1303.562	5067.20833
1306.803	5035.54167
1310.043	4982.875
1313.28	4957.54167
1316.515	4880.54167
1319.747	4800.20833
1322.977	4774.875
1326.204	4709.875
1329.429	4609.54167
1332.652	4561.875
1335.872	4554.875
1339.09	4558.54167
1342.306	4533.875
1345.519	4535.20833
1348.729	4502.20833
1351.938	4469.54167
1355.144	4423.20833
1358.347	4353.20833
1361.548	4349.54167
1364.747	4358.54167
1367.944	4317.875
1371.138	4362.20833
1374.329	4368.875
1377.518	4432.20833
1380.705	4470.20833
1383.89	4428.20833
1387.072	4329.54167
1390.252	4170.20833
1393.429	4031.20833
1396.605	3921.20833
1399.777	3796.20833
1402.948	3775.54167
1406.116	3745.54167
1409.282	3729.875
1412.445	3714.875
1415.606	3766.54167
1418.765	3847.875
1421.921	3933.54167
1425.075	4027.54167
1428.227	4153.54167
1431.376	4317.54167
1434.524	4479.875
1437.668	4575.54167
1440.811	4623.20833
1443.951	4657.20833
1447.089	4644.20833
1450.224	4677.875
1453.357	4650.20833
1456.488	4607.875
1459.617	4553.54167
1462.743	4472.875
1465.867	4381.54167
1468.989	4337.20833
1472.108	4261.20833
1475.225	4215.54167
1478.34	4143.54167
1481.453	4153.54167
1484.563	4143.54167
1487.671	4230.20833
1490.776	4299.875
1493.88	4417.20833
1496.981	4510.20833
1500.08	4596.54167
1503.176	4632.20833
1506.271	4741.54167
1509.363	4781.20833
1512.452	4856.20833
1515.54	4952.875
1518.625	5043.54167
1521.708	5261.20833
1524.789	5535.875
1527.867	5910.875
1530.944	6289.875
1534.018	6600.875
1537.089	6764.20833
1540.159	6746.20833
1543.226	6609.54167
1546.291	6375.54167
1549.354	6186.875
1552.415	5987.20833
1555.473	5809.20833
1558.529	5665.875
1561.583	5589.20833
1564.634	5564.20833
1567.684	5524.875
1570.731	5560.54167
1573.776	5581.54167
1576.819	5638.875
1579.859	5697.54167
1582.898	5731.54167
1585.934	5787.54167
1588.968	5795.20833
1591.999	5839.875
1595.029	5792.54167
1598.056	5818.875
1601.081	5840.54167
1604.104	5830.54167
1607.125	5764.54167
1610.144	5644.54167
1613.16	5485.875
1616.174	5374.20833
1619.186	5246.54167
1622.196	5097.875
1625.203	5007.20833
1628.209	4906.54167
1631.212	4856.875
1634.213	4795.54167
1637.212	4744.875
1640.209	4685.54167
1643.203	4555.20833
1646.196	4452.20833
1649.186	4260.875
1652.174	4154.20833
1655.16	3991.54167
1658.144	3868.54167
1661.125	3698.875
1664.105	3534.54167
1667.082	3362.54167
1670.057	3172.20833
1673.03	2983.20833
1676.001	2806.54167
1678.97	2611.54167
1681.937	2482.875
1684.901	2327.20833
1687.863	2267.20833
1690.824	2159.20833
1693.782	2121.54167
1696.738	2056.20833
1699.692	2008.54167
1702.643	1979.875
1705.593	1936.875
1708.54	1910.20833
1711.486	1894.875
1714.429	1856.875
1717.37	1834.20833
1720.309	1809.54167
1723.246	1814.20833
1726.181	1762.54167
1729.113	1765.54167
1732.044	1727.20833
1734.972	1722.20833
1737.899	1723.875
1740.823	1694.54167
1743.745	1691.875
1746.665	1629.875
1749.583	1625.54167
1752.499	1597.20833
1755.413	1562.20833
1758.325	1536.875
1761.235	1547.20833
1764.142	1509.54167
1767.048	1508.20833
1769.951	1483.20833
1772.852	1477.875
1775.752	1444.20833
1778.649	1455.875
1781.544	1439.875
1784.437	1432.54167
1787.328	1437.54167
1790.217	1417.54167
1793.104	1391.875
1795.989	1395.20833
1798.872	1389.875
1801.753	1404.20833
1804.631	1380.20833
1807.508	1389.54167
1810.383	1384.875
1813.255	1375.20833
1816.126	1368.875
1818.994	1361.54167
1821.861	1367.54167
1824.725	1350.54167
1827.587	1339.20833
1830.448	1336.875
1833.306	1319.20833
1836.162	1328.875
1839.017	1305.20833
1841.869	1319.20833
1844.719	1313.54167
1847.567	1306.54167
1850.414	1279.20833
1853.258	1296.54167
1856.1	1290.20833
1858.94	1315.20833
1861.778	1297.20833
1864.614	1278.54167
1867.448	1285.20833
1870.28	1266.875
1873.111	1289.20833
1875.939	1284.20833
1878.765	1297.54167
1881.589	1274.54167
1884.411	1261.54167
1887.231	1274.54167
1890.049	1263.20833
1892.865	1266.875
1895.68	1255.20833
1898.492	1249.20833
1901.302	1238.20833
1904.11	1238.20833
1906.916	1220.20833
1909.721	1227.875
1912.523	1237.54167
1915.323	1198.54167
1918.122	1213.20833
1920.918	1221.875
1923.712	1211.20833
1926.505	1194.20833
1929.295	1200.20833
1932.084	1211.20833
1934.87	1207.20833
1937.655	1200.20833
1940.438	1185.20833
1943.218	1189.875
1945.997	1197.875
1948.774	1196.20833
1951.549	1197.20833
1954.322	1189.875
1957.093	1194.54167
1959.862	1189.875
1962.629	1178.875
1965.394	1166.875
1968.157	1176.54167
1970.918	1165.20833
1973.678	1147.20833
1976.435	1173.20833
1979.19	1148.54167
1981.944	1147.54167
1984.696	1145.875
1987.445	1130.875
1990.193	1140.20833
1992.939	1149.875
1995.683	1131.875
1998.425	1116.54167
2001.165	1145.54167
2003.903	1122.875
2006.639	1118.875
2009.374	1129.875
2012.106	1142.875
2014.837	1108.875
2017.566	1122.20833
2020.292	1121.54167
2023.017	1117.54167
2025.74	1103.54167
2028.461	1097.875
2031.18	1102.54167
2033.898	1102.20833
2036.613	1106.875
2039.327	1099.20833
2042.038	1091.20833
2044.748	1079.875
2047.456	1086.875
2050.162	1063.875
2052.866	1080.54167
2055.568	1091.54167
2058.268	1076.875
2060.967	1078.20833
2063.663	1057.54167
2066.358	1076.54167
2069.051	1071.20833
2071.742	1071.54167
2074.431	1080.20833
2077.118	1072.54167
2079.804	1061.20833
2082.487	1077.54167
2085.169	1100.875
2087.849	1107.54167
2090.527	1093.54167
2093.203	1093.20833
2095.877	1112.875
2098.55	1104.20833
2101.22	1120.20833
2103.889	1149.20833
2106.556	1157.54167
2109.221	1200.875
2111.884	1257.54167
2114.546	1321.20833
2117.205	1429.875
2119.863	1567.20833
2122.519	1694.54167
2125.173	1836.54167
2127.825	1959.20833
2130.475	1981.875
2133.124	1973.875
2135.771	1901.54167
2138.416	1812.875
2141.059	1717.54167
2143.7	1627.875
2146.339	1506.20833
2148.977	1425.20833
2151.613	1395.875
2154.247	1342.20833
2156.879	1324.54167
2159.51	1282.20833
2162.138	1268.54167
2164.765	1264.20833
2167.39	1242.54167
2170.013	1256.20833
2172.634	1240.875
2175.254	1226.20833
2177.872	1264.20833
2180.488	1223.875
2183.102	1215.54167
2185.714	1184.875
2188.325	1158.875
2190.934	1166.20833
2193.541	1145.54167
2196.146	1112.20833
2198.75	1082.875
2201.351	1073.54167
2203.951	1040.875
2206.549	1052.875
2209.146	1020.875
2211.74	1014.20833
2214.333	1025.875
2216.924	968.54167
2219.514	989.54167
2222.101	971.20833
2224.687	975.54167
2227.271	956.20833
2229.853	948.54167
2232.433	941.875
2235.012	964.875
2237.589	957.54167
2240.164	941.875
2242.738	942.54167
2245.309	928.20833
2247.879	930.20833
2250.448	936.54167
2253.014	901.875
2255.579	882.875
2258.142	887.20833
2260.703	870.875
2263.262	879.20833
2265.82	864.54167
2268.376	885.54167
2270.93	851.54167
2273.483	846.20833
2276.033	869.20833
2278.583	845.54167
2281.13	841.54167
2283.675	822.54167
2286.219	825.20833
2288.761	825.20833
2291.302	833.20833
2293.841	839.54167
2296.377	812.54167
2298.913	816.875
2301.446	817.20833
2303.978	815.875
2306.508	808.20833
2309.037	805.54167
2311.563	809.20833
2314.088	813.20833
2316.612	792.54167
2319.133	795.54167
2321.653	790.54167
2324.171	780.20833
2326.688	809.20833
2329.202	780.875
2331.715	777.20833
2334.227	774.20833
2336.736	776.20833
2339.244	767.54167
2341.751	749.875
2344.255	780.875
2346.758	760.54167
2349.259	750.54167
2351.759	754.54167
2354.257	760.875
2356.753	755.54167
2359.247	760.20833
2361.74	760.875
2364.231	752.54167
2366.721	758.875
2369.209	751.54167
2371.695	741.20833
2374.179	743.54167
2376.662	739.875
2379.143	755.20833
2381.622	753.54167
2384.1	737.20833
2386.576	735.20833
2389.051	753.20833
2391.524	757.20833
2393.995	744.54167
2396.464	730.54167
2398.932	726.20833
2401.398	731.54167
2403.863	725.875
2406.325	725.54167
2408.787	728.54167
2411.246	730.54167
2413.704	716.54167
2416.16	710.54167
2418.615	721.875
2421.068	736.20833
2423.519	724.54167
2425.969	718.20833
2428.417	710.875
2430.863	746.20833
2433.308	724.20833
2435.751	716.20833
2438.193	708.20833
2440.633	716.54167
2443.071	707.875
2445.508	703.54167
2447.943	695.875
2450.376	686.875
2452.808	695.54167
2455.238	703.20833
2457.667	723.875
2460.093	694.54167
2462.519	681.875
2464.942	682.20833
2467.365	705.54167
2469.785	686.54167
2472.204	675.875
2474.621	683.54167
2477.037	695.54167
2479.451	666.20833
2481.863	674.54167
2484.274	659.54167
2486.683	679.875
2489.091	677.20833
2491.497	668.20833
2493.901	675.875
2496.304	672.20833
2498.705	677.875
2501.105	661.875
2503.503	688.875
2505.899	657.875
2508.294	685.875
2510.687	663.875
2513.079	656.875
2515.469	645.875
2517.858	644.54167
2520.245	669.20833
2522.63	653.20833
2525.014	653.875
2527.396	644.875
2529.776	639.54167
2532.156	655.875
2534.533	641.20833
2536.909	645.875
2539.283	625.875
2541.656	627.54167
2544.027	652.875
2546.397	646.20833
2548.765	638.54167
2551.131	653.875
2553.496	637.20833
2555.86	645.54167
2558.221	640.875
2560.582	638.875
2562.94	624.54167
2565.298	622.875
2567.653	648.875
2570.007	627.20833
2572.36	639.875
2574.711	635.875
2577.06	654.54167
2579.408	633.20833
2581.754	641.20833
2584.099	628.20833
2586.442	636.20833
2588.784	632.54167
2591.124	637.20833
2593.463	636.20833
2595.8	630.875
2598.135	612.875
2600.469	626.875
2602.802	632.875
2605.133	642.20833
2607.462	615.875
2609.79	615.20833
2612.116	638.20833
2614.441	620.875
2616.764	615.20833
2619.086	620.875
2621.406	612.875
2623.725	628.875
2626.042	625.54167
2628.358	625.20833
2630.672	613.20833
2632.985	633.875
2635.296	621.54167
2637.606	627.875
2639.914	622.20833
2642.22	626.20833
2644.525	624.20833
2646.829	633.20833
2649.131	639.875
2651.432	646.54167
2653.731	642.54167
2656.028	646.54167
2658.324	636.20833
2660.619	629.875
2662.912	643.20833
2665.204	628.875
2667.494	643.54167
2669.782	638.54167
2672.07	637.875
2674.355	643.54167
2676.639	633.20833
2678.922	632.20833
2681.203	648.875
2683.483	627.54167
2685.761	626.54167
2688.038	634.20833
2690.313	659.875
2692.587	643.20833
2694.859	631.54167
2697.13	646.875
2699.399	662.20833
2701.667	657.54167
2703.933	663.54167
2706.198	661.20833
2708.461	672.875
2710.723	679.54167
2712.984	659.20833
2715.243	684.875
2717.5	676.54167
2719.757	693.20833
2722.011	690.875
2724.264	698.54167
2726.516	708.875
2728.766	691.875
2731.015	701.20833
2733.262	686.20833
2735.508	699.875
2737.753	692.875
2739.996	675.20833
2742.237	677.875
2744.477	679.875
2746.716	681.54167
2748.953	681.20833
2751.189	673.875
2753.423	653.875
2755.656	653.875
2757.887	651.20833
2760.117	653.875
2762.346	654.20833
2764.573	642.875
2766.798	639.20833
2769.022	640.875
2771.245	653.54167
2773.467	659.875
2775.686	664.54167
2777.905	673.20833
2780.122	669.20833
2782.337	667.54167
2784.552	669.875
2786.764	690.54167
2788.976	683.54167
2791.186	709.54167
2793.394	704.54167
2795.601	718.875
2797.807	728.54167
2800.011	730.20833
2802.214	741.54167
2804.415	759.54167
2806.615	754.20833
2808.814	768.875
2811.011	783.54167
2813.206	788.54167
2815.401	797.20833
2817.594	816.875
2819.785	830.20833
2821.975	813.20833
2824.164	839.20833
2826.351	858.54167
2828.537	893.20833
2830.722	911.20833
2832.905	917.20833
2835.086	956.875
2837.267	1001.54167
2839.445	1023.54167
2841.623	1066.54167
2843.799	1097.20833
2845.974	1158.54167
2848.147	1216.20833
2850.319	1225.875
2852.489	1275.54167
2854.659	1299.54167
2856.826	1304.875
2858.993	1342.20833
2861.158	1319.54167
2863.321	1324.20833
2865.483	1356.875
2867.644	1338.20833
2869.804	1353.20833
2871.962	1338.54167
2874.118	1347.875
2876.274	1346.20833
2878.428	1325.20833
2880.58	1322.875
2882.731	1325.875
2884.881	1314.875
2887.03	1326.20833
2889.177	1321.20833
2891.322	1331.875
2893.467	1339.54167
2895.61	1326.54167
2897.751	1376.875
2899.892	1369.54167
2902.03	1373.875
2904.168	1389.54167
2906.304	1386.54167
2908.439	1423.20833
2910.572	1392.20833
2912.704	1410.20833
2914.835	1403.875
2916.965	1390.875
2919.093	1413.875
2921.219	1380.20833
2923.345	1391.875
2925.469	1363.54167
2927.591	1351.20833
2929.712	1307.54167
2931.832	1283.20833
2933.951	1255.875
2936.068	1223.875
2938.184	1193.54167
2940.299	1145.20833
2942.412	1114.20833
2944.524	1068.54167
2946.634	1050.875
2948.744	999.54167
2950.851	1012.20833
2952.958	941.20833
2955.063	929.875
2957.167	901.875
2959.269	865.54167
2961.371	870.54167
2963.471	822.20833
2965.569	827.20833
2967.666	782.875
2969.762	773.20833
2971.857	747.875
2973.95	723.875
2976.042	721.20833
2978.133	690.54167
2980.222	675.875
2982.31	660.875
2984.396	635.20833
2986.482	622.20833
2988.566	629.20833
2990.648	615.54167
2992.73	597.54167
2994.81	578.875
2996.889	599.20833
2998.966	586.875
3001.042	580.20833
3003.117	571.54167
3005.191	578.20833
3007.263	560.875
3009.334	545.20833
3011.403	541.54167
3013.472	524.54167
3015.539	527.875
3017.604	521.54167
3019.669	508.54167
3021.732	500.20833
3023.794	498.54167
3025.854	485.20833
3027.914	481.20833
3029.971	489.20833
3032.028	482.54167
3034.083	479.875
3036.137	479.54167
3038.19	458.20833
3040.242	446.20833
3042.292	427.875
3044.341	430.875
3046.388	441.54167
3048.435	419.875
3050.48	428.875
3052.524	419.20833
3054.566	404.54167
3056.607	429.54167
3058.647	405.20833
3060.686	390.54167
3062.723	379.875
3064.759	365.875
3066.794	0.20833
3068.828	-0.125
3070.86	-0.79167
