-0.839	448.79167
3.438	500.125
7.711	143.79167
11.981	58.45833
16.247	41.45833
20.509	42.79167
24.768	46.125
29.024	47.125
33.276	45.45833
37.524	50.45833
41.769	39.125
46.01	38.125
50.247	55.125
54.481	66.79167
58.712	67.125
62.939	50.125
67.162	66.125
71.382	59.125
75.599	51.79167
79.812	67.45833
84.021	85.45833
88.227	58.79167
92.429	64.125
96.628	55.45833
100.823	67.79167
105.015	78.79167
109.204	81.125
113.388	82.79167
117.57	78.125
121.748	96.79167
125.922	86.45833
130.093	104.79167
134.261	117.79167
138.425	107.45833
142.585	150.79167
146.742	146.79167
150.896	185.79167
155.046	226.45833
159.193	353.45833
163.336	601.79167
167.476	1107.125
171.613	2071.125
175.746	3466.45833
179.875	5140.45833
184.002	6782.79167
188.124	7839.125
192.244	8226.79167
196.36	8226.125
200.472	8049.125
204.581	7843.125
208.687	7652.125
212.79	7616.125
216.889	7699.45833
220.984	7763.79167
225.077	7898.45833
229.165	7968.125
233.251	8142.125
237.333	8237.125
241.412	8265.45833
245.487	8250.79167
249.559	8153.125
253.628	8105.79167
257.694	7985.79167
261.756	7930.45833
265.814	7776.79167
269.87	7554.79167
273.922	7266.125
277.97	7081.45833
282.016	6933.79167
286.058	6846.79167
290.097	6825.79167
294.132	6754.125
298.164	6637.79167
302.193	6334.45833
306.219	5856.79167
310.241	5303.125
314.26	4784.45833
318.276	4386.79167
322.288	4116.125
326.297	3843.125
330.303	3668.125
334.305	3545.45833
338.305	3461.79167
342.301	3420.45833
346.294	3369.79167
350.283	3336.45833
354.269	3296.125
358.252	3270.45833
362.232	3245.125
366.209	3247.79167
370.182	3204.125
374.152	3151.45833
378.119	3186.45833
382.083	3147.45833
386.043	3178.79167
390	3114.125
393.954	3077.79167
397.905	3067.125
401.852	3028.125
405.797	2984.45833
409.738	2954.45833
413.676	2958.45833
417.61	2941.125
421.542	2902.45833
425.47	2866.125
429.396	2838.79167
433.318	2820.45833
437.236	2799.125
441.152	2797.125
445.065	2749.125
448.974	2732.79167
452.88	2736.79167
456.783	2696.45833
460.683	2688.125
464.58	2712.45833
468.473	2715.45833
472.364	2687.125
476.251	2686.79167
480.135	2709.45833
484.016	2732.79167
487.894	2745.79167
491.769	2746.79167
495.641	2754.79167
499.509	2753.45833
503.375	2774.79167
507.237	2728.79167
511.096	2742.125
514.952	2767.125
518.805	2768.125
522.655	2766.125
526.502	2748.79167
530.346	2741.125
534.187	2725.125
538.024	2751.45833
541.859	2743.125
545.69	2790.79167
549.519	2753.79167
553.344	2739.45833
557.166	2702.45833
560.985	2667.79167
564.802	2621.125
568.615	2585.79167
572.425	2539.125
576.232	2544.125
580.036	2513.45833
583.836	2539.45833
587.634	2533.45833
591.429	2530.45833
595.221	2574.45833
599.01	2604.79167
602.796	2647.79167
606.578	2640.45833
610.358	2655.79167
614.135	2677.79167
617.909	2649.45833
621.679	2664.45833
625.447	2621.45833
629.212	2631.45833
632.973	2630.79167
636.732	2637.79167
640.488	2633.79167
644.241	2608.79167
647.991	2597.125
651.737	2625.79167
655.481	2568.45833
659.222	2603.125
662.96	2574.125
666.695	2612.79167
670.427	2594.45833
674.156	2608.79167
677.882	2617.125
681.605	2605.79167
685.325	2594.45833
689.043	2611.125
692.757	2585.45833
696.468	2603.45833
700.177	2609.125
703.882	2584.125
707.585	2588.125
711.284	2572.79167
714.981	2572.45833
718.675	2612.45833
722.366	2601.125
726.054	2592.125
729.739	2588.79167
733.421	2607.79167
737.1	2602.125
740.777	2621.79167
744.45	2630.125
748.121	2626.45833
751.789	2694.125
755.453	2700.45833
759.115	2712.79167
762.774	2729.125
766.431	2762.79167
770.084	2783.45833
773.734	2820.45833
777.382	2857.45833
781.027	2891.79167
784.669	2939.45833
788.308	2931.125
791.944	2968.79167
795.577	2972.79167
799.208	3013.79167
802.835	3029.125
806.46	3034.79167
810.082	3098.125
813.701	3104.125
817.317	3133.125
820.931	3131.125
824.542	3138.45833
828.149	3110.125
831.754	3086.125
835.357	3052.125
838.956	3036.45833
842.553	3029.45833
846.146	3010.79167
849.737	2972.79167
853.326	3017.125
856.911	3039.45833
860.493	3077.79167
864.073	3120.125
867.65	3125.79167
871.225	3171.45833
874.796	3172.79167
878.365	3202.125
881.931	3208.125
885.494	3205.45833
889.054	3233.79167
892.612	3211.45833
896.166	3193.79167
899.719	3161.45833
903.268	3120.125
906.814	3139.125
910.358	3096.125
913.899	3053.45833
917.438	3100.79167
920.973	3071.45833
924.506	3133.45833
928.036	3155.45833
931.564	3196.45833
935.088	3225.45833
938.61	3260.79167
942.129	3271.125
945.646	3324.45833
949.16	3422.45833
952.671	3484.125
956.179	3508.79167
959.685	3485.45833
963.188	3463.79167
966.688	3419.79167
970.185	3308.79167
973.68	3280.45833
977.173	3271.125
980.662	3246.79167
984.149	3254.45833
987.633	3243.79167
991.114	3311.45833
994.593	3410.125
998.069	3507.125
1001.542	3624.45833
1005.013	3546.125
1008.481	3377.125
1011.947	3307.125
1015.409	3297.125
1018.869	3320.79167
1022.327	3283.125
1025.782	3262.125
1029.234	3250.125
1032.683	3229.79167
1036.13	3127.79167
1039.574	2997.45833
1043.016	2943.79167
1046.455	2893.45833
1049.891	2839.79167
1053.325	2849.45833
1056.756	2850.45833
1060.184	2886.125
1063.61	2896.79167
1067.033	2903.45833
1070.454	2894.125
1073.872	2936.45833
1077.287	2946.45833
1080.7	2967.45833
1084.11	2944.45833
1087.517	2917.125
1090.922	2906.125
1094.325	2857.125
1097.724	2826.125
1101.122	2827.45833
1104.516	2810.79167
1107.908	2827.79167
1111.298	2863.125
1114.684	2913.79167
1118.069	2931.79167
1121.45	2961.125
1124.83	2967.45833
1128.206	2996.79167
1131.58	3012.79167
1134.951	3097.79167
1138.32	3167.45833
1141.687	3290.79167
1145.05	3399.79167
1148.412	3426.45833
1151.77	3424.125
1155.126	3424.79167
1158.48	3410.125
1161.831	3457.79167
1165.18	3462.79167
1168.525	3526.79167
1171.869	3583.45833
1175.21	3624.125
1178.548	3646.125
1181.884	3677.45833
1185.217	3717.45833
1188.548	3781.45833
1191.877	3817.79167
1195.202	3897.45833
1198.526	3965.79167
1201.846	3946.125
1205.165	3949.125
1208.48	3930.125
1211.794	3901.79167
1215.104	3912.45833
1218.413	3938.125
1221.719	3895.45833
1225.022	3883.45833
1228.323	3836.79167
1231.621	3838.79167
1234.917	3834.79167
1238.21	3868.125
1241.501	3827.45833
1244.79	3845.125
1248.076	3871.45833
1251.359	3900.79167
1254.64	3974.79167
1257.919	3951.79167
1261.195	4015.45833
1264.468	4094.125
1267.74	4144.125
1271.008	4154.45833
1274.275	4146.45833
1277.538	4130.125
1280.8	4107.45833
1284.059	4099.79167
1287.315	4138.45833
1290.569	4151.45833
1293.821	4166.79167
1297.07	4190.125
1300.317	4219.79167
1303.562	4207.125
1306.803	4140.79167
1310.043	4123.125
1313.28	4080.45833
1316.515	4020.45833
1319.747	3976.45833
1322.977	3915.45833
1326.204	3882.79167
1329.429	3820.79167
1332.652	3770.45833
1335.872	3783.45833
1339.09	3747.45833
1342.306	3759.79167
1345.519	3755.125
1348.729	3708.45833
1351.938	3697.45833
1355.144	3625.79167
1358.347	3560.125
1361.548	3600.45833
1364.747	3569.45833
1367.944	3567.79167
1371.138	3598.79167
1374.329	3626.45833
1377.518	3675.79167
1380.705	3681.79167
1383.89	3677.79167
1387.072	3605.45833
1390.252	3458.125
1393.429	3368.45833
1396.605	3259.79167
1399.777	3173.125
1402.948	3142.45833
1406.116	3101.125
1409.282	3111.79167
1412.445	3117.45833
1415.606	3134.125
1418.765	3188.45833
1421.921	3256.125
1425.075	3338.79167
1428.227	3421.45833
1431.376	3590.45833
1434.524	3738.79167
1437.668	3822.125
1440.811	3852.45833
1443.951	3900.125
1447.089	3897.79167
1450.224	3893.79167
1453.357	3861.45833
1456.488	3839.125
1459.617	3767.125
1462.743	3746.125
1465.867	3655.125
1468.989	3596.125
1472.108	3527.125
1475.225	3480.45833
1478.34	3448.79167
1481.453	3445.125
1484.563	3437.45833
1487.671	3474.125
1490.776	3543.125
1493.88	3623.125
1496.981	3705.79167
1500.08	3750.45833
1503.176	3802.125
1506.271	3897.45833
1509.363	3977.125
1512.452	4011.125
1515.54	4061.79167
1518.625	4197.79167
1521.708	4350.45833
1524.789	4620.45833
1527.867	4890.79167
1530.944	5193.45833
1534.018	5463.125
1537.089	5569.79167
1540.159	5555.45833
1543.226	5392.45833
1546.291	5196.79167
1549.354	5028.125
1552.415	4872.45833
1555.473	4724.79167
1558.529	4635.125
1561.583	4562.79167
1564.634	4519.79167
1567.684	4529.45833
1570.731	4496.125
1573.776	4557.125
1576.819	4609.125
1579.859	4641.45833
1582.898	4708.79167
1585.934	4751.79167
1588.968	4755.125
1591.999	4733.79167
1595.029	4742.125
1598.056	4798.125
1601.081	4782.125
1604.104	4777.45833
1607.125	4712.45833
1610.144	4648.125
1613.16	4524.45833
1616.174	4424.45833
1619.186	4344.79167
1622.196	4220.79167
1625.203	4110.79167
1628.209	4067.79167
1631.212	4021.125
1634.213	3981.79167
1637.212	3925.45833
1640.209	3872.79167
1643.203	3771.45833
1646.196	3670.45833
1649.186	3549.125
1652.174	3450.79167
1655.16	3313.79167
1658.144	3208.45833
1661.125	3083.125
1664.105	2935.79167
1667.082	2810.79167
1670.057	2645.125
1673.03	2490.125
1676.001	2309.79167
1678.97	2181.125
1681.937	2045.45833
1684.901	1912.45833
1687.863	1880.79167
1690.824	1797.125
1693.782	1778.79167
1696.738	1703.125
1699.692	1682.45833
1702.643	1614.79167
1705.593	1617.125
1708.54	1580.79167
1711.486	1585.125
1714.429	1526.45833
1717.37	1535.79167
1720.309	1508.125
1723.246	1520.79167
1726.181	1460.125
1729.113	1481.125
1732.044	1443.125
1734.972	1419.45833
1737.899	1445.79167
1740.823	1420.45833
1743.745	1427.79167
1746.665	1371.45833
1749.583	1340.125
1752.499	1333.125
1755.413	1306.125
1758.325	1270.45833
1761.235	1273.125
1764.142	1248.79167
1767.048	1240.125
1769.951	1234.79167
1772.852	1214.125
1775.752	1215.45833
1778.649	1207.125
1781.544	1232.45833
1784.437	1193.125
1787.328	1198.125
1790.217	1180.79167
1793.104	1152.79167
1795.989	1149.45833
1798.872	1163.125
1801.753	1168.125
1804.631	1158.79167
1807.508	1163.79167
1810.383	1136.45833
1813.255	1152.125
1816.126	1133.45833
1818.994	1135.79167
1821.861	1128.125
1824.725	1113.125
1827.587	1122.125
1830.448	1114.45833
1833.306	1077.125
1836.162	1096.125
1839.017	1088.125
1841.869	1088.45833
1844.719	1095.79167
1847.567	1076.79167
1850.414	1066.125
1853.258	1074.45833
1856.1	1078.125
1858.94	1078.125
1861.778	1064.79167
1864.614	1070.125
1867.448	1069.45833
1870.28	1052.125
1873.111	1079.45833
1875.939	1066.45833
1878.765	1077.45833
1881.589	1057.79167
1884.411	1060.125
1887.231	1073.79167
1890.049	1044.125
1892.865	1055.125
1895.68	1038.125
1898.492	1047.125
1901.302	1026.45833
1904.11	1024.79167
1906.916	1013.79167
1909.721	1013.79167
1912.523	1005.45833
1915.323	997.79167
1918.122	1004.45833
1920.918	1017.125
1923.712	983.79167
1926.505	1012.45833
1929.295	972.125
1932.084	1010.79167
1934.87	990.45833
1937.655	985.79167
1940.438	988.79167
1943.218	984.125
1945.997	982.125
1948.774	1005.45833
1951.549	1001.125
1954.322	977.79167
1957.093	990.79167
1959.862	968.125
1962.629	975.79167
1965.394	958.79167
1968.157	950.125
1970.918	962.79167
1973.678	946.79167
1976.435	964.125
1979.19	950.79167
1981.944	949.79167
1984.696	948.79167
1987.445	937.79167
1990.193	948.125
1992.939	947.45833
1995.683	954.45833
1998.425	921.79167
2001.165	946.45833
2003.903	934.45833
2006.639	929.45833
2009.374	929.79167
2012.106	934.79167
2014.837	911.79167
2017.566	920.45833
2020.292	915.45833
2023.017	918.79167
2025.74	912.79167
2028.461	918.79167
2031.18	910.45833
2033.898	904.79167
2036.613	918.45833
2039.327	917.125
2042.038	890.125
2044.748	900.79167
2047.456	909.45833
2050.162	887.79167
2052.866	894.45833
2055.568	899.125
2058.268	886.79167
2060.967	902.125
2063.663	872.45833
2066.358	882.79167
2069.051	880.79167
2071.742	894.79167
2074.431	884.45833
2077.118	879.125
2079.804	861.45833
2082.487	880.45833
2085.169	893.125
2087.849	906.45833
2090.527	880.125
2093.203	891.45833
2095.877	901.79167
2098.55	894.45833
2101.22	911.79167
2103.889	932.79167
2106.556	922.79167
2109.221	945.45833
2111.884	963.79167
2114.546	1021.125
2117.205	1072.125
2119.863	1173.79167
2122.519	1262.79167
2125.173	1334.125
2127.825	1438.45833
2130.475	1471.125
2133.124	1466.79167
2135.771	1408.125
2138.416	1373.45833
2141.059	1279.45833
2143.7	1235.45833
2146.339	1147.79167
2148.977	1076.125
2151.613	1071.79167
2154.247	1039.125
2156.879	1012.45833
2159.51	983.45833
2162.138	976.125
2164.765	971.125
2167.39	958.125
2170.013	977.79167
2172.634	953.45833
2175.254	937.125
2177.872	968.45833
2180.488	929.125
2183.102	926.125
2185.714	911.45833
2188.325	901.79167
2190.934	893.125
2193.541	879.45833
2196.146	849.125
2198.75	851.125
2201.351	851.79167
2203.951	820.79167
2206.549	842.79167
2209.146	802.125
2211.74	797.79167
2214.333	807.45833
2216.924	785.125
2219.514	791.125
2222.101	779.79167
2224.687	794.125
2227.271	773.79167
2229.853	768.125
2232.433	758.125
2235.012	784.45833
2237.589	773.45833
2240.164	769.125
2242.738	767.79167
2245.309	749.125
2247.879	759.125
2250.448	759.45833
2253.014	724.45833
2255.579	716.125
2258.142	711.79167
2260.703	712.79167
2263.262	702.125
2265.82	701.45833
2268.376	700.79167
2270.93	690.45833
2273.483	681.125
2276.033	692.125
2278.583	679.125
2281.13	679.79167
2283.675	669.125
2286.219	679.79167
2288.761	681.79167
2291.302	661.79167
2293.841	672.125
2296.377	654.79167
2298.913	659.125
2301.446	680.125
2303.978	655.125
2306.508	650.125
2309.037	654.79167
2311.563	655.79167
2314.088	661.79167
2316.612	640.125
2319.133	650.125
2321.653	645.45833
2324.171	632.79167
2326.688	648.125
2329.202	635.45833
2331.715	636.125
2334.227	619.45833
2336.736	626.45833
2339.244	620.79167
2341.751	616.45833
2344.255	633.79167
2346.758	622.125
2349.259	619.125
2351.759	618.79167
2354.257	615.45833
2356.753	599.125
2359.247	617.45833
2361.74	615.125
2364.231	604.125
2366.721	612.45833
2369.209	599.125
2371.695	605.125
2374.179	601.79167
2376.662	592.79167
2379.143	615.79167
2381.622	604.79167
2384.1	607.79167
2386.576	586.45833
2389.051	609.45833
2391.524	602.79167
2393.995	602.125
2396.464	590.125
2398.932	584.79167
2401.398	589.79167
2403.863	575.79167
2406.325	577.125
2408.787	578.79167
2411.246	580.79167
2413.704	581.45833
2416.16	572.45833
2418.615	571.79167
2421.068	579.125
2423.519	589.79167
2425.969	571.125
2428.417	579.125
2430.863	589.45833
2433.308	586.79167
2435.751	564.79167
2438.193	567.45833
2440.633	580.125
2443.071	577.125
2445.508	549.45833
2447.943	554.79167
2450.376	554.125
2452.808	556.79167
2455.238	554.125
2457.667	589.125
2460.093	552.79167
2462.519	539.45833
2464.942	543.45833
2467.365	548.125
2469.785	557.125
2472.204	552.79167
2474.621	537.45833
2477.037	553.125
2479.451	535.79167
2481.863	524.125
2484.274	523.125
2486.683	538.125
2489.091	543.125
2491.497	537.125
2493.901	531.45833
2496.304	529.45833
2498.705	538.79167
2501.105	529.79167
2503.503	554.45833
2505.899	517.45833
2508.294	550.79167
2510.687	517.125
2513.079	520.125
2515.469	516.45833
2517.858	523.125
2520.245	531.79167
2522.63	507.45833
2525.014	505.125
2527.396	514.125
2529.776	520.125
2532.156	519.79167
2534.533	504.45833
2536.909	503.45833
2539.283	501.79167
2541.656	506.79167
2544.027	529.79167
2546.397	510.125
2548.765	507.125
2551.131	508.125
2553.496	510.45833
2555.86	512.125
2558.221	510.45833
2560.582	503.79167
2562.94	491.45833
2565.298	499.125
2567.653	523.125
2570.007	494.45833
2572.36	502.79167
2574.711	493.79167
2577.06	514.125
2579.408	497.125
2581.754	502.125
2584.099	501.125
2586.442	495.45833
2588.784	503.79167
2591.124	498.79167
2593.463	486.79167
2595.8	499.125
2598.135	485.45833
2600.469	490.45833
2602.802	503.125
2605.133	504.79167
2607.462	483.125
2609.79	492.79167
2612.116	481.45833
2614.441	482.125
2616.764	487.125
2619.086	481.45833
2621.406	473.79167
2623.725	505.79167
2626.042	497.125
2628.358	485.125
2630.672	484.125
2632.985	504.45833
2635.296	496.79167
2637.606	491.125
2639.914	474.79167
2642.22	493.79167
2644.525	477.45833
2646.829	485.79167
2649.131	498.79167
2651.432	497.79167
2653.731	488.79167
2656.028	500.45833
2658.324	493.45833
2660.619	481.125
2662.912	497.45833
2665.204	485.45833
2667.494	505.125
2669.782	488.79167
2672.07	499.79167
2674.355	507.79167
2676.639	495.79167
2678.922	488.79167
2681.203	506.45833
2683.483	486.125
2685.761	484.79167
2688.038	507.125
2690.313	516.79167
2692.587	504.125
2694.859	501.79167
2697.13	502.45833
2699.399	510.125
2701.667	509.45833
2703.933	516.79167
2706.198	505.125
2708.461	519.45833
2710.723	528.79167
2712.984	525.45833
2715.243	535.125
2717.5	524.45833
2719.757	537.45833
2722.011	524.125
2724.264	541.45833
2726.516	551.79167
2728.766	545.79167
2731.015	539.45833
2733.262	536.45833
2735.508	534.125
2737.753	534.45833
2739.996	513.125
2742.237	512.45833
2744.477	537.125
2746.716	531.45833
2748.953	506.79167
2751.189	532.79167
2753.423	508.45833
2755.656	496.125
2757.887	494.45833
2760.117	497.45833
2762.346	500.79167
2764.573	495.79167
2766.798	496.79167
2769.022	502.45833
2771.245	508.45833
2773.467	506.45833
2775.686	510.45833
2777.905	514.79167
2780.122	505.125
2782.337	506.79167
2784.552	516.125
2786.764	526.45833
2788.976	528.45833
2791.186	533.125
2793.394	533.125
2795.601	550.125
2797.807	559.79167
2800.011	563.125
2802.214	584.45833
2804.415	576.45833
2806.615	575.79167
2808.814	595.45833
2811.011	604.45833
2813.206	611.45833
2815.401	624.45833
2817.594	624.125
2819.785	647.79167
2821.975	625.79167
2824.164	657.125
2826.351	669.125
2828.537	699.125
2830.722	702.125
2832.905	714.79167
2835.086	755.125
2837.267	797.45833
2839.445	829.45833
2841.623	837.45833
2843.799	882.45833
2845.974	936.45833
2848.147	978.79167
2850.319	1013.125
2852.489	1034.125
2854.659	1049.45833
2856.826	1081.45833
2858.993	1111.79167
2861.158	1088.125
2863.321	1083.125
2865.483	1111.125
2867.644	1094.45833
2869.804	1097.125
2871.962	1102.125
2874.118	1099.79167
2876.274	1095.79167
2878.428	1089.125
2880.58	1071.45833
2882.731	1074.45833
2884.881	1082.79167
2887.03	1087.79167
2889.177	1086.45833
2891.322	1096.79167
2893.467	1071.125
2895.61	1091.125
2897.751	1116.79167
2899.892	1102.45833
2902.03	1125.125
2904.168	1142.79167
2906.304	1135.125
2908.439	1175.125
2910.572	1132.125
2912.704	1147.79167
2914.835	1152.79167
2916.965	1151.45833
2919.093	1159.125
2921.219	1111.45833
2923.345	1144.125
2925.469	1110.45833
2927.591	1093.45833
2929.712	1057.79167
2931.832	1042.45833
2933.951	1013.45833
2936.068	995.125
2938.184	965.45833
2940.299	938.125
2942.412	911.79167
2944.524	852.79167
2946.634	836.45833
2948.744	792.79167
2950.851	813.125
2952.958	746.79167
2955.063	738.79167
2957.167	721.125
2959.269	690.79167
2961.371	704.45833
2963.471	658.45833
2965.569	653.79167
2967.666	624.45833
2969.762	603.45833
2971.857	580.45833
2973.95	564.79167
2976.042	557.125
2978.133	545.45833
2980.222	530.45833
2982.31	505.45833
2984.396	480.79167
2986.482	484.125
2988.566	481.45833
2990.648	465.125
2992.73	469.45833
2994.81	453.125
2996.889	448.125
2998.966	443.125
3001.042	444.45833
3003.117	440.125
3005.191	435.79167
3007.263	435.79167
3009.334	428.125
3011.403	424.125
3013.472	405.45833
3015.539	398.45833
3017.604	414.45833
3019.669	371.45833
3021.732	383.79167
3023.794	377.125
3025.854	368.45833
3027.914	368.125
3029.971	369.125
3032.028	365.79167
3034.083	371.79167
3036.137	357.45833
3038.19	349.45833
3040.242	334.45833
3042.292	334.79167
3044.341	331.45833
3046.388	343.45833
3048.435	315.79167
3050.48	337.79167
3052.524	330.45833
3054.566	304.45833
3056.607	323.45833
3058.647	306.125
3060.686	298.79167
3062.723	278.45833
3064.759	277.45833
3066.794	1.45833
3068.828	-1.20833
3070.86	-3.20833
