-0.839	414.25
3.438	454.25
7.711	136.58333
11.981	54.58333
16.247	43.25
20.509	45.91667
24.768	49.25
29.024	45.25
33.276	44.25
37.524	50.58333
41.769	43.25
46.01	37.58333
50.247	50.91667
54.481	62.91667
58.712	66.91667
62.939	54.25
67.162	68.25
71.382	55.58333
75.599	47.91667
79.812	68.25
84.021	83.25
88.227	59.25
92.429	64.91667
96.628	51.58333
100.823	67.91667
105.015	79.25
109.204	80.25
113.388	78.58333
117.57	78.25
121.748	91.91667
125.922	88.25
130.093	108.91667
134.261	117.25
138.425	107.25
142.585	146.91667
146.742	149.25
150.896	178.91667
155.046	221.91667
159.193	352.25
163.336	609.25
167.476	1125.91667
171.613	2052.91667
175.746	3432.25
179.875	5153.91667
184.002	6730.91667
188.124	7819.58333
192.244	8231.91667
196.36	8227.58333
200.472	8047.91667
204.581	7826.91667
208.687	7693.91667
212.79	7655.25
216.889	7684.58333
220.984	7746.91667
225.077	7886.58333
229.165	7992.58333
233.251	8122.91667
237.333	8204.91667
241.412	8206.91667
245.487	8247.25
249.559	8143.25
253.628	8106.25
257.694	8023.58333
261.756	7942.91667
265.814	7801.91667
269.87	7561.58333
273.922	7315.58333
277.97	7112.25
282.016	6951.25
286.058	6825.25
290.097	6829.58333
294.132	6835.58333
298.164	6756.25
302.193	6465.25
306.219	6014.58333
310.241	5407.58333
314.26	4901.91667
318.276	4499.25
322.288	4171.25
326.297	3908.25
330.303	3725.58333
334.305	3618.58333
338.305	3516.25
342.301	3446.25
346.294	3404.25
350.283	3369.58333
354.269	3348.91667
358.252	3307.58333
362.232	3288.91667
366.209	3238.25
370.182	3200.58333
374.152	3177.25
378.119	3178.58333
382.083	3178.25
386.043	3182.58333
390	3149.58333
393.954	3140.91667
397.905	3097.25
401.852	3100.25
405.797	3053.58333
409.738	3009.58333
413.676	3008.25
417.61	2975.25
421.542	2939.25
425.47	2922.25
429.396	2888.25
433.318	2883.25
437.236	2851.58333
441.152	2863.25
445.065	2805.25
448.974	2792.58333
452.88	2782.25
456.783	2747.58333
460.683	2730.91667
464.58	2723.91667
468.473	2748.91667
472.364	2759.58333
476.251	2747.58333
480.135	2776.25
484.016	2785.91667
487.894	2799.58333
491.769	2824.91667
495.641	2832.58333
499.509	2812.25
503.375	2837.91667
507.237	2829.25
511.096	2814.91667
514.952	2834.25
518.805	2811.91667
522.655	2843.58333
526.502	2783.25
530.346	2812.25
534.187	2835.58333
538.024	2807.58333
541.859	2829.58333
545.69	2873.25
549.519	2855.25
553.344	2820.25
557.166	2776.91667
560.985	2757.58333
564.802	2707.91667
568.615	2641.25
572.425	2604.58333
576.232	2590.91667
580.036	2587.58333
583.836	2608.58333
587.634	2606.91667
591.429	2587.58333
595.221	2645.58333
599.01	2684.58333
602.796	2726.91667
606.578	2762.25
610.358	2749.91667
614.135	2717.91667
617.909	2736.91667
621.679	2712.58333
625.447	2690.91667
629.212	2697.25
632.973	2711.25
636.732	2703.91667
640.488	2690.58333
644.241	2661.91667
647.991	2643.25
651.737	2711.25
655.481	2676.58333
659.222	2671.91667
662.96	2651.58333
666.695	2690.91667
670.427	2688.58333
674.156	2698.91667
677.882	2694.91667
681.605	2670.91667
685.325	2656.91667
689.043	2669.25
692.757	2631.91667
696.468	2641.91667
700.177	2666.91667
703.882	2641.91667
707.585	2643.25
711.284	2652.58333
714.981	2636.25
718.675	2675.91667
722.366	2686.58333
726.054	2679.91667
729.739	2647.25
733.421	2658.91667
737.1	2668.91667
740.777	2677.91667
744.45	2691.58333
748.121	2723.25
751.789	2766.91667
755.453	2759.25
759.115	2767.25
762.774	2784.25
766.431	2816.91667
770.084	2876.25
773.734	2915.91667
777.382	2993.58333
781.027	3006.91667
784.669	2999.91667
788.308	3015.58333
791.944	3028.58333
795.577	3064.91667
799.208	3090.91667
802.835	3118.25
806.46	3142.58333
810.082	3170.58333
813.701	3184.25
817.317	3206.91667
820.931	3195.91667
824.542	3209.58333
828.149	3196.58333
831.754	3145.58333
835.357	3136.25
838.956	3131.58333
842.553	3121.58333
846.146	3096.25
849.737	3075.91667
853.326	3103.91667
856.911	3108.58333
860.493	3143.58333
864.073	3162.25
867.65	3217.25
871.225	3239.58333
874.796	3256.25
878.365	3282.25
881.931	3261.91667
885.494	3326.25
889.054	3310.91667
892.612	3344.25
896.166	3309.91667
899.719	3268.25
903.268	3236.58333
906.814	3221.25
910.358	3211.58333
913.899	3175.25
917.438	3202.25
920.973	3179.25
924.506	3223.91667
928.036	3262.58333
931.564	3290.91667
935.088	3335.58333
938.61	3333.91667
942.129	3382.58333
945.646	3465.25
949.16	3553.25
952.671	3643.58333
956.179	3671.25
959.685	3663.91667
963.188	3659.58333
966.688	3588.58333
970.185	3488.91667
973.68	3394.58333
977.173	3374.58333
980.662	3337.25
984.149	3375.25
987.633	3357.25
991.114	3396.91667
994.593	3498.58333
998.069	3624.91667
1001.542	3735.58333
1005.013	3641.58333
1008.481	3454.91667
1011.947	3394.25
1015.409	3359.58333
1018.869	3380.25
1022.327	3372.91667
1025.782	3333.25
1029.234	3350.58333
1032.683	3296.58333
1036.13	3190.25
1039.574	3080.25
1043.016	2980.25
1046.455	2935.25
1049.891	2903.58333
1053.325	2884.25
1056.756	2889.25
1060.184	2923.58333
1063.61	2935.25
1067.033	2978.91667
1070.454	2940.91667
1073.872	2993.25
1077.287	2999.25
1080.7	2992.58333
1084.11	3013.58333
1087.517	2982.58333
1090.922	2932.91667
1094.325	2911.58333
1097.724	2867.58333
1101.122	2887.91667
1104.516	2886.58333
1107.908	2899.91667
1111.298	2963.25
1114.684	2962.91667
1118.069	3002.91667
1121.45	3045.25
1124.83	3023.91667
1128.206	3075.91667
1131.58	3123.25
1134.951	3226.58333
1138.32	3322.58333
1141.687	3480.91667
1145.05	3595.91667
1148.412	3610.25
1151.77	3621.25
1155.126	3604.25
1158.48	3578.91667
1161.831	3604.25
1165.18	3644.25
1168.525	3698.58333
1171.869	3735.58333
1175.21	3791.91667
1178.548	3838.58333
1181.884	3868.25
1185.217	3904.91667
1188.548	3960.58333
1191.877	4006.91667
1195.202	4128.91667
1198.526	4168.58333
1201.846	4199.91667
1205.165	4200.58333
1208.48	4157.58333
1211.794	4117.91667
1215.104	4105.91667
1218.413	4142.91667
1221.719	4137.58333
1225.022	4073.25
1228.323	4011.25
1231.621	3991.25
1234.917	3957.58333
1238.21	4005.58333
1241.501	3979.91667
1244.79	3998.58333
1248.076	3972.58333
1251.359	4040.25
1254.64	4120.25
1257.919	4126.25
1261.195	4211.58333
1264.468	4255.25
1267.74	4389.58333
1271.008	4393.91667
1274.275	4342.58333
1277.538	4316.58333
1280.8	4291.25
1284.059	4274.91667
1287.315	4315.91667
1290.569	4358.58333
1293.821	4385.25
1297.07	4382.25
1300.317	4403.58333
1303.562	4408.25
1306.803	4378.58333
1310.043	4319.25
1313.28	4277.25
1316.515	4224.58333
1319.747	4184.91667
1322.977	4138.58333
1326.204	4082.25
1329.429	4009.58333
1332.652	3998.58333
1335.872	3973.91667
1339.09	3914.25
1342.306	3931.25
1345.519	3897.91667
1348.729	3849.58333
1351.938	3822.25
1355.144	3739.91667
1358.347	3702.91667
1361.548	3699.25
1364.747	3711.25
1367.944	3694.25
1371.138	3708.58333
1374.329	3737.25
1377.518	3785.58333
1380.705	3845.25
1383.89	3805.91667
1387.072	3712.25
1390.252	3576.58333
1393.429	3441.25
1396.605	3310.25
1399.777	3234.91667
1402.948	3184.58333
1406.116	3143.58333
1409.282	3177.58333
1412.445	3154.25
1415.606	3207.25
1418.765	3265.91667
1421.921	3320.58333
1425.075	3424.91667
1428.227	3565.58333
1431.376	3728.91667
1434.524	3852.58333
1437.668	3955.91667
1440.811	4005.58333
1443.951	4044.58333
1447.089	4059.91667
1450.224	4028.91667
1453.357	4023.91667
1456.488	3999.91667
1459.617	3934.58333
1462.743	3851.25
1465.867	3822.58333
1468.989	3763.25
1472.108	3720.58333
1475.225	3683.58333
1478.34	3609.25
1481.453	3617.91667
1484.563	3638.25
1487.671	3710.25
1490.776	3761.58333
1493.88	3854.91667
1496.981	3937.58333
1500.08	4013.58333
1503.176	4067.91667
1506.271	4140.91667
1509.363	4198.58333
1512.452	4253.91667
1515.54	4315.58333
1518.625	4395.91667
1521.708	4555.91667
1524.789	4793.91667
1527.867	5053.25
1530.944	5345.91667
1534.018	5594.25
1537.089	5713.25
1540.159	5682.58333
1543.226	5598.25
1546.291	5394.25
1549.354	5201.91667
1552.415	5074.25
1555.473	4951.58333
1558.529	4857.91667
1561.583	4796.25
1564.634	4769.58333
1567.684	4750.25
1570.731	4785.58333
1573.776	4839.91667
1576.819	4903.58333
1579.859	4956.25
1582.898	5023.25
1585.934	5018.25
1588.968	5088.91667
1591.999	5066.25
1595.029	5079.91667
1598.056	5071.91667
1601.081	5092.91667
1604.104	5082.58333
1607.125	5031.58333
1610.144	4905.25
1613.16	4809.58333
1616.174	4698.58333
1619.186	4542.91667
1622.196	4450.58333
1625.203	4348.91667
1628.209	4261.25
1631.212	4222.91667
1634.213	4196.91667
1637.212	4142.58333
1640.209	4028.58333
1643.203	3924.58333
1646.196	3807.58333
1649.186	3624.25
1652.174	3531.25
1655.16	3413.91667
1658.144	3283.25
1661.125	3155.58333
1664.105	2965.58333
1667.082	2855.25
1670.057	2700.25
1673.03	2540.58333
1676.001	2360.58333
1678.97	2193.91667
1681.937	2067.58333
1684.901	1951.91667
1687.863	1880.25
1690.824	1779.91667
1693.782	1770.58333
1696.738	1712.58333
1699.692	1675.91667
1702.643	1619.91667
1705.593	1606.91667
1708.54	1591.91667
1711.486	1571.58333
1714.429	1524.91667
1717.37	1517.58333
1720.309	1491.58333
1723.246	1502.58333
1726.181	1462.25
1729.113	1460.25
1732.044	1428.25
1734.972	1429.58333
1737.899	1428.58333
1740.823	1419.91667
1743.745	1415.91667
1746.665	1357.25
1749.583	1338.58333
1752.499	1322.91667
1755.413	1291.91667
1758.325	1259.58333
1761.235	1270.25
1764.142	1236.58333
1767.048	1226.91667
1769.951	1231.58333
1772.852	1207.58333
1775.752	1213.91667
1778.649	1195.58333
1781.544	1206.91667
1784.437	1167.25
1787.328	1178.58333
1790.217	1179.91667
1793.104	1138.91667
1795.989	1147.58333
1798.872	1139.58333
1801.753	1160.25
1804.631	1139.91667
1807.508	1151.58333
1810.383	1129.91667
1813.255	1126.91667
1816.126	1128.25
1818.994	1118.58333
1821.861	1124.58333
1824.725	1104.25
1827.587	1104.58333
1830.448	1086.58333
1833.306	1073.25
1836.162	1089.25
1839.017	1077.91667
1841.869	1071.58333
1844.719	1072.91667
1847.567	1068.25
1850.414	1055.58333
1853.258	1050.58333
1856.1	1055.58333
1858.94	1071.25
1861.778	1065.58333
1864.614	1050.25
1867.448	1058.58333
1870.28	1051.58333
1873.111	1052.25
1875.939	1044.91667
1878.765	1054.58333
1881.589	1026.91667
1884.411	1040.91667
1887.231	1034.58333
1890.049	1018.91667
1892.865	1031.58333
1895.68	1025.58333
1898.492	1027.91667
1901.302	1003.25
1904.11	1006.58333
1906.916	1004.58333
1909.721	1008.25
1912.523	1000.25
1915.323	988.58333
1918.122	980.91667
1920.918	996.91667
1923.712	986.91667
1926.505	997.58333
1929.295	979.25
1932.084	982.25
1934.87	975.25
1937.655	988.91667
1940.438	956.58333
1943.218	982.91667
1945.997	969.91667
1948.774	990.25
1951.549	979.58333
1954.322	965.58333
1957.093	967.91667
1959.862	951.91667
1962.629	965.58333
1965.394	933.58333
1968.157	925.25
1970.918	942.91667
1973.678	935.25
1976.435	940.25
1979.19	931.58333
1981.944	917.91667
1984.696	917.91667
1987.445	905.58333
1990.193	926.91667
1992.939	946.91667
1995.683	931.58333
1998.425	904.25
2001.165	925.91667
2003.903	903.25
2006.639	908.91667
2009.374	915.25
2012.106	917.91667
2014.837	888.25
2017.566	908.91667
2020.292	911.91667
2023.017	910.25
2025.74	901.58333
2028.461	888.25
2031.18	879.25
2033.898	890.58333
2036.613	889.25
2039.327	882.25
2042.038	872.58333
2044.748	876.91667
2047.456	878.58333
2050.162	863.25
2052.866	863.58333
2055.568	870.25
2058.268	872.58333
2060.967	871.91667
2063.663	854.25
2066.358	870.91667
2069.051	848.25
2071.742	854.58333
2074.431	870.91667
2077.118	856.25
2079.804	850.91667
2082.487	859.25
2085.169	868.91667
2087.849	896.91667
2090.527	867.58333
2093.203	872.25
2095.877	866.91667
2098.55	870.25
2101.22	886.58333
2103.889	885.58333
2106.556	884.58333
2109.221	911.25
2111.884	925.25
2114.546	980.25
2117.205	1016.25
2119.863	1121.25
2122.519	1182.58333
2125.173	1266.58333
2127.825	1348.58333
2130.475	1382.25
2133.124	1373.25
2135.771	1331.25
2138.416	1274.58333
2141.059	1201.58333
2143.7	1159.58333
2146.339	1076.25
2148.977	1025.58333
2151.613	995.58333
2154.247	971.91667
2156.879	953.25
2159.51	948.91667
2162.138	925.91667
2164.765	919.25
2167.39	905.91667
2170.013	925.25
2172.634	926.58333
2175.254	910.25
2177.872	936.58333
2180.488	891.58333
2183.102	908.58333
2185.714	879.91667
2188.325	848.25
2190.934	856.25
2193.541	839.58333
2196.146	832.91667
2198.75	813.25
2201.351	830.25
2203.951	784.58333
2206.549	812.91667
2209.146	797.25
2211.74	789.58333
2214.333	793.58333
2216.924	760.25
2219.514	772.25
2222.101	752.58333
2224.687	771.58333
2227.271	753.25
2229.853	750.25
2232.433	733.25
2235.012	758.58333
2237.589	754.91667
2240.164	751.58333
2242.738	746.25
2245.309	736.58333
2247.879	742.58333
2250.448	731.58333
2253.014	709.25
2255.579	696.91667
2258.142	708.91667
2260.703	691.91667
2263.262	681.25
2265.82	685.91667
2268.376	687.91667
2270.93	663.58333
2273.483	663.91667
2276.033	678.91667
2278.583	666.58333
2281.13	651.25
2283.675	659.91667
2286.219	649.58333
2288.761	653.58333
2291.302	664.25
2293.841	659.25
2296.377	645.91667
2298.913	643.91667
2301.446	646.91667
2303.978	642.91667
2306.508	630.58333
2309.037	637.25
2311.563	635.91667
2314.088	635.58333
2316.612	620.58333
2319.133	622.58333
2321.653	620.58333
2324.171	618.25
2326.688	627.58333
2329.202	614.58333
2331.715	624.91667
2334.227	609.58333
2336.736	603.25
2339.244	610.25
2341.751	582.58333
2344.255	610.58333
2346.758	594.25
2349.259	592.58333
2351.759	596.25
2354.257	593.91667
2356.753	588.25
2359.247	596.58333
2361.74	595.25
2364.231	590.58333
2366.721	592.91667
2369.209	576.58333
2371.695	586.25
2374.179	577.58333
2376.662	577.25
2379.143	588.91667
2381.622	573.58333
2384.1	582.91667
2386.576	576.58333
2389.051	581.91667
2391.524	587.25
2393.995	580.25
2396.464	574.91667
2398.932	569.25
2401.398	577.91667
2403.863	557.25
2406.325	572.25
2408.787	561.25
2411.246	560.25
2413.704	561.25
2416.16	556.58333
2418.615	560.91667
2421.068	565.25
2423.519	557.58333
2425.969	553.91667
2428.417	561.91667
2430.863	571.25
2433.308	563.91667
2435.751	558.25
2438.193	555.91667
2440.633	558.25
2443.071	552.91667
2445.508	534.58333
2447.943	538.91667
2450.376	528.58333
2452.808	541.91667
2455.238	528.25
2457.667	550.58333
2460.093	540.91667
2462.519	517.91667
2464.942	531.91667
2467.365	542.25
2469.785	538.25
2472.204	528.91667
2474.621	527.58333
2477.037	543.58333
2479.451	521.25
2481.863	514.91667
2484.274	518.25
2486.683	530.91667
2489.091	533.25
2491.497	529.58333
2493.901	521.25
2496.304	515.58333
2498.705	519.25
2501.105	507.91667
2503.503	541.25
2505.899	509.58333
2508.294	530.25
2510.687	500.91667
2513.079	504.58333
2515.469	496.25
2517.858	501.91667
2520.245	512.25
2522.63	504.25
2525.014	496.25
2527.396	497.91667
2529.776	485.91667
2532.156	492.25
2534.533	488.25
2536.909	498.91667
2539.283	474.58333
2541.656	488.25
2544.027	507.58333
2546.397	496.58333
2548.765	490.58333
2551.131	494.91667
2553.496	483.58333
2555.86	492.91667
2558.221	491.25
2560.582	484.91667
2562.94	473.91667
2565.298	484.58333
2567.653	508.58333
2570.007	468.91667
2572.36	478.91667
2574.711	477.25
2577.06	484.91667
2579.408	471.91667
2581.754	481.25
2584.099	475.58333
2586.442	471.25
2588.784	482.25
2591.124	489.58333
2593.463	472.58333
2595.8	473.25
2598.135	462.91667
2600.469	474.91667
2602.802	477.91667
2605.133	483.58333
2607.462	468.58333
2609.79	468.25
2612.116	464.58333
2614.441	476.58333
2616.764	471.91667
2619.086	466.25
2621.406	464.58333
2623.725	486.25
2626.042	469.58333
2628.358	466.91667
2630.672	464.25
2632.985	479.91667
2635.296	465.25
2637.606	474.91667
2639.914	461.58333
2642.22	470.58333
2644.525	462.91667
2646.829	481.58333
2649.131	473.58333
2651.432	473.58333
2653.731	476.58333
2656.028	487.58333
2658.324	468.25
2660.619	471.25
2662.912	482.25
2665.204	450.25
2667.494	479.25
2669.782	467.25
2672.07	479.58333
2674.355	484.91667
2676.639	470.25
2678.922	460.25
2681.203	476.91667
2683.483	463.58333
2685.761	459.58333
2688.038	475.91667
2690.313	478.25
2692.587	475.25
2694.859	465.58333
2697.13	478.91667
2699.399	472.25
2701.667	496.58333
2703.933	498.91667
2706.198	496.25
2708.461	501.25
2710.723	504.91667
2712.984	497.25
2715.243	504.58333
2717.5	498.25
2719.757	519.25
2722.011	502.91667
2724.264	519.58333
2726.516	529.58333
2728.766	515.91667
2731.015	521.58333
2733.262	515.58333
2735.508	516.91667
2737.753	511.91667
2739.996	493.91667
2742.237	488.58333
2744.477	504.25
2746.716	491.58333
2748.953	486.58333
2751.189	496.58333
2753.423	479.91667
2755.656	478.58333
2757.887	473.25
2760.117	471.58333
2762.346	467.25
2764.573	465.91667
2766.798	470.25
2769.022	475.91667
2771.245	468.91667
2773.467	465.91667
2775.686	469.58333
2777.905	483.91667
2780.122	492.25
2782.337	504.25
2784.552	480.91667
2786.764	491.25
2788.976	501.91667
2791.186	503.91667
2793.394	500.25
2795.601	520.91667
2797.807	523.58333
2800.011	527.25
2802.214	541.25
2804.415	544.25
2806.615	545.58333
2808.814	554.58333
2811.011	564.58333
2813.206	559.91667
2815.401	585.25
2817.594	590.25
2819.785	601.58333
2821.975	606.91667
2824.164	613.58333
2826.351	633.25
2828.537	663.91667
2830.722	671.91667
2832.905	678.91667
2835.086	728.91667
2837.267	764.58333
2839.445	800.91667
2841.623	818.91667
2843.799	858.58333
2845.974	912.91667
2848.147	958.25
2850.319	993.25
2852.489	1024.58333
2854.659	1030.25
2856.826	1068.58333
2858.993	1084.91667
2861.158	1067.25
2863.321	1071.91667
2865.483	1098.91667
2867.644	1104.58333
2869.804	1102.91667
2871.962	1087.58333
2874.118	1084.25
2876.274	1098.58333
2878.428	1078.91667
2880.58	1083.25
2882.731	1071.25
2884.881	1081.25
2887.03	1079.91667
2889.177	1089.58333
2891.322	1090.25
2893.467	1098.58333
2895.61	1093.91667
2897.751	1122.91667
2899.892	1122.91667
2902.03	1123.25
2904.168	1148.25
2906.304	1146.25
2908.439	1163.25
2910.572	1142.91667
2912.704	1166.58333
2914.835	1167.25
2916.965	1152.58333
2919.093	1170.58333
2921.219	1139.58333
2923.345	1150.58333
2925.469	1135.25
2927.591	1116.91667
2929.712	1082.58333
2931.832	1077.58333
2933.951	1045.91667
2936.068	1017.91667
2938.184	996.91667
2940.299	953.58333
2942.412	924.58333
2944.524	875.25
2946.634	860.58333
2948.744	804.91667
2950.851	812.91667
2952.958	749.91667
2955.063	739.91667
2957.167	733.25
2959.269	686.25
2961.371	704.58333
2963.471	659.25
2965.569	660.58333
2967.666	617.91667
2969.762	604.91667
2971.857	581.91667
2973.95	563.25
2976.042	557.25
2978.133	541.25
2980.222	512.25
2982.31	497.25
2984.396	474.91667
2986.482	470.25
2988.566	479.25
2990.648	460.25
2992.73	452.25
2994.81	442.25
2996.889	443.58333
2998.966	425.58333
3001.042	428.58333
3003.117	422.25
3005.191	421.25
3007.263	418.58333
3009.334	409.91667
3011.403	398.25
3013.472	388.58333
3015.539	385.58333
3017.604	398.25
3019.669	369.58333
3021.732	363.58333
3023.794	366.25
3025.854	351.25
3027.914	349.58333
3029.971	355.58333
3032.028	342.25
3034.083	352.25
3036.137	352.91667
3038.19	325.25
3040.242	326.91667
3042.292	313.58333
3044.341	308.25
3046.388	331.58333
3048.435	302.58333
3050.48	315.58333
3052.524	312.58333
3054.566	286.25
3056.607	302.25
3058.647	298.58333
3060.686	278.58333
3062.723	273.25
3064.759	262.25
3066.794	-1.75
3068.828	-0.41667
3070.86	-2.08333
