-0.839	413.04167
3.438	452.04167
7.711	134.375
11.981	51.375
16.247	47.04167
20.509	46.375
24.768	43.375
29.024	49.04167
33.276	41.70833
37.524	51.375
41.769	41.375
46.01	38.04167
50.247	51.04167
54.481	61.375
58.712	70.70833
62.939	51.375
67.162	64.04167
71.382	58.04167
75.599	50.375
79.812	67.04167
84.021	85.375
88.227	65.04167
92.429	70.70833
96.628	50.70833
100.823	71.375
105.015	78.375
109.204	78.70833
113.388	82.04167
117.57	78.04167
121.748	94.70833
125.922	86.375
130.093	103.70833
134.261	112.70833
138.425	106.04167
142.585	150.04167
146.742	147.04167
150.896	179.70833
155.046	222.70833
159.193	345.375
163.336	604.04167
167.476	1107.70833
171.613	2051.04167
175.746	3435.70833
179.875	5143.70833
184.002	6713.04167
188.124	7842.375
192.244	8256.375
196.36	8233.70833
200.472	8027.70833
204.581	7824.70833
208.687	7735.375
212.79	7678.70833
216.889	7690.375
220.984	7759.04167
225.077	7905.04167
229.165	7987.04167
233.251	8109.04167
237.333	8214.70833
241.412	8273.375
245.487	8223.375
249.559	8150.375
253.628	8068.04167
257.694	8058.70833
261.756	7975.70833
265.814	7802.04167
269.87	7596.70833
273.922	7311.04167
277.97	7112.375
282.016	6952.04167
286.058	6842.375
290.097	6859.375
294.132	6843.375
298.164	6744.375
302.193	6488.375
306.219	6010.04167
310.241	5404.375
314.26	4921.70833
318.276	4500.70833
322.288	4220.375
326.297	3924.375
330.303	3750.375
334.305	3615.04167
338.305	3546.70833
342.301	3479.04167
346.294	3409.04167
350.283	3369.04167
354.269	3360.375
358.252	3317.70833
362.232	3295.04167
366.209	3258.04167
370.182	3235.70833
374.152	3196.04167
378.119	3207.04167
382.083	3186.375
386.043	3218.70833
390	3156.375
393.954	3126.70833
397.905	3120.04167
401.852	3083.04167
405.797	3045.70833
409.738	3023.375
413.676	2998.04167
417.61	2984.375
421.542	2960.375
425.47	2938.375
429.396	2892.375
433.318	2864.70833
437.236	2886.70833
441.152	2886.04167
445.065	2819.375
448.974	2810.375
452.88	2786.70833
456.783	2782.70833
460.683	2733.70833
464.58	2754.375
468.473	2779.04167
472.364	2776.04167
476.251	2770.70833
480.135	2795.04167
484.016	2830.04167
487.894	2832.375
491.769	2861.04167
495.641	2861.04167
499.509	2843.375
503.375	2841.375
507.237	2831.375
511.096	2822.375
514.952	2819.375
518.805	2814.375
522.655	2867.70833
526.502	2812.375
530.346	2816.375
534.187	2846.70833
538.024	2846.04167
541.859	2854.70833
545.69	2862.375
549.519	2851.375
553.344	2824.70833
557.166	2800.04167
560.985	2756.70833
564.802	2703.70833
568.615	2672.04167
572.425	2633.70833
576.232	2598.375
580.036	2584.04167
583.836	2607.04167
587.634	2624.375
591.429	2594.04167
595.221	2668.375
599.01	2693.375
602.796	2730.70833
606.578	2755.375
610.358	2771.375
614.135	2727.70833
617.909	2736.70833
621.679	2723.04167
625.447	2687.04167
629.212	2732.70833
632.973	2708.70833
636.732	2707.70833
640.488	2713.375
644.241	2671.70833
647.991	2661.375
651.737	2714.04167
655.481	2672.70833
659.222	2684.04167
662.96	2678.375
666.695	2681.70833
670.427	2700.04167
674.156	2702.04167
677.882	2698.04167
681.605	2686.70833
685.325	2671.375
689.043	2667.70833
692.757	2648.70833
696.468	2654.70833
700.177	2646.70833
703.882	2668.04167
707.585	2643.04167
711.284	2652.375
714.981	2684.70833
718.675	2686.04167
722.366	2709.04167
726.054	2658.70833
729.739	2657.70833
733.421	2656.04167
737.1	2663.04167
740.777	2699.04167
744.45	2700.70833
748.121	2724.375
751.789	2750.375
755.453	2773.70833
759.115	2777.04167
762.774	2816.70833
766.431	2839.04167
770.084	2878.375
773.734	2925.70833
777.382	3002.04167
781.027	3032.70833
784.669	3018.375
788.308	3023.04167
791.944	3051.375
795.577	3062.375
799.208	3087.04167
802.835	3089.04167
806.46	3120.70833
810.082	3190.375
813.701	3201.375
817.317	3222.04167
820.931	3212.375
824.542	3205.70833
828.149	3168.375
831.754	3157.04167
835.357	3155.70833
838.956	3133.04167
842.553	3136.04167
846.146	3108.375
849.737	3085.70833
853.326	3083.70833
856.911	3118.70833
860.493	3155.70833
864.073	3175.04167
867.65	3235.70833
871.225	3276.70833
874.796	3242.04167
878.365	3295.04167
881.931	3306.04167
885.494	3328.04167
889.054	3335.375
892.612	3317.375
896.166	3314.04167
899.719	3256.04167
903.268	3259.375
906.814	3221.375
910.358	3220.375
913.899	3180.04167
917.438	3223.70833
920.973	3189.375
924.506	3215.375
928.036	3277.04167
931.564	3316.375
935.088	3343.70833
938.61	3361.04167
942.129	3403.70833
945.646	3471.04167
949.16	3577.04167
952.671	3667.375
956.179	3682.70833
959.685	3674.70833
963.188	3663.70833
966.688	3610.375
970.185	3503.375
973.68	3417.375
977.173	3374.70833
980.662	3368.04167
984.149	3377.375
987.633	3380.04167
991.114	3404.375
994.593	3514.04167
998.069	3613.70833
1001.542	3753.04167
1005.013	3666.375
1008.481	3453.70833
1011.947	3402.375
1015.409	3386.70833
1018.869	3394.70833
1022.327	3365.04167
1025.782	3367.375
1029.234	3342.375
1032.683	3320.70833
1036.13	3203.04167
1039.574	3096.70833
1043.016	2974.04167
1046.455	2951.04167
1049.891	2899.04167
1053.325	2888.70833
1056.756	2883.375
1060.184	2947.375
1063.61	2938.70833
1067.033	2959.04167
1070.454	2954.70833
1073.872	3011.04167
1077.287	2989.70833
1080.7	3019.04167
1084.11	2994.04167
1087.517	2989.04167
1090.922	2939.375
1094.325	2914.04167
1097.724	2879.375
1101.122	2900.375
1104.516	2909.70833
1107.908	2916.70833
1111.298	2941.04167
1114.684	2977.70833
1118.069	3017.70833
1121.45	3046.375
1124.83	3013.70833
1128.206	3079.375
1131.58	3140.04167
1134.951	3239.70833
1138.32	3340.375
1141.687	3487.70833
1145.05	3588.375
1148.412	3632.04167
1151.77	3620.375
1155.126	3601.70833
1158.48	3574.70833
1161.831	3633.70833
1165.18	3653.70833
1168.525	3708.70833
1171.869	3771.70833
1175.21	3795.375
1178.548	3851.04167
1181.884	3869.70833
1185.217	3890.375
1188.548	3957.04167
1191.877	4019.70833
1195.202	4104.70833
1198.526	4211.04167
1201.846	4198.375
1205.165	4193.70833
1208.48	4141.70833
1211.794	4152.70833
1215.104	4131.04167
1218.413	4146.375
1221.719	4117.375
1225.022	4086.375
1228.323	4021.04167
1231.621	3994.04167
1234.917	3997.375
1238.21	3998.70833
1241.501	3984.04167
1244.79	4013.04167
1248.076	3981.70833
1251.359	4029.375
1254.64	4113.70833
1257.919	4122.375
1261.195	4198.04167
1264.468	4305.04167
1267.74	4370.375
1271.008	4387.375
1274.275	4363.375
1277.538	4333.375
1280.8	4294.04167
1284.059	4293.375
1287.315	4322.375
1290.569	4384.70833
1293.821	4382.04167
1297.07	4403.04167
1300.317	4418.375
1303.562	4410.04167
1306.803	4360.70833
1310.043	4360.04167
1313.28	4298.375
1316.515	4254.375
1319.747	4197.70833
1322.977	4127.04167
1326.204	4101.70833
1329.429	4022.04167
1332.652	3968.04167
1335.872	3965.375
1339.09	3962.375
1342.306	3921.375
1345.519	3887.375
1348.729	3860.70833
1351.938	3829.375
1355.144	3768.70833
1358.347	3708.70833
1361.548	3710.04167
1364.747	3722.04167
1367.944	3717.04167
1371.138	3725.375
1374.329	3784.70833
1377.518	3810.70833
1380.705	3876.04167
1383.89	3853.04167
1387.072	3723.375
1390.252	3590.375
1393.429	3433.04167
1396.605	3369.04167
1399.777	3238.375
1402.948	3204.04167
1406.116	3178.04167
1409.282	3196.70833
1412.445	3173.04167
1415.606	3187.04167
1418.765	3275.70833
1421.921	3320.04167
1425.075	3404.04167
1428.227	3568.04167
1431.376	3711.04167
1434.524	3852.70833
1437.668	3971.70833
1440.811	4002.375
1443.951	4069.04167
1447.089	4059.04167
1450.224	4059.04167
1453.357	4032.70833
1456.488	4008.04167
1459.617	3946.04167
1462.743	3906.375
1465.867	3820.375
1468.989	3777.375
1472.108	3705.04167
1475.225	3691.70833
1478.34	3638.375
1481.453	3609.375
1484.563	3645.04167
1487.671	3696.70833
1490.776	3793.70833
1493.88	3858.375
1496.981	3958.70833
1500.08	4005.70833
1503.176	4053.04167
1506.271	4153.375
1509.363	4209.70833
1512.452	4229.70833
1515.54	4314.70833
1518.625	4443.375
1521.708	4568.375
1524.789	4790.70833
1527.867	5062.70833
1530.944	5357.70833
1534.018	5569.04167
1537.089	5720.70833
1540.159	5722.375
1543.226	5569.70833
1546.291	5386.04167
1549.354	5231.04167
1552.415	5073.375
1555.473	4963.375
1558.529	4844.04167
1561.583	4790.375
1564.634	4772.70833
1567.684	4752.04167
1570.731	4773.04167
1573.776	4846.375
1576.819	4884.04167
1579.859	4942.375
1582.898	5011.04167
1585.934	5046.04167
1588.968	5073.70833
1591.999	5027.70833
1595.029	5056.375
1598.056	5054.70833
1601.081	5086.04167
1604.104	5085.375
1607.125	5016.70833
1610.144	4890.70833
1613.16	4792.70833
1616.174	4672.70833
1619.186	4560.04167
1622.196	4467.375
1625.203	4349.70833
1628.209	4289.375
1631.212	4232.04167
1634.213	4223.375
1637.212	4163.70833
1640.209	4093.70833
1643.203	3962.375
1646.196	3828.375
1649.186	3673.375
1652.174	3547.375
1655.16	3418.375
1658.144	3307.70833
1661.125	3150.04167
1664.105	3010.70833
1667.082	2856.70833
1670.057	2734.375
1673.03	2538.70833
1676.001	2376.375
1678.97	2205.70833
1681.937	2071.375
1684.901	1963.04167
1687.863	1894.70833
1690.824	1810.375
1693.782	1767.375
1696.738	1704.375
1699.692	1694.375
1702.643	1637.375
1705.593	1623.04167
1708.54	1570.70833
1711.486	1571.04167
1714.429	1536.70833
1717.37	1537.70833
1720.309	1495.375
1723.246	1512.04167
1726.181	1445.04167
1729.113	1474.375
1732.044	1460.04167
1734.972	1431.375
1737.899	1444.375
1740.823	1418.375
1743.745	1406.70833
1746.665	1367.375
1749.583	1346.375
1752.499	1327.04167
1755.413	1307.70833
1758.325	1268.375
1761.235	1287.70833
1764.142	1235.375
1767.048	1224.375
1769.951	1223.375
1772.852	1209.70833
1775.752	1219.375
1778.649	1208.04167
1781.544	1213.70833
1784.437	1174.04167
1787.328	1187.04167
1790.217	1158.04167
1793.104	1154.375
1795.989	1151.04167
1798.872	1141.375
1801.753	1150.04167
1804.631	1144.375
1807.508	1163.375
1810.383	1148.375
1813.255	1147.70833
1816.126	1119.70833
1818.994	1114.375
1821.861	1107.375
1824.725	1123.04167
1827.587	1114.04167
1830.448	1109.70833
1833.306	1089.70833
1836.162	1087.375
1839.017	1078.375
1841.869	1081.70833
1844.719	1076.04167
1847.567	1071.04167
1850.414	1045.70833
1853.258	1046.70833
1856.1	1065.04167
1858.94	1076.70833
1861.778	1057.375
1864.614	1046.375
1867.448	1061.70833
1870.28	1042.70833
1873.111	1061.375
1875.939	1051.70833
1878.765	1053.375
1881.589	1049.04167
1884.411	1044.70833
1887.231	1054.375
1890.049	1031.375
1892.865	1031.70833
1895.68	1019.04167
1898.492	1033.04167
1901.302	1012.70833
1904.11	1018.70833
1906.916	1004.04167
1909.721	1002.375
1912.523	1002.04167
1915.323	984.375
1918.122	1005.375
1920.918	1011.375
1923.712	986.70833
1926.505	986.70833
1929.295	981.70833
1932.084	988.04167
1934.87	996.04167
1937.655	984.04167
1940.438	971.375
1943.218	980.04167
1945.997	995.04167
1948.774	993.04167
1951.549	991.04167
1954.322	966.70833
1957.093	969.04167
1959.862	955.375
1962.629	965.70833
1965.394	946.04167
1968.157	929.70833
1970.918	944.375
1973.678	945.375
1976.435	948.70833
1979.19	936.04167
1981.944	931.04167
1984.696	920.375
1987.445	921.70833
1990.193	927.04167
1992.939	948.70833
1995.683	936.375
1998.425	901.375
2001.165	938.375
2003.903	926.70833
2006.639	912.375
2009.374	907.04167
2012.106	929.70833
2014.837	883.375
2017.566	915.04167
2020.292	917.375
2023.017	896.375
2025.74	894.375
2028.461	898.04167
2031.18	903.04167
2033.898	875.70833
2036.613	905.04167
2039.327	898.70833
2042.038	882.70833
2044.748	888.70833
2047.456	883.04167
2050.162	871.375
2052.866	885.70833
2055.568	877.375
2058.268	873.04167
2060.967	877.375
2063.663	856.375
2066.358	861.04167
2069.051	869.375
2071.742	874.70833
2074.431	870.04167
2077.118	862.04167
2079.804	856.375
2082.487	859.04167
2085.169	864.375
2087.849	875.04167
2090.527	863.375
2093.203	869.375
2095.877	882.04167
2098.55	863.04167
2101.22	891.70833
2103.889	902.70833
2106.556	883.375
2109.221	906.04167
2111.884	930.04167
2114.546	968.375
2117.205	1024.375
2119.863	1090.70833
2122.519	1174.375
2125.173	1266.375
2127.825	1352.70833
2130.475	1390.375
2133.124	1366.375
2135.771	1317.375
2138.416	1282.70833
2141.059	1198.04167
2143.7	1156.70833
2146.339	1079.375
2148.977	1020.70833
2151.613	1012.375
2154.247	974.375
2156.879	973.04167
2159.51	941.375
2162.138	925.375
2164.765	929.375
2167.39	916.70833
2170.013	942.04167
2172.634	928.04167
2175.254	906.375
2177.872	942.375
2180.488	898.375
2183.102	904.70833
2185.714	874.04167
2188.325	872.375
2190.934	860.375
2193.541	858.70833
2196.146	825.70833
2198.75	822.04167
2201.351	813.70833
2203.951	792.70833
2206.549	811.04167
2209.146	800.375
2211.74	788.70833
2214.333	793.375
2216.924	771.375
2219.514	765.70833
2222.101	772.04167
2224.687	781.04167
2227.271	748.375
2229.853	750.70833
2232.433	744.04167
2235.012	766.375
2237.589	762.70833
2240.164	767.70833
2242.738	755.375
2245.309	734.375
2247.879	743.04167
2250.448	749.70833
2253.014	706.04167
2255.579	690.70833
2258.142	709.04167
2260.703	685.04167
2263.262	686.70833
2265.82	678.375
2268.376	687.375
2270.93	668.04167
2273.483	666.70833
2276.033	680.04167
2278.583	671.375
2281.13	669.70833
2283.675	655.375
2286.219	665.70833
2288.761	659.70833
2291.302	661.70833
2293.841	656.70833
2296.377	638.375
2298.913	645.375
2301.446	658.375
2303.978	652.04167
2306.508	644.375
2309.037	640.70833
2311.563	639.375
2314.088	645.375
2316.612	623.04167
2319.133	627.375
2321.653	622.70833
2324.171	615.375
2326.688	629.375
2329.202	614.375
2331.715	622.70833
2334.227	618.375
2336.736	611.70833
2339.244	607.04167
2341.751	596.04167
2344.255	613.70833
2346.758	598.70833
2349.259	595.70833
2351.759	595.375
2354.257	595.04167
2356.753	592.70833
2359.247	589.375
2361.74	596.70833
2364.231	588.04167
2366.721	598.04167
2369.209	586.375
2371.695	581.04167
2374.179	573.375
2376.662	579.04167
2379.143	599.04167
2381.622	576.70833
2384.1	589.375
2386.576	585.70833
2389.051	592.04167
2391.524	590.70833
2393.995	584.04167
2396.464	579.70833
2398.932	559.375
2401.398	567.70833
2403.863	566.375
2406.325	567.04167
2408.787	570.375
2411.246	569.04167
2413.704	553.04167
2416.16	557.375
2418.615	565.70833
2421.068	566.04167
2423.519	562.70833
2425.969	559.04167
2428.417	559.70833
2430.863	582.04167
2433.308	567.70833
2435.751	550.70833
2438.193	556.04167
2440.633	555.04167
2443.071	549.70833
2445.508	540.04167
2447.943	544.375
2450.376	530.04167
2452.808	541.70833
2455.238	530.375
2457.667	575.04167
2460.093	537.04167
2462.519	522.375
2464.942	541.70833
2467.365	547.375
2469.785	539.375
2472.204	527.375
2474.621	522.04167
2477.037	538.70833
2479.451	522.70833
2481.863	510.04167
2484.274	515.70833
2486.683	527.375
2489.091	531.04167
2491.497	526.70833
2493.901	527.70833
2496.304	517.375
2498.705	525.04167
2501.105	512.70833
2503.503	544.375
2505.899	502.70833
2508.294	533.04167
2510.687	497.70833
2513.079	504.375
2515.469	502.70833
2517.858	497.375
2520.245	520.375
2522.63	505.04167
2525.014	503.70833
2527.396	496.70833
2529.776	494.04167
2532.156	509.375
2534.533	486.70833
2536.909	491.04167
2539.283	483.04167
2541.656	494.04167
2544.027	519.375
2546.397	494.04167
2548.765	492.375
2551.131	488.04167
2553.496	487.375
2555.86	498.70833
2558.221	496.04167
2560.582	489.04167
2562.94	477.375
2565.298	482.375
2567.653	504.375
2570.007	467.04167
2572.36	488.04167
2574.711	473.04167
2577.06	496.375
2579.408	486.04167
2581.754	483.70833
2584.099	467.04167
2586.442	490.04167
2588.784	549.04167
2591.124	481.04167
2593.463	473.04167
2595.8	479.70833
2598.135	459.70833
2600.469	470.70833
2602.802	489.70833
2605.133	481.04167
2607.462	462.375
2609.79	458.375
2612.116	471.375
2614.441	470.04167
2616.764	471.70833
2619.086	466.70833
2621.406	459.04167
2623.725	485.375
2626.042	468.375
2628.358	468.04167
2630.672	457.70833
2632.985	481.70833
2635.296	476.04167
2637.606	470.70833
2639.914	458.04167
2642.22	469.70833
2644.525	464.375
2646.829	480.70833
2649.131	474.375
2651.432	478.70833
2653.731	471.375
2656.028	481.70833
2658.324	468.04167
2660.619	460.70833
2662.912	485.70833
2665.204	460.70833
2667.494	488.04167
2669.782	471.70833
2672.07	477.375
2674.355	491.375
2676.639	475.375
2678.922	464.375
2681.203	479.70833
2683.483	460.70833
2685.761	459.375
2688.038	481.04167
2690.313	490.04167
2692.587	475.04167
2694.859	469.04167
2697.13	475.04167
2699.399	493.375
2701.667	492.04167
2703.933	488.375
2706.198	496.04167
2708.461	498.375
2710.723	501.04167
2712.984	489.375
2715.243	508.04167
2717.5	502.04167
2719.757	526.375
2722.011	501.70833
2724.264	514.04167
2726.516	534.04167
2728.766	515.04167
2731.015	519.375
2733.262	516.375
2735.508	507.375
2737.753	508.04167
2739.996	491.70833
2742.237	487.04167
2744.477	502.375
2746.716	488.70833
2748.953	485.375
2751.189	497.375
2753.423	478.04167
2755.656	475.375
2757.887	472.70833
2760.117	473.04167
2762.346	466.70833
2764.573	461.375
2766.798	478.70833
2769.022	471.04167
2771.245	474.375
2773.467	474.04167
2775.686	478.70833
2777.905	475.375
2780.122	488.04167
2782.337	498.375
2784.552	488.70833
2786.764	496.70833
2788.976	496.375
2791.186	504.70833
2793.394	504.375
2795.601	521.04167
2797.807	525.04167
2800.011	530.04167
2802.214	541.375
2804.415	540.04167
2806.615	532.375
2808.814	556.70833
2811.011	571.04167
2813.206	562.04167
2815.401	583.04167
2817.594	593.04167
2819.785	600.375
2821.975	601.04167
2824.164	616.04167
2826.351	622.70833
2828.537	667.70833
2830.722	674.375
2832.905	685.375
2835.086	706.70833
2837.267	755.375
2839.445	782.375
2841.623	816.04167
2843.799	852.70833
2845.974	921.375
2848.147	964.375
2850.319	980.04167
2852.489	1027.375
2854.659	1042.04167
2856.826	1058.70833
2858.993	1096.375
2861.158	1069.04167
2863.321	1073.70833
2865.483	1108.70833
2867.644	1105.04167
2869.804	1109.70833
2871.962	1075.04167
2874.118	1091.04167
2876.274	1080.04167
2878.428	1089.70833
2880.58	1079.375
2882.731	1068.70833
2884.881	1074.375
2887.03	1084.70833
2889.177	1074.70833
2891.322	1103.70833
2893.467	1090.04167
2895.61	1088.375
2897.751	1122.70833
2899.892	1106.04167
2902.03	1132.70833
2904.168	1149.375
2906.304	1146.70833
2908.439	1168.04167
2910.572	1154.70833
2912.704	1180.04167
2914.835	1160.375
2916.965	1171.04167
2919.093	1182.375
2921.219	1136.70833
2923.345	1171.04167
2925.469	1151.04167
2927.591	1113.70833
2929.712	1081.04167
2931.832	1076.375
2933.951	1046.70833
2936.068	1024.04167
2938.184	991.375
2940.299	960.04167
2942.412	927.04167
2944.524	883.04167
2946.634	863.04167
2948.744	799.375
2950.851	816.04167
2952.958	747.375
2955.063	748.70833
2957.167	717.70833
2959.269	690.375
2961.371	697.04167
2963.471	652.375
2965.569	652.375
2967.666	611.70833
2969.762	612.04167
2971.857	596.70833
2973.95	564.04167
2976.042	565.70833
2978.133	537.70833
2980.222	526.70833
2982.31	496.04167
2984.396	481.375
2986.482	478.375
2988.566	471.375
2990.648	457.70833
2992.73	451.04167
2994.81	449.375
2996.889	443.70833
2998.966	435.04167
3001.042	436.375
3003.117	433.04167
3005.191	427.70833
3007.263	417.04167
3009.334	408.04167
3011.403	403.04167
3013.472	395.375
3015.539	392.375
3017.604	394.70833
3019.669	361.375
3021.732	364.04167
3023.794	371.04167
3025.854	354.04167
3027.914	352.375
3029.971	353.375
3032.028	344.70833
3034.083	350.04167
3036.137	345.04167
3038.19	324.70833
3040.242	320.375
3042.292	315.70833
3044.341	316.04167
3046.388	327.04167
3048.435	300.375
3050.48	322.375
3052.524	306.04167
3054.566	286.04167
3056.607	304.04167
3058.647	287.04167
3060.686	273.70833
3062.723	269.70833
3064.759	259.70833
3066.794	0.70833
3068.828	-2.625
3070.86	-0.95833
