-0.839	399.54167
3.438	460.875
7.711	147.54167
11.981	56.54167
16.247	49.20833
20.509	48.875
24.768	46.20833
29.024	50.20833
33.276	49.875
37.524	55.20833
41.769	42.20833
46.01	38.875
50.247	56.20833
54.481	67.875
58.712	69.54167
62.939	54.20833
67.162	66.20833
71.382	64.54167
75.599	52.875
79.812	66.54167
84.021	86.20833
88.227	64.54167
92.429	67.20833
96.628	56.54167
100.823	79.20833
105.015	87.20833
109.204	83.54167
113.388	86.54167
117.57	79.20833
121.748	97.54167
125.922	93.20833
130.093	114.54167
134.261	118.54167
138.425	112.54167
142.585	164.20833
146.742	162.54167
150.896	197.54167
155.046	238.20833
159.193	375.20833
163.336	631.20833
167.476	1162.20833
171.613	2142.875
175.746	3629.54167
179.875	5484.875
184.002	7293.875
188.124	8579.875
192.244	9104.20833
196.36	9127.54167
200.472	9041.875
204.581	8881.20833
208.687	8793.875
212.79	8770.54167
216.889	8889.20833
220.984	9048.20833
225.077	9217.20833
229.165	9442.875
233.251	9576.875
237.333	9748.20833
241.412	9802.20833
245.487	9784.875
249.559	9675.875
253.628	9585.20833
257.694	9467.54167
261.756	9378.875
265.814	9139.875
269.87	8876.20833
273.922	8597.54167
277.97	8354.875
282.016	8122.875
286.058	7954.20833
290.097	7926.54167
294.132	7867.54167
298.164	7729.54167
302.193	7347.54167
306.219	6899.20833
310.241	6276.20833
314.26	5734.20833
318.276	5353.875
322.288	5008.875
326.297	4732.875
330.303	4584.875
334.305	4437.875
338.305	4400.20833
342.301	4325.54167
346.294	4275.54167
350.283	4230.875
354.269	4217.875
358.252	4170.54167
362.232	4149.875
366.209	4158.54167
370.182	4120.20833
374.152	4108.54167
378.119	4119.54167
382.083	4107.20833
386.043	4153.54167
390	4086.54167
393.954	4075.20833
397.905	4018.875
401.852	3999.875
405.797	3926.875
409.738	3883.875
413.676	3875.20833
417.61	3835.875
421.542	3802.20833
425.47	3765.20833
429.396	3729.54167
433.318	3722.54167
437.236	3700.20833
441.152	3689.875
445.065	3646.54167
448.974	3615.875
452.88	3588.875
456.783	3601.20833
460.683	3595.20833
464.58	3595.20833
468.473	3595.20833
472.364	3602.54167
476.251	3622.54167
480.135	3632.20833
484.016	3691.20833
487.894	3683.875
491.769	3728.875
495.641	3674.54167
499.509	3682.54167
503.375	3694.875
507.237	3690.875
511.096	3662.20833
514.952	3681.875
518.805	3703.54167
522.655	3693.875
526.502	3644.875
530.346	3608.875
534.187	3620.54167
538.024	3597.20833
541.859	3617.54167
545.69	3632.20833
549.519	3603.54167
553.344	3563.875
557.166	3533.54167
560.985	3513.20833
564.802	3493.54167
568.615	3433.875
572.425	3380.20833
576.232	3404.54167
580.036	3365.20833
583.836	3379.54167
587.634	3371.54167
591.429	3362.54167
595.221	3423.20833
599.01	3458.875
602.796	3473.875
606.578	3527.54167
610.358	3551.20833
614.135	3530.20833
617.909	3529.875
621.679	3484.54167
625.447	3486.54167
629.212	3464.875
632.973	3462.20833
636.732	3467.20833
640.488	3472.20833
644.241	3428.875
647.991	3422.875
651.737	3463.20833
655.481	3444.54167
659.222	3446.54167
662.96	3429.875
666.695	3467.54167
670.427	3459.875
674.156	3469.54167
677.882	3468.875
681.605	3466.875
685.325	3431.875
689.043	3445.54167
692.757	3422.875
696.468	3439.875
700.177	3442.54167
703.882	3409.875
707.585	3449.54167
711.284	3443.20833
714.981	3452.20833
718.675	3426.20833
722.366	3454.875
726.054	3428.875
729.739	3459.20833
733.421	3444.20833
737.1	3438.54167
740.777	3466.875
744.45	3492.875
748.121	3481.20833
751.789	3561.875
755.453	3533.54167
759.115	3541.875
762.774	3598.20833
766.431	3643.54167
770.084	3657.54167
773.734	3704.20833
777.382	3786.54167
781.027	3765.20833
784.669	3796.20833
788.308	3816.54167
791.944	3847.54167
795.577	3868.54167
799.208	3880.875
802.835	3944.54167
806.46	3964.54167
810.082	4027.20833
813.701	4025.20833
817.317	4056.20833
820.931	4092.54167
824.542	4049.20833
828.149	3991.20833
831.754	3963.20833
835.357	3923.54167
838.956	3925.875
842.553	3904.875
846.146	3877.875
849.737	3851.54167
853.326	3871.875
856.911	3874.20833
860.493	3915.20833
864.073	3965.20833
867.65	4018.54167
871.225	4040.54167
874.796	4033.875
878.365	4060.54167
881.931	4070.54167
885.494	4100.54167
889.054	4088.20833
892.612	4092.875
896.166	4077.875
899.719	4049.20833
903.268	4002.54167
906.814	4008.54167
910.358	3956.20833
913.899	3972.54167
917.438	3949.20833
920.973	3940.20833
924.506	3996.20833
928.036	4052.54167
931.564	4072.875
935.088	4116.54167
938.61	4135.20833
942.129	4177.875
945.646	4210.20833
949.16	4302.54167
952.671	4388.875
956.179	4463.54167
959.685	4436.54167
963.188	4464.20833
966.688	4426.20833
970.185	4309.20833
973.68	4228.54167
977.173	4214.54167
980.662	4191.875
984.149	4201.54167
987.633	4232.54167
991.114	4303.875
994.593	4424.54167
998.069	4561.875
1001.542	4691.20833
1005.013	4600.20833
1008.481	4330.54167
1011.947	4254.875
1015.409	4227.54167
1018.869	4216.54167
1022.327	4197.875
1025.782	4185.875
1029.234	4185.875
1032.683	4170.20833
1036.13	4026.20833
1039.574	3868.875
1043.016	3756.875
1046.455	3675.875
1049.891	3625.54167
1053.325	3615.54167
1056.756	3612.20833
1060.184	3658.54167
1063.61	3681.20833
1067.033	3710.875
1070.454	3712.54167
1073.872	3728.20833
1077.287	3758.875
1080.7	3762.20833
1084.11	3773.20833
1087.517	3741.54167
1090.922	3699.20833
1094.325	3650.20833
1097.724	3609.20833
1101.122	3618.20833
1104.516	3576.54167
1107.908	3587.875
1111.298	3635.54167
1114.684	3682.20833
1118.069	3719.20833
1121.45	3750.54167
1124.83	3727.54167
1128.206	3729.20833
1131.58	3789.20833
1134.951	3883.875
1138.32	3987.54167
1141.687	4094.54167
1145.05	4224.54167
1148.412	4283.54167
1151.77	4244.20833
1155.126	4247.54167
1158.48	4225.875
1161.831	4281.54167
1165.18	4291.20833
1168.525	4353.875
1171.869	4409.875
1175.21	4455.54167
1178.548	4513.875
1181.884	4548.54167
1185.217	4584.875
1188.548	4664.875
1191.877	4727.20833
1195.202	4813.20833
1198.526	4905.20833
1201.846	4903.20833
1205.165	4913.875
1208.48	4860.875
1211.794	4887.20833
1215.104	4904.20833
1218.413	4894.20833
1221.719	4887.20833
1225.022	4827.54167
1228.323	4787.20833
1231.621	4787.875
1234.917	4784.54167
1238.21	4824.875
1241.501	4803.20833
1244.79	4799.54167
1248.076	4786.875
1251.359	4882.20833
1254.64	4940.875
1257.919	4981.875
1261.195	5037.875
1264.468	5101.54167
1267.74	5152.875
1271.008	5178.54167
1274.275	5136.875
1277.538	5124.875
1280.8	5074.875
1284.059	5124.875
1287.315	5155.20833
1290.569	5163.54167
1293.821	5175.20833
1297.07	5225.54167
1300.317	5224.54167
1303.562	5205.875
1306.803	5169.20833
1310.043	5117.20833
1313.28	5060.20833
1316.515	5009.54167
1319.747	4974.20833
1322.977	4923.54167
1326.204	4862.20833
1329.429	4822.54167
1332.652	4770.54167
1335.872	4759.875
1339.09	4742.54167
1342.306	4761.875
1345.519	4742.54167
1348.729	4742.875
1351.938	4737.54167
1355.144	4665.20833
1358.347	4599.54167
1361.548	4571.54167
1364.747	4595.20833
1367.944	4591.20833
1371.138	4614.20833
1374.329	4633.875
1377.518	4648.54167
1380.705	4715.875
1383.89	4659.875
1387.072	4547.875
1390.252	4394.875
1393.429	4232.54167
1396.605	4092.20833
1399.777	3970.54167
1402.948	3922.54167
1406.116	3915.20833
1409.282	3913.54167
1412.445	3916.20833
1415.606	3947.54167
1418.765	4004.20833
1421.921	4083.54167
1425.075	4186.20833
1428.227	4319.875
1431.376	4515.875
1434.524	4659.54167
1437.668	4778.875
1440.811	4828.875
1443.951	4850.54167
1447.089	4842.875
1450.224	4833.20833
1453.357	4812.54167
1456.488	4754.20833
1459.617	4703.20833
1462.743	4616.20833
1465.867	4550.20833
1468.989	4480.54167
1472.108	4421.20833
1475.225	4329.20833
1478.34	4276.54167
1481.453	4266.875
1484.563	4251.54167
1487.671	4314.875
1490.776	4364.875
1493.88	4461.54167
1496.981	4542.54167
1500.08	4609.875
1503.176	4685.20833
1506.271	4762.54167
1509.363	4846.875
1512.452	4907.54167
1515.54	4991.54167
1518.625	5142.20833
1521.708	5355.54167
1524.789	5654.20833
1527.867	5927.54167
1530.944	6340.875
1534.018	6661.54167
1537.089	6790.54167
1540.159	6745.875
1543.226	6594.54167
1546.291	6342.54167
1549.354	6136.875
1552.415	5903.875
1555.473	5758.875
1558.529	5650.54167
1561.583	5580.875
1564.634	5520.20833
1567.684	5495.54167
1570.731	5493.20833
1573.776	5525.20833
1576.819	5576.20833
1579.859	5655.54167
1582.898	5727.54167
1585.934	5779.875
1588.968	5769.875
1591.999	5749.54167
1595.029	5763.20833
1598.056	5796.54167
1601.081	5823.54167
1604.104	5805.20833
1607.125	5755.20833
1610.144	5678.20833
1613.16	5533.875
1616.174	5456.54167
1619.186	5300.875
1622.196	5215.875
1625.203	5134.875
1628.209	5081.54167
1631.212	5054.20833
1634.213	5046.20833
1637.212	5031.54167
1640.209	4980.20833
1643.203	4909.54167
1646.196	4744.875
1649.186	4557.20833
1652.174	4411.875
1655.16	4304.875
1658.144	4160.54167
1661.125	3977.54167
1664.105	3786.875
1667.082	3620.54167
1670.057	3399.875
1673.03	3216.875
1676.001	3009.54167
1678.97	2807.875
1681.937	2646.875
1684.901	2489.20833
1687.863	2391.875
1690.824	2317.54167
1693.782	2255.20833
1696.738	2169.20833
1699.692	2132.20833
1702.643	2097.54167
1705.593	2040.54167
1708.54	2026.20833
1711.486	2009.54167
1714.429	1980.54167
1717.37	1955.875
1720.309	1937.875
1723.246	1934.875
1726.181	1886.54167
1729.113	1905.875
1732.044	1874.20833
1734.972	1844.54167
1737.899	1833.54167
1740.823	1823.54167
1743.745	1831.20833
1746.665	1769.54167
1749.583	1737.875
1752.499	1724.875
1755.413	1708.20833
1758.325	1670.54167
1761.235	1660.20833
1764.142	1636.20833
1767.048	1612.875
1769.951	1607.54167
1772.852	1597.54167
1775.752	1579.54167
1778.649	1599.875
1781.544	1588.20833
1784.437	1554.20833
1787.328	1558.54167
1790.217	1546.875
1793.104	1520.54167
1795.989	1518.20833
1798.872	1520.875
1801.753	1516.875
1804.631	1525.20833
1807.508	1531.20833
1810.383	1512.54167
1813.255	1507.54167
1816.126	1503.875
1818.994	1495.20833
1821.861	1481.875
1824.725	1475.54167
1827.587	1482.20833
1830.448	1467.20833
1833.306	1436.875
1836.162	1455.54167
1839.017	1416.875
1841.869	1427.54167
1844.719	1408.875
1847.567	1414.875
1850.414	1399.875
1853.258	1403.875
1856.1	1420.875
1858.94	1436.54167
1861.778	1421.875
1864.614	1395.875
1867.448	1403.20833
1870.28	1407.54167
1873.111	1412.54167
1875.939	1406.875
1878.765	1416.54167
1881.589	1380.54167
1884.411	1375.54167
1887.231	1390.875
1890.049	1369.54167
1892.865	1376.875
1895.68	1361.20833
1898.492	1371.20833
1901.302	1343.20833
1904.11	1335.54167
1906.916	1334.20833
1909.721	1335.20833
1912.523	1320.875
1915.323	1294.20833
1918.122	1309.875
1920.918	1325.875
1923.712	1306.54167
1926.505	1324.20833
1929.295	1276.54167
1932.084	1310.875
1934.87	1302.20833
1937.655	1307.875
1940.438	1286.875
1943.218	1310.54167
1945.997	1291.875
1948.774	1317.875
1951.549	1297.875
1954.322	1284.54167
1957.093	1284.875
1959.862	1289.875
1962.629	1279.875
1965.394	1280.54167
1968.157	1261.54167
1970.918	1278.54167
1973.678	1253.20833
1976.435	1259.54167
1979.19	1246.54167
1981.944	1240.875
1984.696	1249.875
1987.445	1237.20833
1990.193	1232.875
1992.939	1228.54167
1995.683	1223.54167
1998.425	1208.54167
2001.165	1234.20833
2003.903	1228.54167
2006.639	1206.20833
2009.374	1208.875
2012.106	1226.875
2014.837	1177.54167
2017.566	1210.54167
2020.292	1221.54167
2023.017	1215.54167
2025.74	1199.20833
2028.461	1193.20833
2031.18	1187.20833
2033.898	1184.875
2036.613	1188.875
2039.327	1192.54167
2042.038	1161.54167
2044.748	1179.20833
2047.456	1186.54167
2050.162	1155.54167
2052.866	1152.54167
2055.568	1170.20833
2058.268	1156.54167
2060.967	1161.20833
2063.663	1153.20833
2066.358	1166.20833
2069.051	1153.54167
2071.742	1153.875
2074.431	1163.20833
2077.118	1143.20833
2079.804	1150.20833
2082.487	1162.875
2085.169	1163.54167
2087.849	1180.54167
2090.527	1148.875
2093.203	1188.54167
2095.877	1178.54167
2098.55	1176.875
2101.22	1184.875
2103.889	1211.20833
2106.556	1220.875
2109.221	1253.54167
2111.884	1300.20833
2114.546	1363.20833
2117.205	1447.54167
2119.863	1585.20833
2122.519	1689.54167
2125.173	1832.54167
2127.825	1946.875
2130.475	1994.875
2133.124	1949.54167
2135.771	1896.54167
2138.416	1830.20833
2141.059	1725.54167
2143.7	1627.875
2146.339	1532.875
2148.977	1458.20833
2151.613	1425.875
2154.247	1371.54167
2156.879	1362.20833
2159.51	1332.875
2162.138	1329.54167
2164.765	1318.54167
2167.39	1307.20833
2170.013	1298.54167
2172.634	1310.20833
2175.254	1296.875
2177.872	1330.20833
2180.488	1285.875
2183.102	1282.875
2185.714	1249.875
2188.325	1221.54167
2190.934	1222.20833
2193.541	1193.875
2196.146	1164.20833
2198.75	1148.20833
2201.351	1125.54167
2203.951	1092.20833
2206.549	1095.20833
2209.146	1073.54167
2211.74	1063.20833
2214.333	1064.20833
2216.924	1026.875
2219.514	1036.875
2222.101	1021.20833
2224.687	1027.54167
2227.271	1008.54167
2229.853	1018.54167
2232.433	993.20833
2235.012	1020.54167
2237.589	1004.54167
2240.164	1011.54167
2242.738	991.54167
2245.309	991.875
2247.879	987.875
2250.448	979.54167
2253.014	966.54167
2255.579	930.875
2258.142	938.54167
2260.703	925.20833
2263.262	922.54167
2265.82	919.20833
2268.376	927.20833
2270.93	902.54167
2273.483	885.54167
2276.033	898.20833
2278.583	891.54167
2281.13	888.20833
2283.675	885.20833
2286.219	888.54167
2288.761	882.875
2291.302	887.20833
2293.841	882.54167
2296.377	848.875
2298.913	878.875
2301.446	870.20833
2303.978	865.54167
2306.508	855.20833
2309.037	850.20833
2311.563	854.54167
2314.088	851.54167
2316.612	822.875
2319.133	829.875
2321.653	847.20833
2324.171	829.20833
2326.688	834.875
2329.202	812.20833
2331.715	831.54167
2334.227	822.20833
2336.736	807.875
2339.244	813.20833
2341.751	809.54167
2344.255	813.20833
2346.758	801.54167
2349.259	807.54167
2351.759	800.20833
2354.257	797.54167
2356.753	795.20833
2359.247	790.875
2361.74	802.20833
2364.231	787.875
2366.721	791.20833
2369.209	786.54167
2371.695	777.54167
2374.179	786.875
2376.662	777.20833
2379.143	807.54167
2381.622	776.875
2384.1	777.20833
2386.576	785.20833
2389.051	791.54167
2391.524	787.875
2393.995	787.54167
2396.464	776.20833
2398.932	760.54167
2401.398	764.875
2403.863	758.875
2406.325	761.54167
2408.787	757.875
2411.246	753.20833
2413.704	754.54167
2416.16	751.54167
2418.615	754.54167
2421.068	753.875
2423.519	742.20833
2425.969	735.875
2428.417	746.875
2430.863	760.20833
2433.308	734.875
2435.751	740.875
2438.193	744.875
2440.633	751.54167
2443.071	740.54167
2445.508	722.20833
2447.943	739.20833
2450.376	717.20833
2452.808	724.20833
2455.238	718.54167
2457.667	755.20833
2460.093	721.20833
2462.519	709.20833
2464.942	704.54167
2467.365	721.20833
2469.785	715.20833
2472.204	722.54167
2474.621	710.875
2477.037	740.54167
2479.451	694.20833
2481.863	693.20833
2484.274	693.54167
2486.683	708.20833
2489.091	711.20833
2491.497	697.875
2493.901	700.54167
2496.304	692.20833
2498.705	702.20833
2501.105	688.875
2503.503	718.875
2505.899	689.20833
2508.294	701.20833
2510.687	691.875
2513.079	686.20833
2515.469	681.54167
2517.858	677.54167
2520.245	691.54167
2522.63	673.875
2525.014	676.54167
2527.396	673.54167
2529.776	676.54167
2532.156	683.875
2534.533	675.20833
2536.909	660.20833
2539.283	661.54167
2541.656	671.875
2544.027	687.54167
2546.397	673.20833
2548.765	673.54167
2551.131	664.875
2553.496	654.875
2555.86	670.54167
2558.221	662.875
2560.582	657.54167
2562.94	650.875
2565.298	658.54167
2567.653	663.20833
2570.007	652.875
2572.36	664.875
2574.711	653.54167
2577.06	660.875
2579.408	661.875
2581.754	659.875
2584.099	649.875
2586.442	645.20833
2588.784	663.54167
2591.124	653.875
2593.463	638.875
2595.8	641.20833
2598.135	637.20833
2600.469	638.875
2602.802	656.20833
2605.133	654.54167
2607.462	642.875
2609.79	623.875
2612.116	639.875
2614.441	638.875
2616.764	645.875
2619.086	643.54167
2621.406	636.875
2623.725	647.875
2626.042	639.875
2628.358	630.54167
2630.672	631.20833
2632.985	650.20833
2635.296	642.54167
2637.606	649.20833
2639.914	633.54167
2642.22	639.875
2644.525	635.54167
2646.829	648.20833
2649.131	660.20833
2651.432	656.20833
2653.731	652.20833
2656.028	658.54167
2658.324	657.54167
2660.619	638.20833
2662.912	657.20833
2665.204	638.54167
2667.494	665.54167
2669.782	636.875
2672.07	651.20833
2674.355	662.875
2676.639	645.875
2678.922	640.54167
2681.203	660.20833
2683.483	640.20833
2685.761	628.875
2688.038	653.20833
2690.313	655.54167
2692.587	651.875
2694.859	646.875
2697.13	661.54167
2699.399	658.875
2701.667	674.54167
2703.933	671.875
2706.198	680.54167
2708.461	673.54167
2710.723	684.20833
2712.984	672.875
2715.243	688.54167
2717.5	685.875
2719.757	704.54167
2722.011	695.54167
2724.264	699.20833
2726.516	710.54167
2728.766	694.875
2731.015	688.54167
2733.262	697.20833
2735.508	689.54167
2737.753	693.875
2739.996	673.54167
2742.237	677.20833
2744.477	693.875
2746.716	671.875
2748.953	673.875
2751.189	670.875
2753.423	666.20833
2755.656	647.20833
2757.887	651.54167
2760.117	663.875
2762.346	643.54167
2764.573	660.54167
2766.798	641.54167
2769.022	650.20833
2771.245	648.54167
2773.467	655.54167
2775.686	666.20833
2777.905	662.20833
2780.122	675.54167
2782.337	684.20833
2784.552	665.20833
2786.764	683.54167
2788.976	684.54167
2791.186	687.875
2793.394	699.54167
2795.601	712.20833
2797.807	726.875
2800.011	729.20833
2802.214	749.875
2804.415	747.54167
2806.615	752.20833
2808.814	764.20833
2811.011	768.20833
2813.206	773.20833
2815.401	794.54167
2817.594	809.875
2819.785	817.875
2821.975	803.20833
2824.164	816.54167
2826.351	849.20833
2828.537	861.20833
2830.722	891.54167
2832.905	899.20833
2835.086	944.20833
2837.267	985.875
2839.445	1007.54167
2841.623	1040.54167
2843.799	1103.20833
2845.974	1136.54167
2848.147	1190.20833
2850.319	1221.875
2852.489	1279.20833
2854.659	1290.54167
2856.826	1303.20833
2858.993	1325.54167
2861.158	1322.875
2863.321	1300.54167
2865.483	1345.54167
2867.644	1337.54167
2869.804	1340.875
2871.962	1340.875
2874.118	1332.875
2876.274	1329.54167
2878.428	1319.54167
2880.58	1317.875
2882.731	1320.20833
2884.881	1314.54167
2887.03	1310.875
2889.177	1320.54167
2891.322	1333.20833
2893.467	1329.54167
2895.61	1338.54167
2897.751	1360.20833
2899.892	1353.875
2902.03	1372.54167
2904.168	1399.875
2906.304	1395.875
2908.439	1410.875
2910.572	1382.875
2912.704	1412.20833
2914.835	1401.875
2916.965	1407.54167
2919.093	1406.54167
2921.219	1375.54167
2923.345	1390.54167
2925.469	1368.54167
2927.591	1353.875
2929.712	1296.54167
2931.832	1295.875
2933.951	1257.20833
2936.068	1216.20833
2938.184	1178.875
2940.299	1160.20833
2942.412	1120.875
2944.524	1072.54167
2946.634	1041.875
2948.744	992.54167
2950.851	1004.54167
2952.958	954.54167
2955.063	927.20833
2957.167	913.875
2959.269	863.875
2961.371	878.54167
2963.471	828.875
2965.569	831.54167
2967.666	788.20833
2969.762	773.20833
2971.857	756.20833
2973.95	737.20833
2976.042	704.54167
2978.133	696.54167
2980.222	673.20833
2982.31	654.875
2984.396	631.20833
2986.482	624.20833
2988.566	624.875
2990.648	602.54167
2992.73	606.20833
2994.81	586.875
2996.889	597.875
2998.966	572.20833
3001.042	581.54167
3003.117	568.875
3005.191	566.875
3007.263	561.54167
3009.334	553.875
3011.403	553.54167
3013.472	525.54167
3015.539	522.20833
3017.604	525.875
3019.669	492.875
3021.732	487.54167
3023.794	502.20833
3025.854	476.875
3027.914	482.54167
3029.971	498.875
3032.028	483.54167
3034.083	481.54167
3036.137	474.54167
3038.19	460.20833
3040.242	439.875
3042.292	431.54167
3044.341	424.875
3046.388	447.54167
3048.435	414.875
3050.48	435.54167
3052.524	423.20833
3054.566	401.875
3056.607	424.20833
3058.647	412.54167
3060.686	386.875
3062.723	381.875
3064.759	361.875
3066.794	-0.45833
3068.828	-0.79167
3070.86	-2.125
