-0.839	450.16667
3.438	508.16667
7.711	147.16667
11.981	53.83333
16.247	49.5
20.509	44.16667
24.768	44.5
29.024	48.83333
33.276	43.5
37.524	50.5
41.769	44.16667
46.01	37.5
50.247	55.16667
54.481	65.5
58.712	71.16667
62.939	48.83333
67.162	62.5
71.382	57.5
75.599	51.5
79.812	68.16667
84.021	88.5
88.227	60.5
92.429	66.16667
96.628	53.83333
100.823	70.16667
105.015	78.5
109.204	80.16667
113.388	79.5
117.57	77.83333
121.748	91.16667
125.922	86.5
130.093	108.5
134.261	109.16667
138.425	109.16667
142.585	148.16667
146.742	151.16667
150.896	176.5
155.046	223.5
159.193	358.16667
163.336	597.16667
167.476	1104.5
171.613	2063.16667
175.746	3452.83333
179.875	5153.16667
184.002	6776.83333
188.124	7883.5
192.244	8232.5
196.36	8215.83333
200.472	8086.83333
204.581	7843.16667
208.687	7708.83333
212.79	7653.16667
216.889	7686.83333
220.984	7797.83333
225.077	7915.83333
229.165	8036.5
233.251	8174.5
237.333	8261.83333
241.412	8296.5
245.487	8303.16667
249.559	8237.5
253.628	8107.16667
257.694	8038.83333
261.756	7957.5
265.814	7782.16667
269.87	7555.5
273.922	7281.16667
277.97	7110.16667
282.016	6938.16667
286.058	6837.16667
290.097	6883.5
294.132	6800.16667
298.164	6694.83333
302.193	6375.16667
306.219	5890.83333
310.241	5351.5
314.26	4844.83333
318.276	4415.5
322.288	4100.83333
326.297	3860.5
330.303	3681.5
334.305	3565.16667
338.305	3488.16667
342.301	3424.83333
346.294	3357.83333
350.283	3332.5
354.269	3310.16667
358.252	3289.83333
362.232	3240.5
366.209	3229.83333
370.182	3193.83333
374.152	3173.5
378.119	3148.5
382.083	3161.5
386.043	3163.83333
390	3114.5
393.954	3093.83333
397.905	3075.16667
401.852	3030.5
405.797	3008.5
409.738	2928.5
413.676	2957.16667
417.61	2915.5
421.542	2902.5
425.47	2855.5
429.396	2838.83333
433.318	2805.5
437.236	2806.5
441.152	2818.83333
445.065	2753.5
448.974	2731.83333
452.88	2717.5
456.783	2693.5
460.683	2683.83333
464.58	2686.5
468.473	2672.83333
472.364	2693.5
476.251	2692.83333
480.135	2711.5
484.016	2740.83333
487.894	2745.5
491.769	2751.5
495.641	2763.16667
499.509	2751.16667
503.375	2760.83333
507.237	2758.16667
511.096	2739.5
514.952	2745.83333
518.805	2793.83333
522.655	2770.5
526.502	2740.5
530.346	2725.16667
534.187	2753.5
538.024	2749.83333
541.859	2748.83333
545.69	2769.5
549.519	2768.83333
553.344	2751.5
557.166	2684.16667
560.985	2661.16667
564.802	2625.16667
568.615	2608.5
572.425	2560.16667
576.232	2551.16667
580.036	2535.16667
583.836	2528.83333
587.634	2542.83333
591.429	2545.16667
595.221	2586.5
599.01	2617.83333
602.796	2632.83333
606.578	2657.5
610.358	2675.83333
614.135	2636.5
617.909	2648.5
621.679	2638.5
625.447	2607.5
629.212	2649.5
632.973	2641.83333
636.732	2625.5
640.488	2631.83333
644.241	2607.16667
647.991	2593.83333
651.737	2603.5
655.481	2581.5
659.222	2585.83333
662.96	2590.16667
666.695	2583.5
670.427	2598.16667
674.156	2633.83333
677.882	2635.83333
681.605	2625.83333
685.325	2612.83333
689.043	2605.83333
692.757	2593.16667
696.468	2591.83333
700.177	2610.5
703.882	2599.83333
707.585	2589.16667
711.284	2605.16667
714.981	2578.5
718.675	2610.83333
722.366	2622.83333
726.054	2591.83333
729.739	2601.5
733.421	2599.5
737.1	2592.16667
740.777	2621.16667
744.45	2654.16667
748.121	2641.16667
751.789	2711.16667
755.453	2691.83333
759.115	2693.5
762.774	2728.5
766.431	2775.83333
770.084	2782.5
773.734	2815.83333
777.382	2882.5
781.027	2921.16667
784.669	2922.83333
788.308	2943.83333
791.944	2962.83333
795.577	2977.83333
799.208	3039.83333
802.835	3043.83333
806.46	3084.16667
810.082	3097.83333
813.701	3105.83333
817.317	3141.16667
820.931	3116.16667
824.542	3122.5
828.149	3114.83333
831.754	3081.16667
835.357	3065.5
838.956	3053.5
842.553	3049.5
846.146	3000.16667
849.737	3040.83333
853.326	3047.16667
856.911	3036.83333
860.493	3095.5
864.073	3123.83333
867.65	3134.83333
871.225	3187.16667
874.796	3193.83333
878.365	3207.5
881.931	3220.83333
885.494	3249.16667
889.054	3228.16667
892.612	3242.16667
896.166	3214.83333
899.719	3193.16667
903.268	3161.16667
906.814	3146.16667
910.358	3104.83333
913.899	3088.16667
917.438	3114.5
920.973	3078.83333
924.506	3116.5
928.036	3169.83333
931.564	3184.16667
935.088	3235.5
938.61	3258.83333
942.129	3281.16667
945.646	3349.5
949.16	3414.5
952.671	3503.5
956.179	3517.16667
959.685	3505.5
963.188	3476.16667
966.688	3418.83333
970.185	3338.5
973.68	3287.16667
977.173	3254.5
980.662	3258.5
984.149	3257.83333
987.633	3253.5
991.114	3309.16667
994.593	3406.5
998.069	3529.5
1001.542	3620.83333
1005.013	3557.16667
1008.481	3382.16667
1011.947	3331.16667
1015.409	3320.5
1018.869	3329.83333
1022.327	3295.16667
1025.782	3295.5
1029.234	3272.16667
1032.683	3238.5
1036.13	3135.5
1039.574	2996.83333
1043.016	2933.5
1046.455	2900.5
1049.891	2848.16667
1053.325	2845.5
1056.756	2860.16667
1060.184	2883.16667
1063.61	2873.83333
1067.033	2917.83333
1070.454	2906.16667
1073.872	2945.5
1077.287	2947.83333
1080.7	2946.83333
1084.11	2952.83333
1087.517	2914.5
1090.922	2903.83333
1094.325	2877.5
1097.724	2842.5
1101.122	2803.83333
1104.516	2821.16667
1107.908	2843.16667
1111.298	2879.16667
1114.684	2907.16667
1118.069	2963.16667
1121.45	2980.5
1124.83	2980.16667
1128.206	2997.5
1131.58	3048.5
1134.951	3120.16667
1138.32	3225.83333
1141.687	3332.16667
1145.05	3396.83333
1148.412	3459.16667
1151.77	3456.5
1155.126	3466.83333
1158.48	3456.5
1161.831	3460.5
1165.18	3506.83333
1168.525	3605.83333
1171.869	3601.16667
1175.21	3637.5
1178.548	3672.83333
1181.884	3710.5
1185.217	3735.5
1188.548	3787.83333
1191.877	3833.5
1195.202	3911.16667
1198.526	3980.16667
1201.846	3967.5
1205.165	3964.83333
1208.48	3930.83333
1211.794	3942.5
1215.104	3938.83333
1218.413	3924.5
1221.719	3927.83333
1225.022	3872.5
1228.323	3859.16667
1231.621	3848.83333
1234.917	3845.5
1238.21	3891.83333
1241.501	3837.5
1244.79	3860.16667
1248.076	3874.16667
1251.359	3914.83333
1254.64	3987.5
1257.919	3991.16667
1261.195	4048.16667
1264.468	4105.83333
1267.74	4158.5
1271.008	4193.83333
1274.275	4180.16667
1277.538	4147.83333
1280.8	4116.83333
1284.059	4152.16667
1287.315	4152.83333
1290.569	4190.5
1293.821	4216.83333
1297.07	4246.83333
1300.317	4232.83333
1303.562	4229.83333
1306.803	4198.83333
1310.043	4159.5
1313.28	4095.5
1316.515	4048.83333
1319.747	4008.5
1322.977	3974.16667
1326.204	3906.5
1329.429	3843.5
1332.652	3797.5
1335.872	3793.5
1339.09	3752.16667
1342.306	3757.5
1345.519	3723.16667
1348.729	3711.83333
1351.938	3701.16667
1355.144	3647.5
1358.347	3602.16667
1361.548	3605.5
1364.747	3616.5
1367.944	3581.5
1371.138	3599.83333
1374.329	3646.16667
1377.518	3667.16667
1380.705	3698.16667
1383.89	3691.5
1387.072	3605.83333
1390.252	3464.5
1393.429	3388.83333
1396.605	3271.83333
1399.777	3161.16667
1402.948	3127.5
1406.116	3101.5
1409.282	3125.83333
1412.445	3127.16667
1415.606	3156.83333
1418.765	3181.83333
1421.921	3288.16667
1425.075	3363.16667
1428.227	3461.5
1431.376	3620.5
1434.524	3742.16667
1437.668	3850.16667
1440.811	3888.16667
1443.951	3893.16667
1447.089	3908.16667
1450.224	3888.5
1453.357	3888.83333
1456.488	3846.5
1459.617	3773.83333
1462.743	3728.83333
1465.867	3657.83333
1468.989	3634.16667
1472.108	3561.83333
1475.225	3509.5
1478.34	3457.83333
1481.453	3466.83333
1484.563	3456.5
1487.671	3494.16667
1490.776	3567.5
1493.88	3637.83333
1496.981	3721.16667
1500.08	3799.83333
1503.176	3858.83333
1506.271	3899.83333
1509.363	3968.16667
1512.452	4037.16667
1515.54	4087.83333
1518.625	4229.16667
1521.708	4406.16667
1524.789	4639.83333
1527.867	4936.83333
1530.944	5271.16667
1534.018	5480.5
1537.089	5638.83333
1540.159	5594.16667
1543.226	5442.16667
1546.291	5264.5
1549.354	5049.5
1552.415	4926.16667
1555.473	4757.83333
1558.529	4669.16667
1561.583	4610.5
1564.634	4583.16667
1567.684	4554.16667
1570.731	4550.5
1573.776	4599.5
1576.819	4670.16667
1579.859	4705.16667
1582.898	4744.83333
1585.934	4790.16667
1588.968	4786.16667
1591.999	4814.5
1595.029	4786.16667
1598.056	4806.83333
1601.081	4811.5
1604.104	4803.83333
1607.125	4804.16667
1610.144	4672.5
1613.16	4596.5
1616.174	4477.5
1619.186	4348.83333
1622.196	4244.16667
1625.203	4162.5
1628.209	4095.83333
1631.212	4027.83333
1634.213	4004.5
1637.212	3943.5
1640.209	3886.5
1643.203	3797.83333
1646.196	3639.83333
1649.186	3546.83333
1652.174	3429.83333
1655.16	3330.16667
1658.144	3236.5
1661.125	3091.16667
1664.105	2916.16667
1667.082	2801.16667
1670.057	2651.5
1673.03	2480.5
1676.001	2333.5
1678.97	2176.83333
1681.937	2065.16667
1684.901	1953.83333
1687.863	1892.83333
1690.824	1797.83333
1693.782	1776.83333
1696.738	1716.5
1699.692	1669.16667
1702.643	1646.5
1705.593	1632.83333
1708.54	1587.16667
1711.486	1579.16667
1714.429	1544.16667
1717.37	1531.5
1720.309	1519.5
1723.246	1521.5
1726.181	1455.16667
1729.113	1484.83333
1732.044	1442.5
1734.972	1422.83333
1737.899	1438.16667
1740.823	1420.16667
1743.745	1422.83333
1746.665	1390.83333
1749.583	1352.83333
1752.499	1333.5
1755.413	1311.16667
1758.325	1281.5
1761.235	1283.83333
1764.142	1245.83333
1767.048	1242.5
1769.951	1232.5
1772.852	1223.16667
1775.752	1209.83333
1778.649	1204.16667
1781.544	1217.16667
1784.437	1181.5
1787.328	1196.5
1790.217	1181.5
1793.104	1174.16667
1795.989	1159.83333
1798.872	1152.16667
1801.753	1148.83333
1804.631	1159.5
1807.508	1165.16667
1810.383	1150.16667
1813.255	1139.16667
1816.126	1147.16667
1818.994	1124.16667
1821.861	1130.5
1824.725	1133.83333
1827.587	1120.5
1830.448	1103.83333
1833.306	1090.16667
1836.162	1094.5
1839.017	1078.83333
1841.869	1100.83333
1844.719	1098.83333
1847.567	1071.5
1850.414	1050.16667
1853.258	1070.5
1856.1	1073.83333
1858.94	1082.16667
1861.778	1069.16667
1864.614	1059.5
1867.448	1079.16667
1870.28	1047.83333
1873.111	1075.16667
1875.939	1068.16667
1878.765	1065.83333
1881.589	1062.83333
1884.411	1052.5
1887.231	1076.83333
1890.049	1046.83333
1892.865	1056.5
1895.68	1044.5
1898.492	1037.16667
1901.302	1023.5
1904.11	1023.16667
1906.916	1022.83333
1909.721	1015.5
1912.523	1030.83333
1915.323	1000.16667
1918.122	1007.16667
1920.918	1009.5
1923.712	1002.5
1926.505	1009.83333
1929.295	994.16667
1932.084	990.83333
1934.87	1012.83333
1937.655	993.16667
1940.438	994.16667
1943.218	993.5
1945.997	984.5
1948.774	1002.5
1951.549	993.83333
1954.322	983.5
1957.093	998.5
1959.862	984.16667
1962.629	969.5
1965.394	957.16667
1968.157	944.83333
1970.918	969.83333
1973.678	968.16667
1976.435	963.16667
1979.19	958.83333
1981.944	953.5
1984.696	940.83333
1987.445	935.5
1990.193	957.83333
1992.939	955.5
1995.683	939.83333
1998.425	927.83333
2001.165	948.16667
2003.903	922.83333
2006.639	925.83333
2009.374	935.83333
2012.106	932.83333
2014.837	896.5
2017.566	925.5
2020.292	945.5
2023.017	976.16667
2025.74	924.5
2028.461	911.5
2031.18	906.16667
2033.898	910.16667
2036.613	924.5
2039.327	916.16667
2042.038	900.5
2044.748	892.16667
2047.456	896.16667
2050.162	888.83333
2052.866	895.16667
2055.568	896.16667
2058.268	898.16667
2060.967	898.5
2063.663	880.16667
2066.358	893.5
2069.051	875.16667
2071.742	878.83333
2074.431	886.16667
2077.118	891.83333
2079.804	878.16667
2082.487	890.83333
2085.169	882.83333
2087.849	901.5
2090.527	890.16667
2093.203	901.83333
2095.877	899.16667
2098.55	900.83333
2101.22	923.5
2103.889	931.83333
2106.556	919.83333
2109.221	946.83333
2111.884	980.16667
2114.546	1025.16667
2117.205	1093.5
2119.863	1183.83333
2122.519	1253.5
2125.173	1345.5
2127.825	1458.16667
2130.475	1492.5
2133.124	1459.83333
2135.771	1431.83333
2138.416	1397.16667
2141.059	1299.16667
2143.7	1243.5
2146.339	1165.16667
2148.977	1101.5
2151.613	1084.16667
2154.247	1039.16667
2156.879	1019.83333
2159.51	997.5
2162.138	974.83333
2164.765	968.5
2167.39	965.16667
2170.013	971.16667
2172.634	960.83333
2175.254	944.83333
2177.872	978.5
2180.488	930.5
2183.102	941.5
2185.714	919.83333
2188.325	884.5
2190.934	891.5
2193.541	883.16667
2196.146	874.83333
2198.75	849.16667
2201.351	851.5
2203.951	807.16667
2206.549	849.83333
2209.146	817.5
2211.74	807.5
2214.333	815.16667
2216.924	795.83333
2219.514	797.16667
2222.101	780.5
2224.687	803.16667
2227.271	776.83333
2229.853	779.83333
2232.433	764.5
2235.012	776.16667
2237.589	776.16667
2240.164	783.5
2242.738	764.5
2245.309	755.16667
2247.879	760.83333
2250.448	759.5
2253.014	728.5
2255.579	716.83333
2258.142	725.16667
2260.703	706.83333
2263.262	707.83333
2265.82	707.83333
2268.376	712.5
2270.93	693.5
2273.483	679.5
2276.033	705.83333
2278.583	685.5
2281.13	690.83333
2283.675	672.5
2286.219	685.16667
2288.761	673.16667
2291.302	686.5
2293.841	678.5
2296.377	661.16667
2298.913	661.16667
2301.446	681.83333
2303.978	667.16667
2306.508	660.16667
2309.037	662.5
2311.563	663.83333
2314.088	666.16667
2316.612	644.83333
2319.133	653.16667
2321.653	646.16667
2324.171	636.83333
2326.688	648.5
2329.202	644.83333
2331.715	641.16667
2334.227	644.16667
2336.736	636.5
2339.244	627.83333
2341.751	613.83333
2344.255	622.16667
2346.758	621.5
2349.259	622.5
2351.759	614.5
2354.257	621.5
2356.753	607.83333
2359.247	614.83333
2361.74	618.16667
2364.231	606.83333
2366.721	612.83333
2369.209	603.16667
2371.695	596.16667
2374.179	606.5
2376.662	600.16667
2379.143	617.83333
2381.622	598.83333
2384.1	596.16667
2386.576	596.16667
2389.051	617.16667
2391.524	627.5
2393.995	607.16667
2396.464	585.16667
2398.932	582.83333
2401.398	588.83333
2403.863	578.83333
2406.325	591.16667
2408.787	596.5
2411.246	586.16667
2413.704	579.16667
2416.16	572.5
2418.615	577.83333
2421.068	586.16667
2423.519	577.5
2425.969	572.16667
2428.417	585.83333
2430.863	593.5
2433.308	595.5
2435.751	564.83333
2438.193	567.5
2440.633	568.5
2443.071	580.83333
2445.508	562.83333
2447.943	551.5
2450.376	553.83333
2452.808	568.5
2455.238	549.5
2457.667	578.16667
2460.093	558.16667
2462.519	553.83333
2464.942	550.83333
2467.365	565.83333
2469.785	560.5
2472.204	552.5
2474.621	538.83333
2477.037	567.5
2479.451	532.16667
2481.863	531.5
2484.274	534.83333
2486.683	545.83333
2489.091	552.5
2491.497	545.83333
2493.901	543.83333
2496.304	531.5
2498.705	535.16667
2501.105	531.5
2503.503	564.83333
2505.899	525.16667
2508.294	551.83333
2510.687	521.16667
2513.079	522.5
2515.469	515.5
2517.858	525.16667
2520.245	531.5
2522.63	528.16667
2525.014	510.16667
2527.396	516.5
2529.776	522.5
2532.156	523.83333
2534.533	496.83333
2536.909	512.83333
2539.283	501.5
2541.656	509.5
2544.027	533.5
2546.397	519.16667
2548.765	503.5
2551.131	511.5
2553.496	502.83333
2555.86	522.5
2558.221	513.83333
2560.582	510.16667
2562.94	489.16667
2565.298	511.83333
2567.653	521.83333
2570.007	495.5
2572.36	507.16667
2574.711	487.16667
2577.06	516.83333
2579.408	495.16667
2581.754	499.83333
2584.099	503.83333
2586.442	496.16667
2588.784	502.16667
2591.124	502.83333
2593.463	491.16667
2595.8	493.83333
2598.135	485.5
2600.469	485.83333
2602.802	507.5
2605.133	501.16667
2607.462	485.5
2609.79	491.5
2612.116	495.5
2614.441	495.83333
2616.764	496.5
2619.086	490.16667
2621.406	481.83333
2623.725	514.5
2626.042	498.83333
2628.358	490.16667
2630.672	486.5
2632.985	491.16667
2635.296	494.83333
2637.606	494.83333
2639.914	481.5
2642.22	482.16667
2644.525	481.83333
2646.829	490.5
2649.131	506.83333
2651.432	492.83333
2653.731	489.5
2656.028	503.16667
2658.324	496.83333
2660.619	496.83333
2662.912	506.16667
2665.204	480.83333
2667.494	505.83333
2669.782	492.16667
2672.07	505.16667
2674.355	509.83333
2676.639	494.16667
2678.922	492.83333
2681.203	510.83333
2683.483	488.83333
2685.761	485.5
2688.038	507.5
2690.313	508.83333
2692.587	509.83333
2694.859	490.5
2697.13	497.83333
2699.399	505.5
2701.667	518.83333
2703.933	524.5
2706.198	526.16667
2708.461	526.83333
2710.723	528.5
2712.984	522.83333
2715.243	536.83333
2717.5	533.83333
2719.757	542.5
2722.011	538.16667
2724.264	535.16667
2726.516	558.16667
2728.766	538.16667
2731.015	544.5
2733.262	529.5
2735.508	529.5
2737.753	534.83333
2739.996	522.16667
2742.237	514.5
2744.477	534.5
2746.716	533.16667
2748.953	514.5
2751.189	531.5
2753.423	504.83333
2755.656	500.5
2757.887	501.83333
2760.117	516.16667
2762.346	497.5
2764.573	494.16667
2766.798	503.83333
2769.022	499.83333
2771.245	508.83333
2773.467	507.5
2775.686	521.16667
2777.905	513.16667
2780.122	521.16667
2782.337	525.83333
2784.552	511.16667
2786.764	538.83333
2788.976	543.16667
2791.186	541.16667
2793.394	546.83333
2795.601	549.83333
2797.807	565.5
2800.011	566.5
2802.214	579.16667
2804.415	585.83333
2806.615	590.83333
2808.814	602.16667
2811.011	614.5
2813.206	604.5
2815.401	633.16667
2817.594	638.83333
2819.785	648.83333
2821.975	641.5
2824.164	656.16667
2826.351	679.83333
2828.537	704.16667
2830.722	726.16667
2832.905	723.83333
2835.086	763.5
2837.267	801.83333
2839.445	827.83333
2841.623	858.16667
2843.799	895.83333
2845.974	954.16667
2848.147	995.16667
2850.319	1013.83333
2852.489	1058.16667
2854.659	1075.16667
2856.826	1073.83333
2858.993	1121.83333
2861.158	1092.16667
2863.321	1102.83333
2865.483	1131.5
2867.644	1125.16667
2869.804	1104.5
2871.962	1099.83333
2874.118	1105.83333
2876.274	1101.83333
2878.428	1091.83333
2880.58	1088.16667
2882.731	1076.16667
2884.881	1084.16667
2887.03	1079.83333
2889.177	1087.5
2891.322	1105.5
2893.467	1078.5
2895.61	1100.83333
2897.751	1125.83333
2899.892	1130.83333
2902.03	1123.16667
2904.168	1142.16667
2906.304	1133.5
2908.439	1163.83333
2910.572	1130.83333
2912.704	1159.5
2914.835	1161.16667
2916.965	1141.83333
2919.093	1173.16667
2921.219	1136.5
2923.345	1154.16667
2925.469	1120.83333
2927.591	1111.5
2929.712	1061.16667
2931.832	1065.83333
2933.951	1036.5
2936.068	1013.5
2938.184	970.16667
2940.299	941.5
2942.412	918.16667
2944.524	877.83333
2946.634	854.16667
2948.744	800.83333
2950.851	804.16667
2952.958	750.16667
2955.063	746.83333
2957.167	724.5
2959.269	690.5
2961.371	702.5
2963.471	664.16667
2965.569	654.5
2967.666	618.16667
2969.762	603.83333
2971.857	596.16667
2973.95	563.16667
2976.042	565.16667
2978.133	540.5
2980.222	531.16667
2982.31	513.5
2984.396	487.5
2986.482	492.5
2988.566	485.83333
2990.648	467.5
2992.73	466.16667
2994.81	444.16667
2996.889	460.16667
2998.966	447.5
3001.042	450.16667
3003.117	440.5
3005.191	438.16667
3007.263	429.5
3009.334	423.16667
3011.403	422.83333
3013.472	401.5
3015.539	405.16667
3017.604	421.5
3019.669	378.16667
3021.732	380.83333
3023.794	388.5
3025.854	373.83333
3027.914	364.16667
3029.971	373.83333
3032.028	369.16667
3034.083	371.16667
3036.137	363.16667
3038.19	349.83333
3040.242	336.5
3042.292	334.16667
3044.341	330.83333
3046.388	347.5
3048.435	318.5
3050.48	332.5
3052.524	327.83333
3054.566	311.83333
3056.607	324.83333
3058.647	316.16667
3060.686	299.5
3062.723	285.5
3064.759	278.16667
3066.794	-0.16667
3068.828	1.16667
3070.86	-2.5
