-0.839	429.33333
3.438	503.33333
7.711	147
11.981	60.66667
16.247	45.66667
20.509	45
24.768	46.66667
29.024	47
33.276	44.33333
37.524	54
41.769	44.33333
46.01	39.33333
50.247	54.33333
54.481	64
58.712	65.33333
62.939	53
67.162	65.66667
71.382	59.33333
75.599	50
79.812	68
84.021	82.33333
88.227	64.33333
92.429	68
96.628	54
100.823	74.66667
105.015	77.33333
109.204	85.66667
113.388	83.66667
117.57	77.66667
121.748	96.66667
125.922	88.66667
130.093	105
134.261	115.66667
138.425	104.33333
142.585	153.33333
146.742	153
150.896	181
155.046	231.33333
159.193	361.33333
163.336	607
167.476	1130
171.613	2082.33333
175.746	3534
179.875	5294.66667
184.002	6948.33333
188.124	8139
192.244	8536
196.36	8535.33333
200.472	8299.66667
204.581	8087
208.687	7885.66667
212.79	7841.33333
216.889	7818.33333
220.984	7961.33333
225.077	8019.33333
229.165	8143
233.251	8214.33333
237.333	8285
241.412	8290.66667
245.487	8255.66667
249.559	8146
253.628	8103.33333
257.694	8013.66667
261.756	7932
265.814	7760
269.87	7491.33333
273.922	7318.33333
277.97	7091
282.016	6984.66667
286.058	6880
290.097	6878.33333
294.132	6939.66667
298.164	6805
302.193	6497.33333
306.219	6028.66667
310.241	5487.33333
314.26	5003
318.276	4596.66667
322.288	4276.66667
326.297	4045
330.303	3848.66667
334.305	3710
338.305	3636.66667
342.301	3574.33333
346.294	3546
350.283	3523
354.269	3465.66667
358.252	3445
362.232	3446
366.209	3392
370.182	3355.66667
374.152	3341.66667
378.119	3329.33333
382.083	3342.66667
386.043	3360.66667
390	3307
393.954	3293
397.905	3237.33333
401.852	3233.33333
405.797	3182.66667
409.738	3152.66667
413.676	3135.66667
417.61	3094.66667
421.542	3091
425.47	3038.33333
429.396	3028.66667
433.318	2994.33333
437.236	2975.33333
441.152	2960
445.065	2925.33333
448.974	2917.33333
452.88	2889.33333
456.783	2849.33333
460.683	2854.66667
464.58	2844.33333
468.473	2862.66667
472.364	2867.66667
476.251	2880
480.135	2881
484.016	2916
487.894	2929.33333
491.769	2966
495.641	2941
499.509	2928.33333
503.375	2921.33333
507.237	2928.66667
511.096	2923
514.952	2898.66667
518.805	2914
522.655	2925.66667
526.502	2887.33333
530.346	2899
534.187	2892.33333
538.024	2914.66667
541.859	2939
545.69	2947.33333
549.519	2940.66667
553.344	2907.66667
557.166	2871.66667
560.985	2838.66667
564.802	2802.66667
568.615	2750.66667
572.425	2742
576.232	2705
580.036	2699
583.836	2706
587.634	2696.66667
591.429	2689.66667
595.221	2778
599.01	2760.33333
602.796	2833.66667
606.578	2845
610.358	2860
614.135	2841.66667
617.909	2833.66667
621.679	2803
625.447	2801.66667
629.212	2805.66667
632.973	2822.33333
636.732	2797.33333
640.488	2796.33333
644.241	2772.33333
647.991	2757.66667
651.737	2772
655.481	2755
659.222	2769.66667
662.96	2760
666.695	2768.66667
670.427	2791
674.156	2808.66667
677.882	2790
681.605	2791.33333
685.325	2765
689.043	2772.66667
692.757	2739.33333
696.468	2761.33333
700.177	2764.33333
703.882	2748.66667
707.585	2759.66667
711.284	2757
714.981	2750.33333
718.675	2754.66667
722.366	2771.33333
726.054	2767.33333
729.739	2773.66667
733.421	2770
737.1	2753.66667
740.777	2772.66667
744.45	2781
748.121	2822
751.789	2853
755.453	2891.33333
759.115	2894.33333
762.774	2899
766.431	2951
770.084	2966.33333
773.734	2989.33333
777.382	3067.66667
781.027	3080.66667
784.669	3117.66667
788.308	3125.33333
791.944	3132.33333
795.577	3149.33333
799.208	3205
802.835	3209
806.46	3252.66667
810.082	3251
813.701	3284
817.317	3316.33333
820.931	3305
824.542	3325
828.149	3270.33333
831.754	3247.66667
835.357	3221.33333
838.956	3237.33333
842.553	3209.66667
846.146	3190
849.737	3187.33333
853.326	3205.33333
856.911	3204
860.493	3240.66667
864.073	3283
867.65	3317.66667
871.225	3350.33333
874.796	3360
878.365	3387.66667
881.931	3378.66667
885.494	3426.33333
889.054	3423.33333
892.612	3413.66667
896.166	3377.33333
899.719	3361
903.268	3307.33333
906.814	3322.33333
910.358	3309.66667
913.899	3297.33333
917.438	3276.66667
920.973	3279
924.506	3328.33333
928.036	3368.33333
931.564	3407.33333
935.088	3447.33333
938.61	3457
942.129	3471.33333
945.646	3564.33333
949.16	3682
952.671	3745.66667
956.179	3805.33333
959.685	3751.33333
963.188	3749
966.688	3685.66667
970.185	3612.66667
973.68	3491
977.173	3457.66667
980.662	3451.66667
984.149	3461.66667
987.633	3464.66667
991.114	3491
994.593	3604.66667
998.069	3737
1001.542	3854.66667
1005.013	3762.66667
1008.481	3579
1011.947	3518.33333
1015.409	3470
1018.869	3484.33333
1022.327	3473
1025.782	3430.66667
1029.234	3454.33333
1032.683	3421.66667
1036.13	3321
1039.574	3166.66667
1043.016	3079.66667
1046.455	3033
1049.891	2993.33333
1053.325	3001
1056.756	3017.33333
1060.184	3005
1063.61	3043.33333
1067.033	3060.66667
1070.454	3054.66667
1073.872	3117
1077.287	3084.66667
1080.7	3137.66667
1084.11	3129
1087.517	3078
1090.922	3078.66667
1094.325	3029.66667
1097.724	3019.33333
1101.122	2991.33333
1104.516	2987.33333
1107.908	2984
1111.298	3031.66667
1114.684	3092.33333
1118.069	3099.33333
1121.45	3130.33333
1124.83	3127
1128.206	3178.33333
1131.58	3229.33333
1134.951	3297
1138.32	3418.33333
1141.687	3551.66667
1145.05	3639
1148.412	3670
1151.77	3658.33333
1155.126	3627.66667
1158.48	3620.33333
1161.831	3642.66667
1165.18	3686.66667
1168.525	3752.33333
1171.869	3778
1175.21	3829.66667
1178.548	3830.66667
1181.884	3891
1185.217	3893.33333
1188.548	3998
1191.877	4053
1195.202	4145.33333
1198.526	4195
1201.846	4250.33333
1205.165	4237.66667
1208.48	4219.66667
1211.794	4209.66667
1215.104	4210.33333
1218.413	4212.33333
1221.719	4199
1225.022	4163
1228.323	4130
1231.621	4111.66667
1234.917	4094.66667
1238.21	4121
1241.501	4076.66667
1244.79	4108.66667
1248.076	4096
1251.359	4134
1254.64	4206
1257.919	4254.33333
1261.195	4333
1264.468	4362
1267.74	4464.66667
1271.008	4492.66667
1274.275	4448.66667
1277.538	4405.66667
1280.8	4412.33333
1284.059	4401
1287.315	4434.66667
1290.569	4472.33333
1293.821	4484.33333
1297.07	4527.33333
1300.317	4510
1303.562	4494.66667
1306.803	4473.33333
1310.043	4454
1313.28	4378.33333
1316.515	4359
1319.747	4313
1322.977	4251.33333
1326.204	4176.33333
1329.429	4138.33333
1332.652	4116.33333
1335.872	4088.66667
1339.09	4027.66667
1342.306	4047.66667
1345.519	4008
1348.729	4002.33333
1351.938	3969.33333
1355.144	3923
1358.347	3873
1361.548	3871.66667
1364.747	3875.66667
1367.944	3868
1371.138	3890.33333
1374.329	3919
1377.518	3990.66667
1380.705	4030.66667
1383.89	4014.33333
1387.072	3918
1390.252	3749.66667
1393.429	3615.66667
1396.605	3477.66667
1399.777	3369.66667
1402.948	3345.33333
1406.116	3324.66667
1409.282	3337.66667
1412.445	3323
1415.606	3358.33333
1418.765	3417.66667
1421.921	3495
1425.075	3579
1428.227	3710
1431.376	3873
1434.524	4032
1437.668	4123.66667
1440.811	4162.66667
1443.951	4172.66667
1447.089	4185.33333
1450.224	4196.66667
1453.357	4164
1456.488	4136.66667
1459.617	4061.33333
1462.743	4025.33333
1465.867	3931
1468.989	3885.66667
1472.108	3807.33333
1475.225	3760.66667
1478.34	3715
1481.453	3720.33333
1484.563	3704
1487.671	3753.33333
1490.776	3855
1493.88	3924.66667
1496.981	4002
1500.08	4077.66667
1503.176	4169.66667
1506.271	4210.33333
1509.363	4288.33333
1512.452	4314.33333
1515.54	4421
1518.625	4518
1521.708	4688.66667
1524.789	4913.33333
1527.867	5229.33333
1530.944	5520.66667
1534.018	5770.66667
1537.089	5899
1540.159	5868.33333
1543.226	5731.33333
1546.291	5533
1549.354	5346.66667
1552.415	5185.66667
1555.473	5029.33333
1558.529	4933.66667
1561.583	4892.33333
1564.634	4862.33333
1567.684	4840
1570.731	4865.66667
1573.776	4897.66667
1576.819	4960.33333
1579.859	4964
1582.898	5060
1585.934	5126
1588.968	5098.33333
1591.999	5093.33333
1595.029	5117
1598.056	5137.33333
1601.081	5155.33333
1604.104	5137
1607.125	5071.66667
1610.144	4993.66667
1613.16	4865
1616.174	4749
1619.186	4664.33333
1622.196	4543.33333
1625.203	4432.66667
1628.209	4382.66667
1631.212	4344
1634.213	4286.33333
1637.212	4248
1640.209	4221.66667
1643.203	4108.66667
1646.196	3983.66667
1649.186	3816.66667
1652.174	3712.33333
1655.16	3579.33333
1658.144	3501.66667
1661.125	3343.66667
1664.105	3201.66667
1667.082	3038.66667
1670.057	2876.33333
1673.03	2686.33333
1676.001	2511.33333
1678.97	2344.33333
1681.937	2206.33333
1684.901	2077.66667
1687.863	2019.33333
1690.824	1914.33333
1693.782	1890.33333
1696.738	1823.66667
1699.692	1797.33333
1702.643	1742
1705.593	1700.66667
1708.54	1692
1711.486	1679.66667
1714.429	1648.33333
1717.37	1616
1720.309	1606.33333
1723.246	1598
1726.181	1559
1729.113	1570.33333
1732.044	1550
1734.972	1527.66667
1737.899	1522
1740.823	1522.66667
1743.745	1519
1746.665	1477.33333
1749.583	1433.66667
1752.499	1432.33333
1755.413	1407.66667
1758.325	1360.66667
1761.235	1372
1764.142	1331.66667
1767.048	1319
1769.951	1312
1772.852	1309.33333
1775.752	1306.33333
1778.649	1309.66667
1781.544	1290.33333
1784.437	1278
1787.328	1276
1790.217	1267
1793.104	1247
1795.989	1235
1798.872	1233.33333
1801.753	1250.33333
1804.631	1246.33333
1807.508	1248
1810.383	1247.33333
1813.255	1234
1816.126	1220.66667
1818.994	1209.66667
1821.861	1207.33333
1824.725	1194.33333
1827.587	1211.66667
1830.448	1195
1833.306	1147.66667
1836.162	1183.33333
1839.017	1157.33333
1841.869	1167.33333
1844.719	1173
1847.567	1160.66667
1850.414	1143
1853.258	1135.33333
1856.1	1153.66667
1858.94	1158.66667
1861.778	1150
1864.614	1135.33333
1867.448	1148
1870.28	1136
1873.111	1153.66667
1875.939	1135
1878.765	1152.33333
1881.589	1143.33333
1884.411	1117
1887.231	1140
1890.049	1116.33333
1892.865	1114.33333
1895.68	1098.66667
1898.492	1110.33333
1901.302	1088.33333
1904.11	1095
1906.916	1082
1909.721	1085
1912.523	1084.33333
1915.323	1069.33333
1918.122	1084
1920.918	1081
1923.712	1061.33333
1926.505	1069.33333
1929.295	1043
1932.084	1060
1934.87	1072.66667
1937.655	1057.33333
1940.438	1048.66667
1943.218	1060.33333
1945.997	1070.33333
1948.774	1061
1951.549	1053.66667
1954.322	1054.33333
1957.093	1063.66667
1959.862	1061.66667
1962.629	1060.66667
1965.394	1033.66667
1968.157	1018.33333
1970.918	1042.66667
1973.678	1018.33333
1976.435	1021
1979.19	1019.66667
1981.944	1021.33333
1984.696	1008.33333
1987.445	1001.66667
1990.193	1002
1992.939	1015.66667
1995.683	1007.66667
1998.425	996.33333
2001.165	1010.33333
2003.903	1000.33333
2006.639	1005.33333
2009.374	993.66667
2012.106	991
2014.837	975.33333
2017.566	1004
2020.292	981
2023.017	990
2025.74	984.66667
2028.461	977.66667
2031.18	973.33333
2033.898	955
2036.613	991
2039.327	982
2042.038	956
2044.748	962.33333
2047.456	968.33333
2050.162	940.33333
2052.866	951.33333
2055.568	962.33333
2058.268	956.33333
2060.967	957.66667
2063.663	936
2066.358	950.33333
2069.051	941.33333
2071.742	951.33333
2074.431	960
2077.118	943.33333
2079.804	947.33333
2082.487	946
2085.169	952
2087.849	971
2090.527	955
2093.203	967.66667
2095.877	969.33333
2098.55	970.33333
2101.22	975
2103.889	999.66667
2106.556	991
2109.221	1029.33333
2111.884	1058
2114.546	1120.33333
2117.205	1200.66667
2119.863	1309
2122.519	1387.33333
2125.173	1500
2127.825	1611.33333
2130.475	1635.33333
2133.124	1604.66667
2135.771	1557.33333
2138.416	1508.66667
2141.059	1409
2143.7	1353
2146.339	1258.33333
2148.977	1190.66667
2151.613	1163.33333
2154.247	1130.33333
2156.879	1103.66667
2159.51	1078.66667
2162.138	1072.33333
2164.765	1061
2167.39	1044.33333
2170.013	1069.66667
2172.634	1040.66667
2175.254	1049
2177.872	1076.66667
2180.488	1020.33333
2183.102	1038.33333
2185.714	1011
2188.325	991.66667
2190.934	978.66667
2193.541	963.33333
2196.146	948
2198.75	932.66667
2201.351	909.33333
2203.951	893.33333
2206.549	909
2209.146	867
2211.74	868.33333
2214.333	872.33333
2216.924	852
2219.514	840.66667
2222.101	842.33333
2224.687	852.66667
2227.271	830
2229.853	826.66667
2232.433	822
2235.012	838.33333
2237.589	835
2240.164	837
2242.738	819
2245.309	808.66667
2247.879	821
2250.448	804
2253.014	780.66667
2255.579	765.66667
2258.142	767.33333
2260.703	753.66667
2263.262	753.66667
2265.82	750.33333
2268.376	766.33333
2270.93	742.33333
2273.483	735
2276.033	732.33333
2278.583	727.33333
2281.13	728
2283.675	718.66667
2286.219	733.66667
2288.761	717
2291.302	735
2293.841	731.33333
2296.377	712
2298.913	707
2301.446	724.33333
2303.978	712
2306.508	696
2309.037	706.33333
2311.563	696
2314.088	717
2316.612	678
2319.133	682.66667
2321.653	691.33333
2324.171	677.33333
2326.688	696.66667
2329.202	686.66667
2331.715	684.66667
2334.227	686
2336.736	680.66667
2339.244	671
2341.751	673.33333
2344.255	675.33333
2346.758	665.66667
2349.259	653
2351.759	662.66667
2354.257	655
2356.753	647
2359.247	651.66667
2361.74	658.66667
2364.231	642.66667
2366.721	656
2369.209	641.33333
2371.695	646
2374.179	641
2376.662	649
2379.143	642.33333
2381.622	640.66667
2384.1	630
2386.576	634
2389.051	640.33333
2391.524	648.33333
2393.995	641.66667
2396.464	615
2398.932	627.66667
2401.398	627.33333
2403.863	621.66667
2406.325	624.66667
2408.787	622.33333
2411.246	632.33333
2413.704	621.66667
2416.16	617
2418.615	602.33333
2421.068	621.66667
2423.519	610.66667
2425.969	608.66667
2428.417	623
2430.863	636
2433.308	620.66667
2435.751	614
2438.193	607.33333
2440.633	606
2443.071	603
2445.508	588.33333
2447.943	598
2450.376	579.33333
2452.808	601
2455.238	590.33333
2457.667	613.66667
2460.093	593.66667
2462.519	581.66667
2464.942	585.66667
2467.365	584
2469.785	592.66667
2472.204	585.33333
2474.621	573
2477.037	600
2479.451	567.33333
2481.863	568.66667
2484.274	579.66667
2486.683	579
2489.091	584.33333
2491.497	570.33333
2493.901	575.33333
2496.304	557.66667
2498.705	567.66667
2501.105	564
2503.503	591
2505.899	542.66667
2508.294	587.66667
2510.687	557
2513.079	549.33333
2515.469	548
2517.858	563.66667
2520.245	583.66667
2522.63	554.66667
2525.014	550
2527.396	540.33333
2529.776	545.66667
2532.156	550.66667
2534.533	522.66667
2536.909	555.33333
2539.283	523.66667
2541.656	540
2544.027	557
2546.397	545
2548.765	543
2551.131	534.33333
2553.496	539.66667
2555.86	548.66667
2558.221	534
2560.582	529.33333
2562.94	522.66667
2565.298	528
2567.653	549.33333
2570.007	532.66667
2572.36	535.33333
2574.711	527
2577.06	542
2579.408	531.66667
2581.754	522.66667
2584.099	521.66667
2586.442	514
2588.784	531
2591.124	531.66667
2593.463	525.33333
2595.8	521.66667
2598.135	508
2600.469	518.33333
2602.802	524.66667
2605.133	531.33333
2607.462	504.66667
2609.79	503.66667
2612.116	509
2614.441	511.33333
2616.764	517.66667
2619.086	519.66667
2621.406	511.33333
2623.725	523.33333
2626.042	519.33333
2628.358	514
2630.672	506
2632.985	526
2635.296	505.66667
2637.606	504.33333
2639.914	502.66667
2642.22	522.33333
2644.525	506.66667
2646.829	524.66667
2649.131	524.66667
2651.432	527.66667
2653.731	518.66667
2656.028	522.66667
2658.324	519
2660.619	514.66667
2662.912	523.33333
2665.204	515
2667.494	525.33333
2669.782	509.33333
2672.07	529.33333
2674.355	538
2676.639	526.33333
2678.922	515.33333
2681.203	532.66667
2683.483	512
2685.761	507.66667
2688.038	519
2690.313	542.33333
2692.587	524.66667
2694.859	528.66667
2697.13	526.66667
2699.399	529.66667
2701.667	535.66667
2703.933	533
2706.198	535.33333
2708.461	545
2710.723	548
2712.984	557.66667
2715.243	555.66667
2717.5	545.33333
2719.757	569.33333
2722.011	561
2724.264	561
2726.516	580.66667
2728.766	566
2731.015	569.66667
2733.262	551.66667
2735.508	553
2737.753	552.33333
2739.996	540.66667
2742.237	541.66667
2744.477	546.66667
2746.716	548.33333
2748.953	537
2751.189	529
2753.423	531.33333
2755.656	520
2757.887	522
2760.117	539.33333
2762.346	517
2764.573	514.33333
2766.798	515.66667
2769.022	515.33333
2771.245	524
2773.467	523
2775.686	527.66667
2777.905	536.66667
2780.122	530.66667
2782.337	543.66667
2784.552	530.66667
2786.764	556.33333
2788.976	549
2791.186	559.33333
2793.394	573.66667
2795.601	572.66667
2797.807	582.66667
2800.011	592.66667
2802.214	606.33333
2804.415	609.33333
2806.615	605.33333
2808.814	629.66667
2811.011	630.66667
2813.206	635
2815.401	654.66667
2817.594	661.33333
2819.785	680
2821.975	659.66667
2824.164	685
2826.351	701.33333
2828.537	718.66667
2830.722	750
2832.905	754.66667
2835.086	793.66667
2837.267	828
2839.445	875.33333
2841.623	889.66667
2843.799	933
2845.974	974
2848.147	1032.66667
2850.319	1062
2852.489	1110.33333
2854.659	1102
2856.826	1139.33333
2858.993	1168
2861.158	1152.66667
2863.321	1145.66667
2865.483	1178.66667
2867.644	1175
2869.804	1180.33333
2871.962	1165
2874.118	1171.33333
2876.274	1155
2878.428	1147.66667
2880.58	1147.66667
2882.731	1140.66667
2884.881	1158
2887.03	1142.66667
2889.177	1155.66667
2891.322	1156.66667
2893.467	1162
2895.61	1167.66667
2897.751	1183.66667
2899.892	1185.33333
2902.03	1194
2904.168	1207
2906.304	1215.66667
2908.439	1231
2910.572	1205
2912.704	1230.66667
2914.835	1234
2916.965	1217
2919.093	1233.66667
2921.219	1198.66667
2923.345	1218.66667
2925.469	1192.66667
2927.591	1185.66667
2929.712	1128
2931.832	1125
2933.951	1092.33333
2936.068	1072.66667
2938.184	1026
2940.299	990.66667
2942.412	975.66667
2944.524	914.33333
2946.634	895.33333
2948.744	835.66667
2950.851	855.33333
2952.958	789.66667
2955.063	777
2957.167	761.66667
2959.269	723
2961.371	728.66667
2963.471	687
2965.569	697.33333
2967.666	649.33333
2969.762	631
2971.857	622.33333
2973.95	587
2976.042	585
2978.133	565.66667
2980.222	538.66667
2982.31	525
2984.396	502
2986.482	507
2988.566	500
2990.648	485.33333
2992.73	487.33333
2994.81	460
2996.889	463.33333
2998.966	453.66667
3001.042	460.33333
3003.117	457
3005.191	447.33333
3007.263	431
3009.334	433.66667
3011.403	420
3013.472	406
3015.539	409
3017.604	416.33333
3019.669	381.33333
3021.732	380
3023.794	385.66667
3025.854	369
3027.914	376
3029.971	374.33333
3032.028	362.66667
3034.083	371
3036.137	362.66667
3038.19	347.66667
3040.242	339.33333
3042.292	330.66667
3044.341	330.33333
3046.388	337.33333
3048.435	313
3050.48	333
3052.524	328.66667
3054.566	298
3056.607	315.33333
3058.647	307
3060.686	288
3062.723	283.33333
3064.759	275.33333
3066.794	0.33333
3068.828	-0.33333
3070.86	-3
