-0.839	412.25
3.438	455.25
7.711	134.25
11.981	54.25
16.247	46.58333
20.509	48.91667
24.768	50.25
29.024	49.91667
33.276	44.91667
37.524	52.25
41.769	43.91667
46.01	38.58333
50.247	55.25
54.481	68.91667
58.712	70.25
62.939	48.91667
67.162	67.91667
71.382	61.25
75.599	48.58333
79.812	68.25
84.021	82.91667
88.227	67.58333
92.429	63.91667
96.628	51.91667
100.823	70.58333
105.015	80.25
109.204	82.91667
113.388	81.58333
117.57	85.58333
121.748	96.58333
125.922	86.91667
130.093	109.25
134.261	115.91667
138.425	111.25
142.585	153.58333
146.742	150.58333
150.896	185.91667
155.046	222.91667
159.193	358.91667
163.336	605.58333
167.476	1121.25
171.613	2062.91667
175.746	3460.91667
179.875	5174.58333
184.002	6835.58333
188.124	7998.58333
192.244	8404.58333
196.36	8388.91667
200.472	8207.91667
204.581	8066.58333
208.687	7876.91667
212.79	7868.58333
216.889	7893.25
220.984	7976.25
225.077	8117.91667
229.165	8226.25
233.251	8374.58333
237.333	8503.58333
241.412	8511.25
245.487	8482.25
249.559	8439.58333
253.628	8348.91667
257.694	8322.58333
261.756	8242.91667
265.814	8079.91667
269.87	7856.91667
273.922	7563.58333
277.97	7399.58333
282.016	7183.25
286.058	7053.25
290.097	7010.25
294.132	6973.91667
298.164	6908.91667
302.193	6655.91667
306.219	6203.58333
310.241	5677.58333
314.26	5137.58333
318.276	4688.25
322.288	4372.91667
326.297	4132.58333
330.303	3920.58333
334.305	3835.25
338.305	3747.58333
342.301	3657.25
346.294	3625.91667
350.283	3611.25
354.269	3568.91667
358.252	3506.91667
362.232	3506.25
366.209	3456.91667
370.182	3428.91667
374.152	3434.25
378.119	3427.58333
382.083	3418.91667
386.043	3424.91667
390	3399.25
393.954	3391.58333
397.905	3365.25
401.852	3329.58333
405.797	3285.58333
409.738	3252.91667
413.676	3253.25
417.61	3215.25
421.542	3200.91667
425.47	3158.58333
429.396	3116.91667
433.318	3107.58333
437.236	3087.91667
441.152	3092.25
445.065	3049.91667
448.974	3001.91667
452.88	3009.91667
456.783	2992.25
460.683	2969.58333
464.58	2990.25
468.473	2960.25
472.364	2984.91667
476.251	2997.25
480.135	3016.91667
484.016	3047.25
487.894	3060.58333
491.769	3074.58333
495.641	3073.25
499.509	3072.58333
503.375	3072.25
507.237	3089.58333
511.096	3046.91667
514.952	3040.91667
518.805	3043.25
522.655	3030.58333
526.502	2999.91667
530.346	3007.58333
534.187	3043.58333
538.024	3049.25
541.859	3056.25
545.69	3083.58333
549.519	3036.58333
553.344	3029.58333
557.166	2992.58333
560.985	2965.58333
564.802	2913.58333
568.615	2865.91667
572.425	2845.25
576.232	2837.58333
580.036	2788.91667
583.836	2831.91667
587.634	2800.58333
591.429	2805.91667
595.221	2854.25
599.01	2906.58333
602.796	2944.91667
606.578	2959.25
610.358	2990.58333
614.135	2952.25
617.909	2953.25
621.679	2916.91667
625.447	2899.25
629.212	2926.25
632.973	2921.91667
636.732	2908.91667
640.488	2887.91667
644.241	2888.58333
647.991	2873.91667
651.737	2886.58333
655.481	2894.91667
659.222	2921.58333
662.96	2925.91667
666.695	2946.91667
670.427	2931.91667
674.156	2921.58333
677.882	2939.58333
681.605	2900.91667
685.325	2877.25
689.043	2890.91667
692.757	2860.58333
696.468	2891.25
700.177	2875.58333
703.882	2881.58333
707.585	2863.91667
711.284	2863.25
714.981	2877.58333
718.675	2878.25
722.366	2887.91667
726.054	2849.25
729.739	2873.58333
733.421	2867.91667
737.1	2866.58333
740.777	2888.25
744.45	2913.91667
748.121	2938.25
751.789	2969.91667
755.453	2965.25
759.115	2990.58333
762.774	3012.58333
766.431	3052.58333
770.084	3064.91667
773.734	3112.91667
777.382	3162.58333
781.027	3204.25
784.669	3196.25
788.308	3228.58333
791.944	3238.91667
795.577	3265.91667
799.208	3276.25
802.835	3310.58333
806.46	3352.91667
810.082	3400.91667
813.701	3401.58333
817.317	3451.91667
820.931	3443.25
824.542	3426.58333
828.149	3365.25
831.754	3356.58333
835.357	3324.58333
838.956	3294.91667
842.553	3274.91667
846.146	3247.25
849.737	3255.91667
853.326	3251.25
856.911	3272.25
860.493	3299.25
864.073	3339.58333
867.65	3372.25
871.225	3400.58333
874.796	3400.91667
878.365	3407.91667
881.931	3442.58333
885.494	3464.25
889.054	3452.91667
892.612	3496.25
896.166	3456.25
899.719	3399.58333
903.268	3373.58333
906.814	3386.58333
910.358	3357.58333
913.899	3343.58333
917.438	3357.25
920.973	3348.91667
924.506	3377.25
928.036	3439.25
931.564	3480.91667
935.088	3501.25
938.61	3490.25
942.129	3552.91667
945.646	3608.25
949.16	3726.25
952.671	3787.58333
956.179	3868.58333
959.685	3846.91667
963.188	3855.58333
966.688	3829.25
970.185	3698.25
973.68	3608.58333
977.173	3558.25
980.662	3532.91667
984.149	3563.25
987.633	3552.58333
991.114	3627.91667
994.593	3677.25
998.069	3806.58333
1001.542	3924.25
1005.013	3865.91667
1008.481	3635.58333
1011.947	3563.25
1015.409	3539.91667
1018.869	3540.91667
1022.327	3521.58333
1025.782	3531.25
1029.234	3535.25
1032.683	3510.25
1036.13	3378.91667
1039.574	3232.91667
1043.016	3163.91667
1046.455	3089.91667
1049.891	3051.91667
1053.325	3062.91667
1056.756	3053.25
1060.184	3086.25
1063.61	3100.58333
1067.033	3102.58333
1070.454	3132.25
1073.872	3148.58333
1077.287	3169.58333
1080.7	3159.58333
1084.11	3163.58333
1087.517	3177.58333
1090.922	3113.25
1094.325	3060.58333
1097.724	3024.25
1101.122	3033.91667
1104.516	3026.91667
1107.908	3039.58333
1111.298	3095.25
1114.684	3105.91667
1118.069	3130.25
1121.45	3175.91667
1124.83	3167.58333
1128.206	3185.25
1131.58	3247.58333
1134.951	3343.91667
1138.32	3440.58333
1141.687	3583.25
1145.05	3685.91667
1148.412	3693.58333
1151.77	3707.25
1155.126	3677.25
1158.48	3668.58333
1161.831	3688.25
1165.18	3727.25
1168.525	3756.91667
1171.869	3826.58333
1175.21	3840.58333
1178.548	3907.58333
1181.884	3935.91667
1185.217	3962.58333
1188.548	4016.58333
1191.877	4079.25
1195.202	4185.91667
1198.526	4246.58333
1201.846	4278.91667
1205.165	4269.25
1208.48	4259.91667
1211.794	4250.91667
1215.104	4254.58333
1218.413	4235.58333
1221.719	4266.91667
1225.022	4193.25
1228.323	4120.58333
1231.621	4119.91667
1234.917	4105.91667
1238.21	4131.91667
1241.501	4105.91667
1244.79	4105.91667
1248.076	4109.25
1251.359	4150.25
1254.64	4195.25
1257.919	4268.58333
1261.195	4306.58333
1264.468	4409.25
1267.74	4463.58333
1271.008	4517.91667
1274.275	4444.25
1277.538	4415.25
1280.8	4404.58333
1284.059	4404.25
1287.315	4436.58333
1290.569	4486.58333
1293.821	4488.25
1297.07	4519.91667
1300.317	4513.58333
1303.562	4488.91667
1306.803	4489.58333
1310.043	4448.91667
1313.28	4399.25
1316.515	4369.25
1319.747	4344.25
1322.977	4242.91667
1326.204	4226.25
1329.429	4207.91667
1332.652	4133.58333
1335.872	4168.25
1339.09	4138.58333
1342.306	4123.25
1345.519	4068.58333
1348.729	4052.58333
1351.938	4041.25
1355.144	3976.25
1358.347	3925.25
1361.548	3883.91667
1364.747	3932.91667
1367.944	3879.91667
1371.138	3900.91667
1374.329	3965.25
1377.518	3976.91667
1380.705	4047.58333
1383.89	4000.91667
1387.072	3885.91667
1390.252	3756.58333
1393.429	3610.25
1396.605	3482.91667
1399.777	3388.91667
1402.948	3335.91667
1406.116	3325.58333
1409.282	3311.25
1412.445	3303.91667
1415.606	3350.58333
1418.765	3369.25
1421.921	3470.91667
1425.075	3529.91667
1428.227	3696.58333
1431.376	3850.58333
1434.524	4008.25
1437.668	4121.58333
1440.811	4147.58333
1443.951	4182.58333
1447.089	4188.91667
1450.224	4189.25
1453.357	4193.25
1456.488	4190.25
1459.617	4093.91667
1462.743	4007.25
1465.867	3960.58333
1468.989	3925.58333
1472.108	3873.91667
1475.225	3781.91667
1478.34	3738.91667
1481.453	3727.58333
1484.563	3737.91667
1487.671	3796.91667
1490.776	3857.58333
1493.88	3942.58333
1496.981	4022.91667
1500.08	4099.91667
1503.176	4152.25
1506.271	4215.25
1509.363	4276.91667
1512.452	4317.91667
1515.54	4396.91667
1518.625	4459.91667
1521.708	4650.58333
1524.789	4875.25
1527.867	5173.25
1530.944	5456.91667
1534.018	5688.25
1537.089	5782.25
1540.159	5758.25
1543.226	5602.91667
1546.291	5427.25
1549.354	5253.25
1552.415	5107.25
1555.473	4962.91667
1558.529	4895.91667
1561.583	4849.58333
1564.634	4804.58333
1567.684	4784.91667
1570.731	4840.58333
1573.776	4867.25
1576.819	4933.58333
1579.859	5011.58333
1582.898	5056.58333
1585.934	5110.25
1588.968	5129.25
1591.999	5089.58333
1595.029	5076.25
1598.056	5097.25
1601.081	5116.25
1604.104	5090.58333
1607.125	5078.91667
1610.144	4945.91667
1613.16	4841.91667
1616.174	4728.58333
1619.186	4654.58333
1622.196	4588.25
1625.203	4470.58333
1628.209	4446.25
1631.212	4449.58333
1634.213	4434.58333
1637.212	4427.58333
1640.209	4387.25
1643.203	4261.58333
1646.196	4081.25
1649.186	3922.91667
1652.174	3772.58333
1655.16	3667.91667
1658.144	3540.58333
1661.125	3382.58333
1664.105	3208.25
1667.082	3073.25
1670.057	2887.58333
1673.03	2715.91667
1676.001	2506.25
1678.97	2335.25
1681.937	2204.58333
1684.901	2075.91667
1687.863	1995.25
1690.824	1905.25
1693.782	1871.58333
1696.738	1788.58333
1699.692	1773.25
1702.643	1719.58333
1705.593	1702.25
1708.54	1667.91667
1711.486	1674.58333
1714.429	1622.58333
1717.37	1613.91667
1720.309	1602.91667
1723.246	1603.58333
1726.181	1553.91667
1729.113	1556.58333
1732.044	1530.58333
1734.972	1530.58333
1737.899	1536.91667
1740.823	1511.25
1743.745	1513.25
1746.665	1462.58333
1749.583	1447.25
1752.499	1421.91667
1755.413	1396.58333
1758.325	1364.25
1761.235	1368.25
1764.142	1325.25
1767.048	1325.58333
1769.951	1321.91667
1772.852	1306.58333
1775.752	1310.91667
1778.649	1303.58333
1781.544	1309.25
1784.437	1274.58333
1787.328	1269.58333
1790.217	1263.91667
1793.104	1236.58333
1795.989	1233.91667
1798.872	1217.25
1801.753	1243.91667
1804.631	1243.91667
1807.508	1243.25
1810.383	1220.25
1813.255	1239.25
1816.126	1219.25
1818.994	1230.58333
1821.861	1201.91667
1824.725	1208.25
1827.587	1208.25
1830.448	1181.25
1833.306	1154.91667
1836.162	1187.58333
1839.017	1163.91667
1841.869	1174.58333
1844.719	1162.58333
1847.567	1153.25
1850.414	1132.91667
1853.258	1131.91667
1856.1	1131.58333
1858.94	1154.91667
1861.778	1140.91667
1864.614	1117.91667
1867.448	1138.91667
1870.28	1131.25
1873.111	1153.58333
1875.939	1133.25
1878.765	1154.58333
1881.589	1124.91667
1884.411	1127.58333
1887.231	1138.25
1890.049	1123.91667
1892.865	1118.25
1895.68	1104.25
1898.492	1099.91667
1901.302	1095.25
1904.11	1089.58333
1906.916	1079.58333
1909.721	1089.58333
1912.523	1095.91667
1915.323	1054.58333
1918.122	1065.25
1920.918	1075.25
1923.712	1054.58333
1926.505	1066.25
1929.295	1047.58333
1932.084	1080.91667
1934.87	1071.91667
1937.655	1045.58333
1940.438	1047.58333
1943.218	1050.58333
1945.997	1051.91667
1948.774	1068.91667
1951.549	1052.91667
1954.322	1046.25
1957.093	1054.91667
1959.862	1029.91667
1962.629	1034.25
1965.394	1016.25
1968.157	998.91667
1970.918	1022.58333
1973.678	1010.58333
1976.435	1025.91667
1979.19	1013.91667
1981.944	1007.25
1984.696	1001.25
1987.445	985.58333
1990.193	990.58333
1992.939	1019.91667
1995.683	1003.91667
1998.425	970.25
2001.165	1017.58333
2003.903	984.25
2006.639	981.91667
2009.374	982.91667
2012.106	966.58333
2014.837	947.91667
2017.566	964.91667
2020.292	978.25
2023.017	985.25
2025.74	964.91667
2028.461	966.25
2031.18	963.25
2033.898	953.91667
2036.613	956.91667
2039.327	969.58333
2042.038	947.58333
2044.748	948.91667
2047.456	943.91667
2050.162	931.58333
2052.866	943.58333
2055.568	941.58333
2058.268	927.91667
2060.967	938.25
2063.663	939.25
2066.358	919.58333
2069.051	915.58333
2071.742	918.91667
2074.431	936.25
2077.118	911.25
2079.804	907.25
2082.487	920.58333
2085.169	919.91667
2087.849	947.91667
2090.527	920.91667
2093.203	921.25
2095.877	923.91667
2098.55	935.25
2101.22	940.58333
2103.889	947.25
2106.556	932.58333
2109.221	963.58333
2111.884	964.25
2114.546	1014.25
2117.205	1059.91667
2119.863	1119.25
2122.519	1197.25
2125.173	1288.25
2127.825	1383.25
2130.475	1409.25
2133.124	1378.91667
2135.771	1354.58333
2138.416	1313.58333
2141.059	1236.25
2143.7	1201.25
2146.339	1112.58333
2148.977	1058.91667
2151.613	1049.58333
2154.247	1014.58333
2156.879	1003.58333
2159.51	991.91667
2162.138	963.25
2164.765	973.91667
2167.39	968.58333
2170.013	977.25
2172.634	981.91667
2175.254	954.25
2177.872	977.25
2180.488	946.58333
2183.102	945.25
2185.714	924.25
2188.325	902.58333
2190.934	907.91667
2193.541	896.91667
2196.146	883.25
2198.75	859.58333
2201.351	865.25
2203.951	837.58333
2206.549	858.91667
2209.146	829.58333
2211.74	827.25
2214.333	842.58333
2216.924	809.25
2219.514	816.25
2222.101	806.58333
2224.687	823.91667
2227.271	793.58333
2229.853	796.25
2232.433	777.25
2235.012	811.91667
2237.589	799.58333
2240.164	811.25
2242.738	795.91667
2245.309	781.25
2247.879	787.58333
2250.448	787.91667
2253.014	752.25
2255.579	738.91667
2258.142	748.91667
2260.703	735.25
2263.262	726.25
2265.82	731.58333
2268.376	734.91667
2270.93	711.91667
2273.483	715.58333
2276.033	718.25
2278.583	701.25
2281.13	711.91667
2283.675	689.25
2286.219	712.91667
2288.761	687.25
2291.302	695.91667
2293.841	700.91667
2296.377	666.91667
2298.913	692.58333
2301.446	698.25
2303.978	681.25
2306.508	678.25
2309.037	673.58333
2311.563	678.58333
2314.088	674.25
2316.612	660.91667
2319.133	654.91667
2321.653	663.25
2324.171	644.91667
2326.688	666.58333
2329.202	655.25
2331.715	658.58333
2334.227	651.91667
2336.736	647.58333
2339.244	640.91667
2341.751	635.58333
2344.255	647.25
2346.758	650.25
2349.259	638.91667
2351.759	637.58333
2354.257	624.25
2356.753	630.25
2359.247	629.91667
2361.74	633.58333
2364.231	624.58333
2366.721	626.58333
2369.209	615.91667
2371.695	623.58333
2374.179	611.91667
2376.662	613.91667
2379.143	638.25
2381.622	621.58333
2384.1	622.58333
2386.576	611.91667
2389.051	624.25
2391.524	615.25
2393.995	609.58333
2396.464	592.25
2398.932	596.58333
2401.398	608.91667
2403.863	598.91667
2406.325	600.58333
2408.787	596.91667
2411.246	596.58333
2413.704	589.25
2416.16	589.91667
2418.615	594.91667
2421.068	593.58333
2423.519	590.58333
2425.969	594.58333
2428.417	593.58333
2430.863	599.91667
2433.308	596.25
2435.751	584.25
2438.193	576.91667
2440.633	584.25
2443.071	590.25
2445.508	570.58333
2447.943	567.91667
2450.376	567.25
2452.808	564.91667
2455.238	564.25
2457.667	591.25
2460.093	565.91667
2462.519	560.91667
2464.942	555.58333
2467.365	564.25
2469.785	576.25
2472.204	554.25
2474.621	544.58333
2477.037	565.58333
2479.451	539.58333
2481.863	550.25
2484.274	532.25
2486.683	557.25
2489.091	554.58333
2491.497	547.91667
2493.901	537.91667
2496.304	539.25
2498.705	548.91667
2501.105	535.25
2503.503	566.58333
2505.899	529.25
2508.294	547.25
2510.687	533.58333
2513.079	537.91667
2515.469	518.25
2517.858	524.91667
2520.245	547.58333
2522.63	529.25
2525.014	515.25
2527.396	526.25
2529.776	511.58333
2532.156	527.25
2534.533	512.91667
2536.909	527.58333
2539.283	500.58333
2541.656	509.58333
2544.027	530.58333
2546.397	516.91667
2548.765	518.25
2551.131	513.58333
2553.496	511.25
2555.86	508.91667
2558.221	512.58333
2560.582	513.25
2562.94	505.91667
2565.298	504.58333
2567.653	521.58333
2570.007	498.91667
2572.36	508.91667
2574.711	499.58333
2577.06	517.58333
2579.408	502.58333
2581.754	501.58333
2584.099	500.91667
2586.442	495.25
2588.784	499.58333
2591.124	501.25
2593.463	492.25
2595.8	499.58333
2598.135	488.58333
2600.469	492.25
2602.802	514.91667
2605.133	506.58333
2607.462	491.91667
2609.79	486.58333
2612.116	487.91667
2614.441	483.58333
2616.764	492.58333
2619.086	488.58333
2621.406	481.58333
2623.725	506.91667
2626.042	486.91667
2628.358	484.25
2630.672	481.58333
2632.985	499.58333
2635.296	488.25
2637.606	487.91667
2639.914	481.91667
2642.22	492.91667
2644.525	480.91667
2646.829	496.25
2649.131	497.25
2651.432	504.91667
2653.731	488.58333
2656.028	499.91667
2658.324	485.25
2660.619	493.91667
2662.912	503.25
2665.204	486.91667
2667.494	499.58333
2669.782	486.25
2672.07	498.58333
2674.355	502.58333
2676.639	476.91667
2678.922	479.25
2681.203	495.91667
2683.483	477.25
2685.761	468.91667
2688.038	488.58333
2690.313	501.58333
2692.587	482.25
2694.859	484.91667
2697.13	488.91667
2699.399	492.25
2701.667	506.25
2703.933	517.58333
2706.198	508.58333
2708.461	511.25
2710.723	514.58333
2712.984	515.91667
2715.243	520.91667
2717.5	512.25
2719.757	523.25
2722.011	523.91667
2724.264	539.58333
2726.516	548.25
2728.766	518.25
2731.015	532.91667
2733.262	531.25
2735.508	520.91667
2737.753	522.25
2739.996	503.25
2742.237	506.91667
2744.477	521.25
2746.716	513.91667
2748.953	507.91667
2751.189	497.58333
2753.423	487.91667
2755.656	496.25
2757.887	486.25
2760.117	485.91667
2762.346	477.25
2764.573	475.91667
2766.798	476.25
2769.022	478.91667
2771.245	483.58333
2773.467	488.58333
2775.686	485.25
2777.905	494.58333
2780.122	499.91667
2782.337	491.91667
2784.552	494.58333
2786.764	508.58333
2788.976	498.58333
2791.186	513.25
2793.394	513.25
2795.601	530.58333
2797.807	530.58333
2800.011	533.91667
2802.214	552.91667
2804.415	551.25
2806.615	554.58333
2808.814	564.58333
2811.011	562.58333
2813.206	572.58333
2815.401	585.58333
2817.594	594.25
2819.785	607.91667
2821.975	604.58333
2824.164	620.58333
2826.351	643.25
2828.537	664.58333
2830.722	673.58333
2832.905	691.25
2835.086	731.25
2837.267	757.91667
2839.445	806.25
2841.623	821.58333
2843.799	869.91667
2845.974	912.91667
2848.147	969.58333
2850.319	999.91667
2852.489	1045.25
2854.659	1049.25
2856.826	1092.91667
2858.993	1091.91667
2861.158	1080.58333
2863.321	1097.25
2865.483	1111.25
2867.644	1116.91667
2869.804	1119.25
2871.962	1103.58333
2874.118	1112.25
2876.274	1108.25
2878.428	1094.25
2880.58	1090.58333
2882.731	1087.91667
2884.881	1091.25
2887.03	1102.25
2889.177	1102.58333
2891.322	1117.58333
2893.467	1100.25
2895.61	1123.58333
2897.751	1137.58333
2899.892	1134.91667
2902.03	1157.58333
2904.168	1140.91667
2906.304	1163.91667
2908.439	1193.91667
2910.572	1163.25
2912.704	1187.25
2914.835	1182.91667
2916.965	1188.91667
2919.093	1200.91667
2921.219	1166.91667
2923.345	1167.25
2925.469	1160.58333
2927.591	1122.91667
2929.712	1091.58333
2931.832	1090.91667
2933.951	1061.91667
2936.068	1027.58333
2938.184	1007.25
2940.299	973.91667
2942.412	938.25
2944.524	888.58333
2946.634	870.91667
2948.744	803.58333
2950.851	817.58333
2952.958	762.25
2955.063	749.58333
2957.167	740.25
2959.269	698.58333
2961.371	716.91667
2963.471	658.25
2965.569	662.58333
2967.666	629.91667
2969.762	615.25
2971.857	594.91667
2973.95	568.25
2976.042	577.58333
2978.133	540.25
2980.222	524.25
2982.31	509.58333
2984.396	487.58333
2986.482	482.25
2988.566	489.91667
2990.648	467.91667
2992.73	472.91667
2994.81	440.91667
2996.889	450.25
2998.966	437.91667
3001.042	444.25
3003.117	443.58333
3005.191	431.58333
3007.263	425.91667
3009.334	410.91667
3011.403	409.58333
3013.472	388.91667
3015.539	401.91667
3017.604	403.91667
3019.669	371.25
3021.732	376.25
3023.794	375.58333
3025.854	354.91667
3027.914	356.91667
3029.971	362.25
3032.028	354.25
3034.083	357.58333
3036.137	351.91667
3038.19	334.25
3040.242	330.25
3042.292	323.58333
3044.341	319.91667
3046.388	331.25
3048.435	303.91667
3050.48	323.58333
3052.524	312.25
3054.566	295.58333
3056.607	310.58333
3058.647	294.25
3060.686	282.58333
3062.723	273.25
3064.759	272.58333
3066.794	-0.75
3068.828	-2.75
3070.86	-2.41667
