-0.839	401.5
3.438	451.5
7.711	130.83333
11.981	57.16667
16.247	47.83333
20.509	43.5
24.768	44.5
29.024	51.5
33.276	44.5
37.524	51.16667
41.769	40.16667
46.01	36.83333
50.247	54.16667
54.481	64.16667
58.712	73.16667
62.939	57.5
67.162	62.5
71.382	58.16667
75.599	51.16667
79.812	69.83333
84.021	83.16667
88.227	61.5
92.429	66.5
96.628	55.5
100.823	70.16667
105.015	79.5
109.204	81.83333
113.388	82.16667
117.57	78.83333
121.748	92.83333
125.922	87.16667
130.093	109.16667
134.261	113.5
138.425	109.83333
142.585	151.83333
146.742	151.16667
150.896	182.5
155.046	222.16667
159.193	361.16667
163.336	612.5
167.476	1111.5
171.613	2028.83333
175.746	3430.16667
179.875	5140.5
184.002	6747.83333
188.124	7862.83333
192.244	8230.83333
196.36	8238.16667
200.472	8041.83333
204.581	7873.5
208.687	7722.5
212.79	7700.16667
216.889	7707.16667
220.984	7827.5
225.077	7905.16667
229.165	8012.5
233.251	8163.83333
237.333	8237.83333
241.412	8258.16667
245.487	8257.16667
249.559	8191.83333
253.628	8124.83333
257.694	8045.16667
261.756	7995.16667
265.814	7862.5
269.87	7623.5
273.922	7339.5
277.97	7155.16667
282.016	6969.83333
286.058	6885.16667
290.097	6828.5
294.132	6827.5
298.164	6773.83333
302.193	6503.83333
306.219	6014.5
310.241	5436.5
314.26	4950.16667
318.276	4495.83333
322.288	4207.83333
326.297	3960.83333
330.303	3746.83333
334.305	3640.16667
338.305	3561.83333
342.301	3496.83333
346.294	3458.16667
350.283	3432.83333
354.269	3373.16667
358.252	3339.83333
362.232	3301.5
366.209	3286.83333
370.182	3232.5
374.152	3226.83333
378.119	3222.16667
382.083	3215.16667
386.043	3223.83333
390	3199.16667
393.954	3189.5
397.905	3147.83333
401.852	3133.5
405.797	3095.16667
409.738	3056.16667
413.676	3036.5
417.61	3031.5
421.542	2982.5
425.47	2962.83333
429.396	2925.5
433.318	2912.16667
437.236	2896.16667
441.152	2901.5
445.065	2859.5
448.974	2846.5
452.88	2824.5
456.783	2799.5
460.683	2792.5
464.58	2785.5
468.473	2783.83333
472.364	2800.16667
476.251	2799.5
480.135	2821.5
484.016	2854.16667
487.894	2870.16667
491.769	2888.83333
495.641	2857.83333
499.509	2865.5
503.375	2876.83333
507.237	2874.5
511.096	2842.5
514.952	2835.16667
518.805	2847.5
522.655	2864.16667
526.502	2834.83333
530.346	2833.83333
534.187	2860.83333
538.024	2874.16667
541.859	2874.16667
545.69	2896.83333
549.519	2872.16667
553.344	2857.5
557.166	2795.5
560.985	2789.16667
564.802	2739.5
568.615	2699.83333
572.425	2642.16667
576.232	2657.16667
580.036	2645.16667
583.836	2620.5
587.634	2642.16667
591.429	2626.83333
595.221	2700.83333
599.01	2711.83333
602.796	2756.83333
606.578	2809.83333
610.358	2802.5
614.135	2772.16667
617.909	2763.83333
621.679	2738.83333
625.447	2726.83333
629.212	2726.16667
632.973	2724.5
636.732	2727.16667
640.488	2736.16667
644.241	2696.16667
647.991	2697.83333
651.737	2720.5
655.481	2701.83333
659.222	2698.83333
662.96	2697.5
666.695	2690.83333
670.427	2743.83333
674.156	2743.5
677.882	2734.16667
681.605	2720.5
685.325	2706.83333
689.043	2692.16667
692.757	2672.16667
696.468	2702.16667
700.177	2708.5
703.882	2684.83333
707.585	2681.83333
711.284	2666.16667
714.981	2704.83333
718.675	2707.16667
722.366	2700.16667
726.054	2666.16667
729.739	2680.83333
733.421	2667.16667
737.1	2666.83333
740.777	2719.83333
744.45	2733.83333
748.121	2727.16667
751.789	2799.16667
755.453	2776.16667
759.115	2802.83333
762.774	2829.83333
766.431	2864.5
770.084	2895.5
773.734	2953.5
777.382	3032.16667
781.027	3035.5
784.669	3037.5
788.308	3048.16667
791.944	3063.83333
795.577	3106.83333
799.208	3091.16667
802.835	3146.16667
806.46	3167.5
810.082	3207.16667
813.701	3221.83333
817.317	3250.83333
820.931	3253.16667
824.542	3240.5
828.149	3213.83333
831.754	3208.16667
835.357	3141.5
838.956	3144.83333
842.553	3135.83333
846.146	3116.83333
849.737	3112.83333
853.326	3118.16667
856.911	3115.83333
860.493	3178.83333
864.073	3192.16667
867.65	3244.5
871.225	3279.16667
874.796	3271.5
878.365	3282.16667
881.931	3313.16667
885.494	3342.83333
889.054	3335.16667
892.612	3360.5
896.166	3340.83333
899.719	3291.5
903.268	3263.5
906.814	3228.5
910.358	3213.16667
913.899	3213.16667
917.438	3227.16667
920.973	3207.5
924.506	3246.16667
928.036	3282.16667
931.564	3308.5
935.088	3365.16667
938.61	3379.5
942.129	3412.5
945.646	3474.16667
949.16	3574.83333
952.671	3659.83333
956.179	3723.83333
959.685	3689.16667
963.188	3668.83333
966.688	3632.5
970.185	3535.5
973.68	3471.5
977.173	3405.16667
980.662	3394.5
984.149	3402.83333
987.633	3394.83333
991.114	3430.5
994.593	3525.5
998.069	3651.16667
1001.542	3785.5
1005.013	3675.16667
1008.481	3494.5
1011.947	3401.16667
1015.409	3375.83333
1018.869	3412.5
1022.327	3392.5
1025.782	3355.16667
1029.234	3367.16667
1032.683	3341.5
1036.13	3217.83333
1039.574	3100.16667
1043.016	2987.16667
1046.455	2941.16667
1049.891	2906.16667
1053.325	2920.5
1056.756	2915.5
1060.184	2932.16667
1063.61	2974.5
1067.033	2969.83333
1070.454	2994.83333
1073.872	3033.83333
1077.287	3011.16667
1080.7	3014.5
1084.11	3052.83333
1087.517	2971.83333
1090.922	2947.16667
1094.325	2942.83333
1097.724	2902.83333
1101.122	2916.5
1104.516	2897.16667
1107.908	2917.16667
1111.298	2980.83333
1114.684	3005.16667
1118.069	3048.16667
1121.45	3052.16667
1124.83	3025.5
1128.206	3065.16667
1131.58	3143.83333
1134.951	3236.16667
1138.32	3327.83333
1141.687	3487.16667
1145.05	3598.83333
1148.412	3597.5
1151.77	3617.83333
1155.126	3581.16667
1158.48	3606.83333
1161.831	3608.5
1165.18	3624.16667
1168.525	3695.16667
1171.869	3749.83333
1175.21	3804.16667
1178.548	3824.5
1181.884	3870.83333
1185.217	3905.5
1188.548	3948.83333
1191.877	4038.83333
1195.202	4129.16667
1198.526	4173.5
1201.846	4203.5
1205.165	4188.16667
1208.48	4174.83333
1211.794	4146.83333
1215.104	4153.5
1218.413	4157.83333
1221.719	4138.16667
1225.022	4077.16667
1228.323	4055.83333
1231.621	4017.5
1234.917	4006.16667
1238.21	4009.83333
1241.501	3978.16667
1244.79	3995.16667
1248.076	3992.16667
1251.359	4032.83333
1254.64	4094.16667
1257.919	4131.16667
1261.195	4204.16667
1264.468	4299.5
1267.74	4361.5
1271.008	4415.83333
1274.275	4378.5
1277.538	4337.16667
1280.8	4292.16667
1284.059	4311.16667
1287.315	4342.83333
1290.569	4331.16667
1293.821	4405.5
1297.07	4385.16667
1300.317	4428.83333
1303.562	4395.83333
1306.803	4395.5
1310.043	4320.5
1313.28	4285.16667
1316.515	4228.16667
1319.747	4238.83333
1322.977	4159.16667
1326.204	4089.16667
1329.429	4042.83333
1332.652	4023.83333
1335.872	3994.83333
1339.09	3991.83333
1342.306	3942.16667
1345.519	3918.83333
1348.729	3891.5
1351.938	3847.5
1355.144	3790.83333
1358.347	3758.83333
1361.548	3719.83333
1364.747	3727.5
1367.944	3726.16667
1371.138	3742.16667
1374.329	3802.5
1377.518	3841.5
1380.705	3863.16667
1383.89	3860.83333
1387.072	3759.5
1390.252	3584.83333
1393.429	3464.83333
1396.605	3355.16667
1399.777	3235.16667
1402.948	3217.83333
1406.116	3188.5
1409.282	3197.83333
1412.445	3176.83333
1415.606	3210.83333
1418.765	3248.5
1421.921	3344.5
1425.075	3429.5
1428.227	3556.16667
1431.376	3748.16667
1434.524	3877.16667
1437.668	3982.16667
1440.811	4031.5
1443.951	4075.16667
1447.089	4068.16667
1450.224	4066.16667
1453.357	4048.83333
1456.488	4034.16667
1459.617	3953.83333
1462.743	3901.83333
1465.867	3847.83333
1468.989	3809.16667
1472.108	3751.16667
1475.225	3656.16667
1478.34	3637.16667
1481.453	3628.83333
1484.563	3671.5
1487.671	3706.83333
1490.776	3765.83333
1493.88	3830.83333
1496.981	3938.5
1500.08	4012.83333
1503.176	4057.83333
1506.271	4155.5
1509.363	4188.5
1512.452	4234.16667
1515.54	4326.83333
1518.625	4415.5
1521.708	4554.5
1524.789	4811.5
1527.867	5074.83333
1530.944	5356.16667
1534.018	5597.5
1537.089	5727.5
1540.159	5673.83333
1543.226	5545.5
1546.291	5389.16667
1549.354	5233.83333
1552.415	5071.5
1555.473	4945.5
1558.529	4844.5
1561.583	4797.5
1564.634	4781.5
1567.684	4752.5
1570.731	4776.16667
1573.776	4862.5
1576.819	4904.5
1579.859	4923.83333
1582.898	4985.16667
1585.934	5046.83333
1588.968	5082.83333
1591.999	5055.83333
1595.029	5034.83333
1598.056	5074.83333
1601.081	5080.83333
1604.104	5059.5
1607.125	5020.83333
1610.144	4891.16667
1613.16	4808.16667
1616.174	4691.5
1619.186	4567.83333
1622.196	4483.16667
1625.203	4371.16667
1628.209	4303.83333
1631.212	4258.83333
1634.213	4217.16667
1637.212	4215.5
1640.209	4127.5
1643.203	4021.16667
1646.196	3875.83333
1649.186	3724.83333
1652.174	3574.5
1655.16	3484.5
1658.144	3348.16667
1661.125	3194.16667
1664.105	3034.16667
1667.082	2902.83333
1670.057	2750.16667
1673.03	2569.16667
1676.001	2395.83333
1678.97	2230.83333
1681.937	2097.16667
1684.901	1986.83333
1687.863	1896.5
1690.824	1825.83333
1693.782	1787.5
1696.738	1707.83333
1699.692	1689.83333
1702.643	1621.16667
1705.593	1622.5
1708.54	1602.83333
1711.486	1591.83333
1714.429	1541.16667
1717.37	1538.16667
1720.309	1514.83333
1723.246	1495.5
1726.181	1463.83333
1729.113	1486.5
1732.044	1463.83333
1734.972	1439.5
1737.899	1430.83333
1740.823	1436.5
1743.745	1437.16667
1746.665	1369.16667
1749.583	1344.5
1752.499	1337.5
1755.413	1317.16667
1758.325	1289.16667
1761.235	1273.83333
1764.142	1252.16667
1767.048	1242.83333
1769.951	1248.5
1772.852	1216.5
1775.752	1214.83333
1778.649	1224.16667
1781.544	1200.83333
1784.437	1191.83333
1787.328	1196.83333
1790.217	1193.5
1793.104	1158.16667
1795.989	1154.16667
1798.872	1157.83333
1801.753	1170.5
1804.631	1162.16667
1807.508	1173.5
1810.383	1147.5
1813.255	1143.83333
1816.126	1143.83333
1818.994	1134.83333
1821.861	1130.5
1824.725	1124.16667
1827.587	1129.5
1830.448	1120.16667
1833.306	1093.5
1836.162	1099.16667
1839.017	1090.5
1841.869	1081.5
1844.719	1079.83333
1847.567	1067.16667
1850.414	1075.5
1853.258	1068.83333
1856.1	1081.5
1858.94	1068.16667
1861.778	1076.16667
1864.614	1063.5
1867.448	1071.5
1870.28	1060.83333
1873.111	1067.5
1875.939	1057.16667
1878.765	1066.83333
1881.589	1055.5
1884.411	1041.5
1887.231	1068.5
1890.049	1062.5
1892.865	1051.83333
1895.68	1034.83333
1898.492	1042.83333
1901.302	1031.16667
1904.11	1021.83333
1906.916	1002.16667
1909.721	1013.16667
1912.523	1019.5
1915.323	980.5
1918.122	996.5
1920.918	1010.5
1923.712	984.83333
1926.505	995.83333
1929.295	982.83333
1932.084	1008.16667
1934.87	990.5
1937.655	977.16667
1940.438	995.16667
1943.218	982.83333
1945.997	989.83333
1948.774	998.5
1951.549	980.16667
1954.322	973.16667
1957.093	986.16667
1959.862	976.83333
1962.629	975.5
1965.394	956.5
1968.157	947.5
1970.918	966.5
1973.678	948.5
1976.435	962.16667
1979.19	960.16667
1981.944	960.5
1984.696	941.16667
1987.445	928.16667
1990.193	934.16667
1992.939	938.83333
1995.683	946.83333
1998.425	917.83333
2001.165	938.83333
2003.903	922.5
2006.639	914.5
2009.374	916.16667
2012.106	928.16667
2014.837	901.16667
2017.566	916.16667
2020.292	915.16667
2023.017	917.83333
2025.74	910.16667
2028.461	899.16667
2031.18	909.16667
2033.898	888.16667
2036.613	911.5
2039.327	910.83333
2042.038	880.5
2044.748	891.16667
2047.456	891.5
2050.162	877.16667
2052.866	880.16667
2055.568	891.16667
2058.268	874.16667
2060.967	891.16667
2063.663	850.5
2066.358	876.16667
2069.051	869.5
2071.742	873.83333
2074.431	878.5
2077.118	860.83333
2079.804	869.5
2082.487	859.83333
2085.169	865.83333
2087.849	888.83333
2090.527	864.16667
2093.203	890.16667
2095.877	883.16667
2098.55	885.83333
2101.22	887.83333
2103.889	904.16667
2106.556	897.5
2109.221	922.5
2111.884	929.83333
2114.546	970.83333
2117.205	1037.16667
2119.863	1106.5
2122.519	1178.5
2125.173	1260.16667
2127.825	1355.16667
2130.475	1378.5
2133.124	1360.16667
2135.771	1329.5
2138.416	1280.5
2141.059	1204.5
2143.7	1162.5
2146.339	1083.16667
2148.977	1030.16667
2151.613	1013.5
2154.247	987.16667
2156.879	963.83333
2159.51	948.83333
2162.138	931.83333
2164.765	937.83333
2167.39	915.16667
2170.013	939.16667
2172.634	933.16667
2175.254	916.5
2177.872	946.16667
2180.488	902.83333
2183.102	908.16667
2185.714	887.5
2188.325	860.83333
2190.934	873.83333
2193.541	853.83333
2196.146	835.5
2198.75	818.5
2201.351	812.83333
2203.951	795.83333
2206.549	811.83333
2209.146	779.5
2211.74	794.16667
2214.333	794.16667
2216.924	773.83333
2219.514	784.16667
2222.101	760.83333
2224.687	778.5
2227.271	756.5
2229.853	761.5
2232.433	747.83333
2235.012	771.5
2237.589	774.16667
2240.164	771.83333
2242.738	755.83333
2245.309	741.5
2247.879	741.16667
2250.448	753.5
2253.014	719.16667
2255.579	695.5
2258.142	703.5
2260.703	703.16667
2263.262	695.16667
2265.82	690.5
2268.376	696.5
2270.93	677.5
2273.483	669.5
2276.033	680.5
2278.583	666.5
2281.13	675.5
2283.675	661.16667
2286.219	660.16667
2288.761	669.83333
2291.302	663.16667
2293.841	659.5
2296.377	644.83333
2298.913	649.5
2301.446	656.5
2303.978	647.83333
2306.508	639.16667
2309.037	639.5
2311.563	650.83333
2314.088	641.83333
2316.612	628.16667
2319.133	628.16667
2321.653	628.83333
2324.171	625.83333
2326.688	638.16667
2329.202	618.83333
2331.715	632.83333
2334.227	617.16667
2336.736	622.16667
2339.244	612.5
2341.751	608.83333
2344.255	625.16667
2346.758	606.83333
2349.259	604.5
2351.759	607.83333
2354.257	586.16667
2356.753	596.83333
2359.247	589.5
2361.74	609.5
2364.231	593.83333
2366.721	604.5
2369.209	585.16667
2371.695	590.16667
2374.179	587.5
2376.662	590.5
2379.143	612.16667
2381.622	585.16667
2384.1	579.5
2386.576	584.83333
2389.051	591.5
2391.524	605.16667
2393.995	597.16667
2396.464	579.16667
2398.932	575.5
2401.398	585.83333
2403.863	567.83333
2406.325	556.16667
2408.787	565.16667
2411.246	577.83333
2413.704	557.16667
2416.16	556.83333
2418.615	570.16667
2421.068	574.83333
2423.519	555.5
2425.969	554.83333
2428.417	567.16667
2430.863	580.83333
2433.308	567.5
2435.751	561.83333
2438.193	557.16667
2440.633	553.5
2443.071	555.16667
2445.508	536.83333
2447.943	548.83333
2450.376	538.5
2452.808	541.16667
2455.238	525.5
2457.667	562.83333
2460.093	543.5
2462.519	534.5
2464.942	532.83333
2467.365	554.5
2469.785	539.83333
2472.204	539.5
2474.621	526.83333
2477.037	550.16667
2479.451	518.5
2481.863	530.5
2484.274	517.5
2486.683	531.16667
2489.091	522.16667
2491.497	525.5
2493.901	519.83333
2496.304	513.5
2498.705	522.16667
2501.105	520.5
2503.503	543.83333
2505.899	505.83333
2508.294	534.5
2510.687	502.5
2513.079	511.83333
2515.469	501.16667
2517.858	498.16667
2520.245	519.16667
2522.63	502.83333
2525.014	501.16667
2527.396	488.83333
2529.776	497.16667
2532.156	504.83333
2534.533	489.5
2536.909	488.83333
2539.283	484.83333
2541.656	490.83333
2544.027	511.83333
2546.397	489.16667
2548.765	496.83333
2551.131	491.83333
2553.496	487.16667
2555.86	498.5
2558.221	492.83333
2560.582	492.5
2562.94	474.5
2565.298	479.83333
2567.653	496.5
2570.007	468.5
2572.36	490.5
2574.711	476.16667
2577.06	493.16667
2579.408	482.83333
2581.754	476.83333
2584.099	481.16667
2586.442	478.5
2588.784	477.5
2591.124	474.5
2593.463	470.83333
2595.8	473.5
2598.135	464.16667
2600.469	471.83333
2602.802	491.5
2605.133	483.5
2607.462	470.5
2609.79	460.5
2612.116	475.5
2614.441	471.83333
2616.764	471.83333
2619.086	474.16667
2621.406	458.5
2623.725	479.16667
2626.042	469.83333
2628.358	469.16667
2630.672	477.83333
2632.985	484.16667
2635.296	471.5
2637.606	466.16667
2639.914	457.83333
2642.22	478.16667
2644.525	472.16667
2646.829	471.5
2649.131	483.16667
2651.432	476.83333
2653.731	477.16667
2656.028	477.83333
2658.324	473.5
2660.619	469.5
2662.912	485.83333
2665.204	466.16667
2667.494	488.16667
2669.782	474.16667
2672.07	479.5
2674.355	483.16667
2676.639	471.5
2678.922	467.83333
2681.203	481.83333
2683.483	470.83333
2685.761	463.5
2688.038	483.83333
2690.313	494.83333
2692.587	475.16667
2694.859	473.5
2697.13	478.5
2699.399	480.16667
2701.667	478.5
2703.933	487.5
2706.198	487.83333
2708.461	503.16667
2710.723	503.16667
2712.984	496.16667
2715.243	511.16667
2717.5	498.16667
2719.757	512.5
2722.011	505.5
2724.264	518.5
2726.516	530.16667
2728.766	514.16667
2731.015	514.16667
2733.262	517.5
2735.508	505.16667
2737.753	502.5
2739.996	495.5
2742.237	488.83333
2744.477	497.83333
2746.716	499.83333
2748.953	481.83333
2751.189	503.16667
2753.423	477.5
2755.656	486.16667
2757.887	467.83333
2760.117	476.83333
2762.346	475.83333
2764.573	463.5
2766.798	467.5
2769.022	473.5
2771.245	479.83333
2773.467	473.83333
2775.686	478.5
2777.905	489.5
2780.122	481.5
2782.337	484.5
2784.552	480.83333
2786.764	495.16667
2788.976	497.5
2791.186	509.83333
2793.394	499.83333
2795.601	521.5
2797.807	517.16667
2800.011	538.83333
2802.214	538.16667
2804.415	553.16667
2806.615	548.16667
2808.814	546.16667
2811.011	554.16667
2813.206	557.5
2815.401	576.16667
2817.594	591.16667
2819.785	608.83333
2821.975	592.83333
2824.164	611.5
2826.351	628.16667
2828.537	655.5
2830.722	678.5
2832.905	681.83333
2835.086	722.5
2837.267	762.5
2839.445	791.83333
2841.623	816.83333
2843.799	867.16667
2845.974	906.16667
2848.147	959.16667
2850.319	989.5
2852.489	1028.83333
2854.659	1035.5
2856.826	1070.5
2858.993	1088.16667
2861.158	1078.16667
2863.321	1077.5
2865.483	1085.5
2867.644	1107.16667
2869.804	1103.16667
2871.962	1109.5
2874.118	1098.5
2876.274	1092.5
2878.428	1078.16667
2880.58	1087.5
2882.731	1072.16667
2884.881	1078.5
2887.03	1090.5
2889.177	1081.83333
2891.322	1093.5
2893.467	1096.83333
2895.61	1104.83333
2897.751	1132.5
2899.892	1123.16667
2902.03	1123.83333
2904.168	1140.5
2906.304	1151.16667
2908.439	1161.16667
2910.572	1140.16667
2912.704	1177.16667
2914.835	1166.83333
2916.965	1159.83333
2919.093	1179.16667
2921.219	1131.83333
2923.345	1164.5
2925.469	1129.16667
2927.591	1129.16667
2929.712	1079.83333
2931.832	1092.83333
2933.951	1051.16667
2936.068	1015.83333
2938.184	983.83333
2940.299	957.16667
2942.412	917.83333
2944.524	872.83333
2946.634	852.5
2948.744	797.83333
2950.851	816.5
2952.958	761.5
2955.063	740.5
2957.167	724.16667
2959.269	691.83333
2961.371	710.16667
2963.471	658.5
2965.569	658.5
2967.666	625.83333
2969.762	606.16667
2971.857	590.83333
2973.95	565.83333
2976.042	563.83333
2978.133	538.83333
2980.222	518.5
2982.31	496.5
2984.396	474.83333
2986.482	477.16667
2988.566	479.16667
2990.648	459.16667
2992.73	463.83333
2994.81	439.83333
2996.889	447.83333
2998.966	438.16667
3001.042	438.83333
3003.117	418.5
3005.191	429.16667
3007.263	422.5
3009.334	412.83333
3011.403	410.16667
3013.472	390.5
3015.539	394.16667
3017.604	405.16667
3019.669	366.5
3021.732	360.83333
3023.794	359.5
3025.854	349.16667
3027.914	347.83333
3029.971	357.5
3032.028	346.16667
3034.083	354.83333
3036.137	337.5
3038.19	331.83333
3040.242	324.5
3042.292	320.5
3044.341	310.16667
3046.388	329.83333
3048.435	298.16667
3050.48	319.5
3052.524	316.83333
3054.566	280.83333
3056.607	302.83333
3058.647	295.16667
3060.686	278.16667
3062.723	279.16667
3064.759	263.5
3066.794	-0.83333
3068.828	0.5
3070.86	-2.83333
