-0.839	441.33333
3.438	516.66667
7.711	148.66667
11.981	54.66667
16.247	47.33333
20.509	46.33333
24.768	50
29.024	52
33.276	46
37.524	53.33333
41.769	44.66667
46.01	39
50.247	50.66667
54.481	59
58.712	69.33333
62.939	50.66667
67.162	65
71.382	60.66667
75.599	53
79.812	69
84.021	83.66667
88.227	62.33333
92.429	63
96.628	56
100.823	70.33333
105.015	79.66667
109.204	81.33333
113.388	81.33333
117.57	84
121.748	94.66667
125.922	88.33333
130.093	109.33333
134.261	113.66667
138.425	110.66667
142.585	153.66667
146.742	160.33333
150.896	187
155.046	227.66667
159.193	357.66667
163.336	617
167.476	1133.33333
171.613	2102.66667
175.746	3525
179.875	5303.33333
184.002	6980
188.124	8134.33333
192.244	8541.33333
196.36	8516.33333
200.472	8308.33333
204.581	8078.33333
208.687	7901.66667
212.79	7861.66667
216.889	7896
220.984	7946.66667
225.077	8050.33333
229.165	8193.66667
233.251	8282.33333
237.333	8363.33333
241.412	8322
245.487	8315.33333
249.559	8237
253.628	8158
257.694	8036.33333
261.756	7997.66667
265.814	7803
269.87	7599.33333
273.922	7367
277.97	7181.66667
282.016	7022.33333
286.058	6925.66667
290.097	6960.33333
294.132	6933
298.164	6855.33333
302.193	6544.33333
306.219	6055.66667
310.241	5558
314.26	5019.33333
318.276	4628.33333
322.288	4314.33333
326.297	4089
330.303	3886
334.305	3748.33333
338.305	3677
342.301	3636
346.294	3579.66667
350.283	3557.33333
354.269	3522.66667
358.252	3511.33333
362.232	3471.66667
366.209	3457.66667
370.182	3422.33333
374.152	3393.33333
378.119	3395.33333
382.083	3390.66667
386.043	3434.33333
390	3367.66667
393.954	3356
397.905	3326.33333
401.852	3289.33333
405.797	3233.33333
409.738	3190.33333
413.676	3205
417.61	3190.33333
421.542	3133.33333
425.47	3096
429.396	3069.33333
433.318	3059.66667
437.236	3033.33333
441.152	3042.33333
445.065	2992.66667
448.974	2962.33333
452.88	2934.33333
456.783	2922
460.683	2899.33333
464.58	2895
468.473	2876.66667
472.364	2895.33333
476.251	2929.33333
480.135	2947
484.016	2970.66667
487.894	2976
491.769	2998.33333
495.641	2995.33333
499.509	3009
503.375	2976.66667
507.237	2999.33333
511.096	2981.33333
514.952	2970
518.805	2990.33333
522.655	2972.66667
526.502	2941.66667
530.346	2954.33333
534.187	2977
538.024	2971
541.859	3004
545.69	2991
549.519	2983
553.344	2954.33333
557.166	2900
560.985	2883
564.802	2877
568.615	2797
572.425	2777
576.232	2750.33333
580.036	2737
583.836	2756
587.634	2749
591.429	2746.33333
595.221	2803
599.01	2825.66667
602.796	2874.33333
606.578	2914.33333
610.358	2911
614.135	2854
617.909	2887
621.679	2861.66667
625.447	2846.33333
629.212	2871
632.973	2849.66667
636.732	2846.66667
640.488	2847.33333
644.241	2799.33333
647.991	2821.33333
651.737	2832.66667
655.481	2810.33333
659.222	2832
662.96	2828.33333
666.695	2823
670.427	2838
674.156	2818.66667
677.882	2857
681.605	2838
685.325	2819.66667
689.043	2814
692.757	2786
696.468	2792.66667
700.177	2794.33333
703.882	2815.66667
707.585	2805
711.284	2783.66667
714.981	2810
718.675	2813
722.366	2813.66667
726.054	2790.33333
729.739	2803
733.421	2812
737.1	2782.66667
740.777	2829.66667
744.45	2845
748.121	2876.66667
751.789	2910
755.453	2867.66667
759.115	2915.66667
762.774	2953.66667
766.431	2989.66667
770.084	3026
773.734	3058.66667
777.382	3095.66667
781.027	3132.33333
784.669	3157.33333
788.308	3141.66667
791.944	3180.66667
795.577	3197.66667
799.208	3226.66667
802.835	3270
806.46	3296.66667
810.082	3328.33333
813.701	3341.33333
817.317	3384.33333
820.931	3391
824.542	3351.33333
828.149	3312
831.754	3287.33333
835.357	3256.33333
838.956	3247.33333
842.553	3227
846.146	3218.33333
849.737	3215.66667
853.326	3240.33333
856.911	3214.66667
860.493	3278.33333
864.073	3284
867.65	3334
871.225	3389.66667
874.796	3395
878.365	3381
881.931	3404
885.494	3435.66667
889.054	3447
892.612	3451
896.166	3399.66667
899.719	3380.66667
903.268	3344.33333
906.814	3330
910.358	3332.33333
913.899	3302.66667
917.438	3322.33333
920.973	3293.66667
924.506	3355.33333
928.036	3379.33333
931.564	3448.66667
935.088	3454
938.61	3470
942.129	3539.66667
945.646	3584.33333
949.16	3683
952.671	3764.66667
956.179	3811.66667
959.685	3794.66667
963.188	3748
966.688	3726
970.185	3621.66667
973.68	3538
977.173	3478
980.662	3473.66667
984.149	3495.66667
987.633	3502
991.114	3530.66667
994.593	3674.66667
998.069	3750.33333
1001.542	3880.66667
1005.013	3805.66667
1008.481	3608.66667
1011.947	3555.33333
1015.409	3517.33333
1018.869	3502
1022.327	3498.33333
1025.782	3482.66667
1029.234	3489
1032.683	3449
1036.13	3329
1039.574	3226
1043.016	3106.66667
1046.455	3068
1049.891	3027
1053.325	3039.33333
1056.756	3035
1060.184	3049.33333
1063.61	3077.33333
1067.033	3085
1070.454	3094.33333
1073.872	3132
1077.287	3135
1080.7	3157.66667
1084.11	3146
1087.517	3120.66667
1090.922	3102.33333
1094.325	3045
1097.724	3020.66667
1101.122	3010.66667
1104.516	2998.66667
1107.908	3014.33333
1111.298	3087.66667
1114.684	3131.33333
1118.069	3130.33333
1121.45	3150.33333
1124.83	3151.33333
1128.206	3192.66667
1131.58	3225
1134.951	3313
1138.32	3417.66667
1141.687	3563
1145.05	3648
1148.412	3676.66667
1151.77	3680.66667
1155.126	3675.66667
1158.48	3625.66667
1161.831	3658
1165.18	3673.33333
1168.525	3740.66667
1171.869	3798
1175.21	3812
1178.548	3865.33333
1181.884	3909
1185.217	3931.33333
1188.548	4027.66667
1191.877	4054
1195.202	4139.66667
1198.526	4242.33333
1201.846	4236.33333
1205.165	4267
1208.48	4234.33333
1211.794	4215.33333
1215.104	4242.33333
1218.413	4237.66667
1221.719	4236.33333
1225.022	4198.33333
1228.323	4156.66667
1231.621	4123
1234.917	4109.66667
1238.21	4142
1241.501	4132.33333
1244.79	4111.33333
1248.076	4111.33333
1251.359	4151.66667
1254.64	4229
1257.919	4216
1261.195	4328.33333
1264.468	4398.33333
1267.74	4471
1271.008	4495.66667
1274.275	4469
1277.538	4434.66667
1280.8	4433
1284.059	4414.66667
1287.315	4494.33333
1290.569	4491
1293.821	4518.66667
1297.07	4522
1300.317	4546.66667
1303.562	4566.33333
1306.803	4499
1310.043	4442.33333
1313.28	4405
1316.515	4355.33333
1319.747	4336.33333
1322.977	4270.66667
1326.204	4230.33333
1329.429	4163.66667
1332.652	4105.33333
1335.872	4118
1339.09	4089.33333
1342.306	4086.33333
1345.519	4042.33333
1348.729	4035.66667
1351.938	4015.66667
1355.144	3980
1358.347	3882
1361.548	3917
1364.747	3919.33333
1367.944	3916
1371.138	3946.66667
1374.329	3973.66667
1377.518	4022.66667
1380.705	4077.33333
1383.89	4050.33333
1387.072	3947.33333
1390.252	3801.33333
1393.429	3658.33333
1396.605	3533.33333
1399.777	3409.33333
1402.948	3363.66667
1406.116	3355
1409.282	3375
1412.445	3369.66667
1415.606	3377.66667
1418.765	3435.33333
1421.921	3504
1425.075	3605
1428.227	3724
1431.376	3915.33333
1434.524	4056
1437.668	4140.33333
1440.811	4181.66667
1443.951	4214.66667
1447.089	4274.66667
1450.224	4215
1453.357	4187.66667
1456.488	4166.66667
1459.617	4078
1462.743	4033.33333
1465.867	3983.66667
1468.989	3872
1472.108	3830.66667
1475.225	3760.66667
1478.34	3725.33333
1481.453	3711
1484.563	3732.33333
1487.671	3767.33333
1490.776	3850.33333
1493.88	3925
1496.981	3999
1500.08	4076.66667
1503.176	4145.33333
1506.271	4249.33333
1509.363	4305.66667
1512.452	4358
1515.54	4431.33333
1518.625	4522.66667
1521.708	4667
1524.789	4934.66667
1527.867	5190.33333
1530.944	5528.33333
1534.018	5762.66667
1537.089	5887.66667
1540.159	5839.33333
1543.226	5740.33333
1546.291	5508.66667
1549.354	5295.33333
1552.415	5176
1555.473	5054
1558.529	4938.66667
1561.583	4887.66667
1564.634	4860.66667
1567.684	4851.33333
1570.731	4863.66667
1573.776	4915.33333
1576.819	4980
1579.859	5003.66667
1582.898	5079.66667
1585.934	5098
1588.968	5074
1591.999	5088.66667
1595.029	5110.33333
1598.056	5130.33333
1601.081	5131.33333
1604.104	5138
1607.125	5095.66667
1610.144	4967.33333
1613.16	4886.66667
1616.174	4750
1619.186	4680.66667
1622.196	4557.66667
1625.203	4455
1628.209	4402.33333
1631.212	4385
1634.213	4345.33333
1637.212	4327.33333
1640.209	4261.33333
1643.203	4171
1646.196	4039.66667
1649.186	3874.33333
1652.174	3764.33333
1655.16	3670.33333
1658.144	3551.66667
1661.125	3397.66667
1664.105	3223.33333
1667.082	3075.33333
1670.057	2901
1673.03	2739
1676.001	2559.33333
1678.97	2369.66667
1681.937	2235.66667
1684.901	2100.66667
1687.863	2042.33333
1690.824	1942.33333
1693.782	1902
1696.738	1824.66667
1699.692	1795.66667
1702.643	1755.33333
1705.593	1735
1708.54	1715
1711.486	1690
1714.429	1661
1717.37	1623.66667
1720.309	1619
1723.246	1627
1726.181	1566
1729.113	1596.66667
1732.044	1563.33333
1734.972	1544.66667
1737.899	1530.33333
1740.823	1528
1743.745	1528.33333
1746.665	1475.33333
1749.583	1472.33333
1752.499	1438.33333
1755.413	1432.66667
1758.325	1400.66667
1761.235	1387.33333
1764.142	1361
1767.048	1354.66667
1769.951	1346.33333
1772.852	1327
1775.752	1328.33333
1778.649	1309.66667
1781.544	1315.66667
1784.437	1291.66667
1787.328	1310
1790.217	1286
1793.104	1271.66667
1795.989	1251.66667
1798.872	1235.33333
1801.753	1262
1804.631	1278.66667
1807.508	1257
1810.383	1246
1813.255	1245
1816.126	1253.33333
1818.994	1224
1821.861	1227.66667
1824.725	1217
1827.587	1211.66667
1830.448	1202.66667
1833.306	1187.66667
1836.162	1207.33333
1839.017	1189
1841.869	1180.66667
1844.719	1186
1847.567	1152
1850.414	1168.33333
1853.258	1166
1856.1	1174.66667
1858.94	1172.33333
1861.778	1159
1864.614	1164.66667
1867.448	1168.66667
1870.28	1150.66667
1873.111	1175.33333
1875.939	1176.33333
1878.765	1179.33333
1881.589	1164
1884.411	1142.33333
1887.231	1157
1890.049	1149.33333
1892.865	1142
1895.68	1129
1898.492	1117
1901.302	1112.66667
1904.11	1116.33333
1906.916	1111.66667
1909.721	1114
1912.523	1104.33333
1915.323	1088
1918.122	1099.66667
1920.918	1095.66667
1923.712	1077
1926.505	1090.66667
1929.295	1077.66667
1932.084	1096.33333
1934.87	1083.66667
1937.655	1066.33333
1940.438	1072.66667
1943.218	1067.33333
1945.997	1100.33333
1948.774	1086.33333
1951.549	1069.66667
1954.322	1059
1957.093	1085.33333
1959.862	1063
1962.629	1069
1965.394	1061.33333
1968.157	1044.66667
1970.918	1061.33333
1973.678	1030.66667
1976.435	1047.66667
1979.19	1031.33333
1981.944	1034.66667
1984.696	1019
1987.445	1015
1990.193	1015.33333
1992.939	1037.66667
1995.683	1020.33333
1998.425	1001.33333
2001.165	1039.33333
2003.903	1013.33333
2006.639	1009.33333
2009.374	1019.66667
2012.106	1003.66667
2014.837	993.33333
2017.566	1009
2020.292	1007.33333
2023.017	1009.66667
2025.74	996.66667
2028.461	986.66667
2031.18	997.33333
2033.898	994
2036.613	981.66667
2039.327	989
2042.038	971.33333
2044.748	973.66667
2047.456	980.33333
2050.162	962.33333
2052.866	970.66667
2055.568	983
2058.268	956.33333
2060.967	977
2063.663	954
2066.358	965
2069.051	963.33333
2071.742	960.33333
2074.431	965.33333
2077.118	948.66667
2079.804	945
2082.487	954.66667
2085.169	978
2087.849	975.33333
2090.527	961.33333
2093.203	976.33333
2095.877	983.33333
2098.55	977.33333
2101.22	1000.66667
2103.889	1009.66667
2106.556	1010
2109.221	1030.66667
2111.884	1055.66667
2114.546	1137.66667
2117.205	1201
2119.863	1304.66667
2122.519	1380
2125.173	1511
2127.825	1604.66667
2130.475	1625.33333
2133.124	1595
2135.771	1556.33333
2138.416	1492.33333
2141.059	1405
2143.7	1355.66667
2146.339	1250.66667
2148.977	1191.33333
2151.613	1170.33333
2154.247	1135.66667
2156.879	1105.66667
2159.51	1088.66667
2162.138	1072.33333
2164.765	1079.66667
2167.39	1067.66667
2170.013	1075.33333
2172.634	1076
2175.254	1050
2177.872	1066
2180.488	1023.33333
2183.102	1040
2185.714	1014
2188.325	998.66667
2190.934	991.33333
2193.541	975.33333
2196.146	951.66667
2198.75	932
2201.351	914.33333
2203.951	905.66667
2206.549	900
2209.146	877.33333
2211.74	883
2214.333	883.66667
2216.924	856.33333
2219.514	866.33333
2222.101	856
2224.687	862
2227.271	839.33333
2229.853	830.33333
2232.433	810.33333
2235.012	843.66667
2237.589	837
2240.164	847.33333
2242.738	840.66667
2245.309	816.66667
2247.879	832.33333
2250.448	823
2253.014	786.66667
2255.579	779.33333
2258.142	782.33333
2260.703	758
2263.262	764
2265.82	760.33333
2268.376	764.33333
2270.93	755
2273.483	743.33333
2276.033	750.33333
2278.583	741
2281.13	725
2283.675	737
2286.219	741.33333
2288.761	728
2291.302	741.33333
2293.841	746.33333
2296.377	710
2298.913	714.66667
2301.446	733.66667
2303.978	710.66667
2306.508	715.66667
2309.037	712.66667
2311.563	717.66667
2314.088	716.66667
2316.612	690
2319.133	703.66667
2321.653	700.66667
2324.171	687
2326.688	696.33333
2329.202	681.33333
2331.715	696.66667
2334.227	695
2336.736	677
2339.244	683.33333
2341.751	659
2344.255	673
2346.758	665.33333
2349.259	668.33333
2351.759	657.66667
2354.257	652
2356.753	652
2359.247	660.66667
2361.74	665.66667
2364.231	660.33333
2366.721	666.33333
2369.209	646.66667
2371.695	656.66667
2374.179	642.33333
2376.662	657
2379.143	657
2381.622	649.33333
2384.1	644
2386.576	638
2389.051	652
2391.524	658.66667
2393.995	644.33333
2396.464	637
2398.932	627
2401.398	644.33333
2403.863	622.66667
2406.325	631.33333
2408.787	619.33333
2411.246	626.66667
2413.704	623.66667
2416.16	621.66667
2418.615	618
2421.068	631
2423.519	618.66667
2425.969	617
2428.417	619.66667
2430.863	642.66667
2433.308	635.66667
2435.751	612.33333
2438.193	607.33333
2440.633	614.66667
2443.071	622.33333
2445.508	596.66667
2447.943	592.66667
2450.376	595
2452.808	597.66667
2455.238	588.33333
2457.667	625.33333
2460.093	600
2462.519	582
2464.942	588
2467.365	589.66667
2469.785	588.66667
2472.204	580.66667
2474.621	577.66667
2477.037	596
2479.451	573.66667
2481.863	580
2484.274	573
2486.683	576.33333
2489.091	583.66667
2491.497	588.33333
2493.901	573.33333
2496.304	568
2498.705	574
2501.105	557.66667
2503.503	606
2505.899	564
2508.294	582
2510.687	558.33333
2513.079	551.66667
2515.469	551.33333
2517.858	555.33333
2520.245	562.33333
2522.63	557
2525.014	544.33333
2527.396	553.33333
2529.776	540.33333
2532.156	555.66667
2534.533	537.33333
2536.909	543.33333
2539.283	537
2541.656	537.33333
2544.027	565
2546.397	556.33333
2548.765	550.66667
2551.131	538.66667
2553.496	543
2555.86	549
2558.221	545
2560.582	527.33333
2562.94	519.33333
2565.298	530.66667
2567.653	540.66667
2570.007	515
2572.36	544.66667
2574.711	524.33333
2577.06	549.33333
2579.408	534.66667
2581.754	531
2584.099	536.66667
2586.442	530.66667
2588.784	530.66667
2591.124	534.33333
2593.463	519.33333
2595.8	520.33333
2598.135	506.33333
2600.469	517
2602.802	536.66667
2605.133	530.33333
2607.462	517.66667
2609.79	510
2612.116	521
2614.441	516.66667
2616.764	526
2619.086	515.66667
2621.406	517
2623.725	535
2626.042	524.33333
2628.358	514.33333
2630.672	507.66667
2632.985	530
2635.296	524.66667
2637.606	523
2639.914	508.33333
2642.22	518.66667
2644.525	518.33333
2646.829	521.66667
2649.131	522.33333
2651.432	526.66667
2653.731	507.66667
2656.028	530.33333
2658.324	527.66667
2660.619	519.66667
2662.912	536
2665.204	508.33333
2667.494	526.66667
2669.782	517.66667
2672.07	529.33333
2674.355	530.33333
2676.639	517
2678.922	511.33333
2681.203	522.66667
2683.483	518.66667
2685.761	511
2688.038	528.66667
2690.313	528.66667
2692.587	528.33333
2694.859	521.33333
2697.13	521.33333
2699.399	526.33333
2701.667	533.66667
2703.933	549.66667
2706.198	533.66667
2708.461	553.66667
2710.723	552.33333
2712.984	545.33333
2715.243	560.33333
2717.5	555.33333
2719.757	565.66667
2722.011	554
2724.264	573.66667
2726.516	588.66667
2728.766	564.66667
2731.015	568
2733.262	567
2735.508	561
2737.753	556.66667
2739.996	540.33333
2742.237	543.66667
2744.477	547
2746.716	554.66667
2748.953	538.33333
2751.189	545
2753.423	525.33333
2755.656	528
2757.887	525.66667
2760.117	525.33333
2762.346	517
2764.573	510.33333
2766.798	514
2769.022	520
2771.245	529
2773.467	525.66667
2775.686	537
2777.905	542.33333
2780.122	540.33333
2782.337	539
2784.552	528.66667
2786.764	547
2788.976	548
2791.186	556.33333
2793.394	557
2795.601	574
2797.807	582
2800.011	589.33333
2802.214	597.33333
2804.415	599
2806.615	611
2808.814	619
2811.011	630.33333
2813.206	617
2815.401	641.66667
2817.594	653
2819.785	669.66667
2821.975	661.66667
2824.164	686
2826.351	700.33333
2828.537	722.33333
2830.722	739.66667
2832.905	747
2835.086	785
2837.267	814.33333
2839.445	861.33333
2841.623	887.33333
2843.799	925.66667
2845.974	977.33333
2848.147	1034.33333
2850.319	1061.66667
2852.489	1101.33333
2854.659	1098
2856.826	1133
2858.993	1159
2861.158	1147.66667
2863.321	1153.66667
2865.483	1166
2867.644	1165.66667
2869.804	1178.66667
2871.962	1167.33333
2874.118	1173
2876.274	1150.33333
2878.428	1152
2880.58	1154.33333
2882.731	1144.33333
2884.881	1143
2887.03	1148.33333
2889.177	1150.33333
2891.322	1158
2893.467	1145.66667
2895.61	1163.33333
2897.751	1180.33333
2899.892	1188.33333
2902.03	1204.66667
2904.168	1206
2906.304	1213
2908.439	1237
2910.572	1213.66667
2912.704	1232
2914.835	1238.66667
2916.965	1227.33333
2919.093	1235
2921.219	1188.33333
2923.345	1211.33333
2925.469	1193.66667
2927.591	1168.66667
2929.712	1135.66667
2931.832	1129
2933.951	1103.33333
2936.068	1070
2938.184	1035
2940.299	997.66667
2942.412	958
2944.524	927.33333
2946.634	888.66667
2948.744	837.33333
2950.851	842
2952.958	792.33333
2955.063	786.66667
2957.167	759.66667
2959.269	720
2961.371	735.33333
2963.471	695
2965.569	678
2967.666	641.66667
2969.762	627.33333
2971.857	603.66667
2973.95	593
2976.042	592.33333
2978.133	572
2980.222	553.33333
2982.31	520
2984.396	502.33333
2986.482	505
2988.566	500
2990.648	494.33333
2992.73	479.33333
2994.81	469.66667
2996.889	461
2998.966	453
3001.042	453.33333
3003.117	460.33333
3005.191	443
3007.263	432.33333
3009.334	431
3011.403	428.66667
3013.472	404
3015.539	410.33333
3017.604	416.33333
3019.669	380.66667
3021.732	382.66667
3023.794	382.66667
3025.854	373
3027.914	357
3029.971	372
3032.028	367.33333
3034.083	361
3036.137	355.33333
3038.19	346.33333
3040.242	337
3042.292	327.33333
3044.341	317.66667
3046.388	345.33333
3048.435	312.33333
3050.48	337.33333
3052.524	331
3054.566	303.33333
3056.607	324
3058.647	308.33333
3060.686	296.33333
3062.723	282
3064.759	273
3066.794	-0.33333
3068.828	-1.66667
3070.86	-3.66667
