-0.839	403.25
3.438	453.58333
7.711	139.25
11.981	56.25
16.247	47.25
20.509	50.25
24.768	47.91667
29.024	48.91667
33.276	45.58333
37.524	56.91667
41.769	48.25
46.01	41.58333
50.247	54.25
54.481	65.25
58.712	71.58333
62.939	51.91667
67.162	69.25
71.382	62.58333
75.599	53.58333
79.812	70.58333
84.021	86.91667
88.227	66.25
92.429	68.91667
96.628	54.91667
100.823	78.25
105.015	82.91667
109.204	87.91667
113.388	87.25
117.57	83.91667
121.748	99.58333
125.922	89.25
130.093	111.91667
134.261	121.91667
138.425	116.91667
142.585	161.25
146.742	160.58333
150.896	188.25
155.046	234.91667
159.193	365.25
163.336	621.91667
167.476	1135.25
171.613	2129.91667
175.746	3577.91667
179.875	5401.91667
184.002	7155.25
188.124	8445.25
192.244	8922.58333
196.36	8963.25
200.472	8858.58333
204.581	8675.25
208.687	8568.91667
212.79	8579.58333
216.889	8696.91667
220.984	8866.25
225.077	9056.58333
229.165	9192.91667
233.251	9389.58333
237.333	9500.58333
241.412	9588.58333
245.487	9545.58333
249.559	9486.91667
253.628	9358.58333
257.694	9274.58333
261.756	9161.25
265.814	8963.58333
269.87	8641.25
273.922	8320.91667
277.97	8101.58333
282.016	7906.91667
286.058	7750.25
290.097	7746.58333
294.132	7675.25
298.164	7517.25
302.193	7182.91667
306.219	6669.58333
310.241	6088.58333
314.26	5535.58333
318.276	5123.58333
322.288	4804.58333
326.297	4553.25
330.303	4376.91667
334.305	4251.91667
338.305	4148.91667
342.301	4113.58333
346.294	4090.25
350.283	4032.91667
354.269	4003.25
358.252	3978.58333
362.232	3964.25
366.209	3927.91667
370.182	3904.91667
374.152	3892.25
378.119	3885.25
382.083	3884.91667
386.043	3928.91667
390	3873.91667
393.954	3832.25
397.905	3811.58333
401.852	3782.58333
405.797	3745.91667
409.738	3666.58333
413.676	3668.25
417.61	3625.58333
421.542	3589.25
425.47	3549.91667
429.396	3540.91667
433.318	3500.91667
437.236	3465.91667
441.152	3481.91667
445.065	3414.91667
448.974	3414.91667
452.88	3363.91667
456.783	3391.58333
460.683	3379.25
464.58	3380.91667
468.473	3395.25
472.364	3380.91667
476.251	3406.58333
480.135	3406.58333
484.016	3458.58333
487.894	3460.58333
491.769	3468.25
495.641	3494.58333
499.509	3483.25
503.375	3478.91667
507.237	3496.25
511.096	3461.58333
514.952	3475.25
518.805	3515.25
522.655	3508.25
526.502	3434.25
530.346	3416.91667
534.187	3410.91667
538.024	3421.25
541.859	3414.58333
545.69	3435.58333
549.519	3408.91667
553.344	3405.58333
557.166	3355.58333
560.985	3334.25
564.802	3306.25
568.615	3225.58333
572.425	3211.25
576.232	3204.91667
580.036	3178.25
583.836	3164.91667
587.634	3182.58333
591.429	3142.58333
595.221	3234.25
599.01	3262.58333
602.796	3303.25
606.578	3336.58333
610.358	3323.25
614.135	3311.25
617.909	3310.25
621.679	3316.91667
625.447	3280.25
629.212	3311.25
632.973	3288.58333
636.732	3261.25
640.488	3284.58333
644.241	3246.91667
647.991	3259.25
651.737	3258.91667
655.481	3227.25
659.222	3255.25
662.96	3243.91667
666.695	3267.91667
670.427	3252.58333
674.156	3256.25
677.882	3261.25
681.605	3248.25
685.325	3228.25
689.043	3221.91667
692.757	3228.91667
696.468	3234.91667
700.177	3258.58333
703.882	3232.91667
707.585	3232.25
711.284	3247.25
714.981	3234.58333
718.675	3280.91667
722.366	3277.58333
726.054	3244.58333
729.739	3239.91667
733.421	3248.58333
737.1	3246.58333
740.777	3271.25
744.45	3292.91667
748.121	3303.91667
751.789	3359.25
755.453	3356.25
759.115	3396.58333
762.774	3431.91667
766.431	3436.91667
770.084	3521.91667
773.734	3534.91667
777.382	3590.58333
781.027	3611.91667
784.669	3661.91667
788.308	3637.58333
791.944	3670.91667
795.577	3702.58333
799.208	3741.91667
802.835	3748.91667
806.46	3772.91667
810.082	3847.58333
813.701	3849.91667
817.317	3886.25
820.931	3885.91667
824.542	3854.58333
828.149	3842.58333
831.754	3787.58333
835.357	3768.58333
838.956	3753.58333
842.553	3748.91667
846.146	3708.58333
849.737	3703.25
853.326	3697.91667
856.911	3704.58333
860.493	3758.58333
864.073	3792.25
867.65	3857.58333
871.225	3881.25
874.796	3912.25
878.365	3895.91667
881.931	3941.25
885.494	3943.91667
889.054	3958.91667
892.612	3964.91667
896.166	3931.25
899.719	3893.91667
903.268	3858.91667
906.814	3833.58333
910.358	3821.58333
913.899	3816.25
917.438	3797.25
920.973	3791.91667
924.506	3832.91667
928.036	3891.58333
931.564	3921.58333
935.088	3969.58333
938.61	3989.91667
942.129	4016.25
945.646	4115.91667
949.16	4177.91667
952.671	4258.91667
956.179	4307.58333
959.685	4301.25
963.188	4281.25
966.688	4259.25
970.185	4148.25
973.68	4049.91667
977.173	4050.58333
980.662	4036.91667
984.149	4065.91667
987.633	4063.58333
991.114	4139.25
994.593	4267.25
998.069	4377.58333
1001.542	4509.25
1005.013	4406.91667
1008.481	4176.91667
1011.947	4094.25
1015.409	4088.25
1018.869	4059.58333
1022.327	4042.25
1025.782	4035.91667
1029.234	4037.25
1032.683	4001.25
1036.13	3858.25
1039.574	3696.91667
1043.016	3636.25
1046.455	3547.25
1049.891	3508.58333
1053.325	3498.91667
1056.756	3506.58333
1060.184	3541.25
1063.61	3548.25
1067.033	3562.58333
1070.454	3558.91667
1073.872	3605.91667
1077.287	3623.91667
1080.7	3625.58333
1084.11	3628.58333
1087.517	3595.91667
1090.922	3560.58333
1094.325	3518.25
1097.724	3449.25
1101.122	3473.25
1104.516	3431.25
1107.908	3473.91667
1111.298	3523.25
1114.684	3559.91667
1118.069	3593.58333
1121.45	3599.91667
1124.83	3598.58333
1128.206	3597.58333
1131.58	3647.58333
1134.951	3749.91667
1138.32	3862.91667
1141.687	4006.91667
1145.05	4074.25
1148.412	4123.25
1151.77	4145.25
1155.126	4113.25
1158.48	4132.58333
1161.831	4140.58333
1165.18	4178.25
1168.525	4259.58333
1171.869	4306.91667
1175.21	4356.58333
1178.548	4408.91667
1181.884	4478.58333
1185.217	4511.25
1188.548	4585.58333
1191.877	4619.91667
1195.202	4719.91667
1198.526	4769.58333
1201.846	4790.91667
1205.165	4775.25
1208.48	4769.91667
1211.794	4770.25
1215.104	4765.91667
1218.413	4768.91667
1221.719	4768.58333
1225.022	4726.91667
1228.323	4675.91667
1231.621	4665.91667
1234.917	4637.58333
1238.21	4708.25
1241.501	4682.25
1244.79	4652.91667
1248.076	4698.91667
1251.359	4750.91667
1254.64	4845.25
1257.919	4862.91667
1261.195	4927.58333
1264.468	4999.91667
1267.74	5101.91667
1271.008	5079.58333
1274.275	5022.91667
1277.538	5005.25
1280.8	4977.91667
1284.059	4987.58333
1287.315	5010.91667
1290.569	5049.25
1293.821	5075.58333
1297.07	5074.58333
1300.317	5120.58333
1303.562	5077.58333
1306.803	5036.58333
1310.043	5014.25
1313.28	4967.25
1316.515	4891.58333
1319.747	4859.91667
1322.977	4822.91667
1326.204	4735.91667
1329.429	4671.25
1332.652	4654.91667
1335.872	4649.25
1339.09	4626.25
1342.306	4651.58333
1345.519	4614.91667
1348.729	4588.58333
1351.938	4583.25
1355.144	4547.58333
1358.347	4472.58333
1361.548	4451.25
1364.747	4433.25
1367.944	4444.25
1371.138	4432.25
1374.329	4459.25
1377.518	4513.25
1380.705	4556.91667
1383.89	4511.58333
1387.072	4398.25
1390.252	4242.91667
1393.429	4102.58333
1396.605	3975.25
1399.777	3859.25
1402.948	3837.91667
1406.116	3804.58333
1409.282	3824.58333
1412.445	3794.58333
1415.606	3838.91667
1418.765	3901.91667
1421.921	3975.91667
1425.075	4082.58333
1428.227	4221.91667
1431.376	4382.25
1434.524	4547.58333
1437.668	4634.25
1440.811	4688.91667
1443.951	4728.91667
1447.089	4726.25
1450.224	4739.91667
1453.357	4712.58333
1456.488	4681.91667
1459.617	4583.25
1462.743	4537.25
1465.867	4417.91667
1468.989	4401.25
1472.108	4301.25
1475.225	4228.58333
1478.34	4191.58333
1481.453	4170.58333
1484.563	4162.58333
1487.671	4210.25
1490.776	4274.25
1493.88	4368.91667
1496.981	4448.58333
1500.08	4542.91667
1503.176	4594.58333
1506.271	4699.25
1509.363	4758.91667
1512.452	4827.25
1515.54	4927.58333
1518.625	5045.25
1521.708	5260.91667
1524.789	5507.58333
1527.867	5849.25
1530.944	6269.58333
1534.018	6583.58333
1537.089	6719.58333
1540.159	6679.58333
1543.226	6549.91667
1546.291	6328.58333
1549.354	6079.58333
1552.415	5895.58333
1555.473	5714.58333
1558.529	5576.58333
1561.583	5547.91667
1564.634	5500.25
1567.684	5467.91667
1570.731	5470.58333
1573.776	5508.91667
1576.819	5574.25
1579.859	5609.91667
1582.898	5707.25
1585.934	5729.91667
1588.968	5704.91667
1591.999	5734.25
1595.029	5704.91667
1598.056	5718.58333
1601.081	5737.58333
1604.104	5745.91667
1607.125	5704.58333
1610.144	5606.91667
1613.16	5459.58333
1616.174	5347.91667
1619.186	5246.25
1622.196	5128.58333
1625.203	5038.58333
1628.209	4977.58333
1631.212	4961.91667
1634.213	4931.91667
1637.212	4921.58333
1640.209	4845.91667
1643.203	4757.58333
1646.196	4576.25
1649.186	4433.25
1652.174	4293.91667
1655.16	4133.25
1658.144	4035.58333
1661.125	3826.58333
1664.105	3688.25
1667.082	3497.25
1670.057	3284.25
1673.03	3112.25
1676.001	2904.58333
1678.97	2687.58333
1681.937	2544.58333
1684.901	2402.91667
1687.863	2327.58333
1690.824	2231.25
1693.782	2191.25
1696.738	2081.25
1699.692	2067.25
1702.643	2018.25
1705.593	1980.58333
1708.54	1962.25
1711.486	1951.91667
1714.429	1899.25
1717.37	1874.25
1720.309	1861.91667
1723.246	1854.91667
1726.181	1812.25
1729.113	1808.91667
1732.044	1783.25
1734.972	1774.58333
1737.899	1763.25
1740.823	1755.58333
1743.745	1775.58333
1746.665	1697.25
1749.583	1667.91667
1752.499	1634.25
1755.413	1628.25
1758.325	1596.58333
1761.235	1586.58333
1764.142	1560.58333
1767.048	1559.58333
1769.951	1539.58333
1772.852	1511.25
1775.752	1513.25
1778.649	1521.58333
1781.544	1520.25
1784.437	1479.91667
1787.328	1484.25
1790.217	1470.25
1793.104	1452.25
1795.989	1451.91667
1798.872	1440.25
1801.753	1465.58333
1804.631	1440.58333
1807.508	1449.58333
1810.383	1447.58333
1813.255	1446.58333
1816.126	1415.91667
1818.994	1423.25
1821.861	1403.25
1824.725	1408.25
1827.587	1387.58333
1830.448	1387.91667
1833.306	1365.25
1836.162	1383.91667
1839.017	1363.58333
1841.869	1369.58333
1844.719	1363.25
1847.567	1350.91667
1850.414	1326.91667
1853.258	1324.91667
1856.1	1355.25
1858.94	1348.91667
1861.778	1331.91667
1864.614	1326.25
1867.448	1343.91667
1870.28	1321.58333
1873.111	1342.58333
1875.939	1335.58333
1878.765	1341.58333
1881.589	1319.25
1884.411	1321.58333
1887.231	1325.91667
1890.049	1325.58333
1892.865	1313.58333
1895.68	1312.91667
1898.492	1305.25
1901.302	1282.91667
1904.11	1288.58333
1906.916	1261.91667
1909.721	1269.91667
1912.523	1269.91667
1915.323	1244.25
1918.122	1261.91667
1920.918	1249.25
1923.712	1241.25
1926.505	1261.25
1929.295	1232.58333
1932.084	1258.58333
1934.87	1248.58333
1937.655	1242.91667
1940.438	1237.25
1943.218	1235.25
1945.997	1238.58333
1948.774	1255.25
1951.549	1243.58333
1954.322	1225.91667
1957.093	1242.25
1959.862	1220.91667
1962.629	1221.58333
1965.394	1214.25
1968.157	1210.25
1970.918	1215.25
1973.678	1208.91667
1976.435	1202.58333
1979.19	1201.58333
1981.944	1180.91667
1984.696	1190.25
1987.445	1165.58333
1990.193	1182.25
1992.939	1188.25
1995.683	1176.58333
1998.425	1153.25
2001.165	1180.58333
2003.903	1163.25
2006.639	1154.91667
2009.374	1170.25
2012.106	1172.91667
2014.837	1157.58333
2017.566	1161.58333
2020.292	1161.91667
2023.017	1158.91667
2025.74	1141.91667
2028.461	1136.58333
2031.18	1154.91667
2033.898	1121.91667
2036.613	1145.25
2039.327	1141.91667
2042.038	1117.25
2044.748	1132.91667
2047.456	1127.91667
2050.162	1111.25
2052.866	1113.25
2055.568	1111.58333
2058.268	1107.91667
2060.967	1131.91667
2063.663	1094.58333
2066.358	1102.91667
2069.051	1107.25
2071.742	1113.58333
2074.431	1102.91667
2077.118	1109.25
2079.804	1095.91667
2082.487	1114.91667
2085.169	1123.91667
2087.849	1130.25
2090.527	1106.58333
2093.203	1135.91667
2095.877	1139.25
2098.55	1144.25
2101.22	1155.25
2103.889	1181.58333
2106.556	1178.25
2109.221	1227.91667
2111.884	1260.58333
2114.546	1345.91667
2117.205	1415.58333
2119.863	1541.58333
2122.519	1669.91667
2125.173	1805.25
2127.825	1925.91667
2130.475	1973.91667
2133.124	1940.91667
2135.771	1869.58333
2138.416	1796.58333
2141.059	1673.91667
2143.7	1600.91667
2146.339	1528.25
2148.977	1416.91667
2151.613	1405.25
2154.247	1342.25
2156.879	1320.58333
2159.51	1322.25
2162.138	1267.58333
2164.765	1288.58333
2167.39	1269.58333
2170.013	1274.25
2172.634	1268.91667
2175.254	1266.25
2177.872	1290.25
2180.488	1253.58333
2183.102	1248.58333
2185.714	1209.58333
2188.325	1183.58333
2190.934	1186.58333
2193.541	1161.91667
2196.146	1130.58333
2198.75	1103.25
2201.351	1095.25
2203.951	1055.58333
2206.549	1078.58333
2209.146	1043.91667
2211.74	1027.25
2214.333	1023.91667
2216.924	1003.25
2219.514	1004.25
2222.101	994.91667
2224.687	1002.25
2227.271	980.91667
2229.853	982.25
2232.433	952.91667
2235.012	985.91667
2237.589	996.91667
2240.164	971.91667
2242.738	975.58333
2245.309	953.25
2247.879	952.58333
2250.448	949.91667
2253.014	932.25
2255.579	903.25
2258.142	910.91667
2260.703	889.25
2263.262	891.58333
2265.82	898.25
2268.376	893.58333
2270.93	880.91667
2273.483	867.25
2276.033	878.58333
2278.583	876.91667
2281.13	870.25
2283.675	850.58333
2286.219	862.91667
2288.761	866.25
2291.302	855.58333
2293.841	850.25
2296.377	831.58333
2298.913	838.25
2301.446	847.58333
2303.978	825.25
2306.508	829.91667
2309.037	831.58333
2311.563	827.58333
2314.088	827.91667
2316.612	807.58333
2319.133	822.25
2321.653	817.25
2324.171	815.91667
2326.688	822.58333
2329.202	804.58333
2331.715	813.58333
2334.227	794.91667
2336.736	786.25
2339.244	790.58333
2341.751	783.25
2344.255	797.25
2346.758	769.91667
2349.259	776.91667
2351.759	780.58333
2354.257	765.58333
2356.753	772.91667
2359.247	782.91667
2361.74	781.25
2364.231	764.58333
2366.721	772.91667
2369.209	757.58333
2371.695	755.91667
2374.179	748.25
2376.662	758.91667
2379.143	774.58333
2381.622	764.58333
2384.1	766.25
2386.576	752.25
2389.051	763.91667
2391.524	771.25
2393.995	757.25
2396.464	747.25
2398.932	743.91667
2401.398	740.58333
2403.863	736.91667
2406.325	734.58333
2408.787	732.25
2411.246	736.91667
2413.704	726.91667
2416.16	718.91667
2418.615	729.91667
2421.068	735.25
2423.519	739.25
2425.969	727.58333
2428.417	736.58333
2430.863	749.25
2433.308	744.91667
2435.751	716.91667
2438.193	713.25
2440.633	728.25
2443.071	727.58333
2445.508	712.58333
2447.943	697.91667
2450.376	704.58333
2452.808	712.58333
2455.238	691.25
2457.667	733.91667
2460.093	700.91667
2462.519	689.58333
2464.942	702.25
2467.365	699.25
2469.785	698.58333
2472.204	691.58333
2474.621	689.58333
2477.037	708.91667
2479.451	688.58333
2481.863	678.58333
2484.274	675.25
2486.683	691.91667
2489.091	690.58333
2491.497	678.25
2493.901	677.25
2496.304	683.25
2498.705	687.25
2501.105	677.91667
2503.503	696.25
2505.899	671.25
2508.294	686.91667
2510.687	669.91667
2513.079	667.25
2515.469	661.58333
2517.858	668.58333
2520.245	689.25
2522.63	668.58333
2525.014	651.25
2527.396	646.91667
2529.776	653.25
2532.156	651.58333
2534.533	647.25
2536.909	647.91667
2539.283	641.25
2541.656	639.25
2544.027	664.58333
2546.397	649.91667
2548.765	638.58333
2551.131	643.25
2553.496	648.91667
2555.86	649.58333
2558.221	657.25
2560.582	649.58333
2562.94	626.58333
2565.298	646.25
2567.653	652.25
2570.007	624.91667
2572.36	652.25
2574.711	643.58333
2577.06	656.25
2579.408	647.58333
2581.754	641.91667
2584.099	635.91667
2586.442	633.91667
2588.784	642.91667
2591.124	637.58333
2593.463	639.58333
2595.8	629.58333
2598.135	621.25
2600.469	639.58333
2602.802	644.91667
2605.133	646.91667
2607.462	623.58333
2609.79	622.25
2612.116	636.58333
2614.441	622.25
2616.764	633.58333
2619.086	624.58333
2621.406	622.91667
2623.725	649.91667
2626.042	633.58333
2628.358	618.25
2630.672	623.91667
2632.985	631.58333
2635.296	628.25
2637.606	631.91667
2639.914	619.91667
2642.22	628.25
2644.525	620.91667
2646.829	648.91667
2649.131	654.58333
2651.432	642.91667
2653.731	639.91667
2656.028	637.58333
2658.324	638.58333
2660.619	627.58333
2662.912	639.58333
2665.204	628.25
2667.494	641.58333
2669.782	637.58333
2672.07	640.58333
2674.355	648.58333
2676.639	641.91667
2678.922	629.91667
2681.203	644.58333
2683.483	615.91667
2685.761	630.91667
2688.038	641.91667
2690.313	654.91667
2692.587	638.91667
2694.859	635.25
2697.13	643.25
2699.399	645.58333
2701.667	659.25
2703.933	658.91667
2706.198	661.25
2708.461	663.91667
2710.723	678.25
2712.984	680.25
2715.243	675.58333
2717.5	681.25
2719.757	686.25
2722.011	686.25
2724.264	689.91667
2726.516	717.58333
2728.766	687.91667
2731.015	693.58333
2733.262	689.25
2735.508	674.58333
2737.753	687.25
2739.996	670.91667
2742.237	670.58333
2744.477	688.58333
2746.716	673.58333
2748.953	667.91667
2751.189	665.25
2753.423	657.25
2755.656	648.58333
2757.887	651.58333
2760.117	652.58333
2762.346	642.25
2764.573	634.91667
2766.798	639.25
2769.022	644.91667
2771.245	651.91667
2773.467	649.58333
2775.686	650.91667
2777.905	658.25
2780.122	674.91667
2782.337	669.58333
2784.552	659.91667
2786.764	673.58333
2788.976	688.25
2791.186	686.25
2793.394	689.58333
2795.601	708.58333
2797.807	712.91667
2800.011	717.91667
2802.214	732.58333
2804.415	746.91667
2806.615	752.25
2808.814	760.58333
2811.011	765.25
2813.206	768.25
2815.401	785.91667
2817.594	810.91667
2819.785	818.58333
2821.975	804.25
2824.164	823.25
2826.351	842.91667
2828.537	874.25
2830.722	886.25
2832.905	907.91667
2835.086	930.91667
2837.267	975.91667
2839.445	1014.91667
2841.623	1043.58333
2843.799	1094.58333
2845.974	1138.25
2848.147	1194.58333
2850.319	1219.25
2852.489	1261.25
2854.659	1263.91667
2856.826	1298.58333
2858.993	1328.91667
2861.158	1311.91667
2863.321	1322.91667
2865.483	1330.25
2867.644	1345.25
2869.804	1327.25
2871.962	1331.25
2874.118	1346.25
2876.274	1335.25
2878.428	1331.25
2880.58	1313.91667
2882.731	1312.25
2884.881	1299.58333
2887.03	1300.91667
2889.177	1318.25
2891.322	1329.25
2893.467	1324.58333
2895.61	1326.91667
2897.751	1365.25
2899.892	1349.91667
2902.03	1379.58333
2904.168	1368.25
2906.304	1379.25
2908.439	1393.25
2910.572	1375.58333
2912.704	1393.25
2914.835	1394.58333
2916.965	1382.58333
2919.093	1407.91667
2921.219	1370.25
2923.345	1384.25
2925.469	1356.58333
2927.591	1342.58333
2929.712	1291.91667
2931.832	1275.58333
2933.951	1252.25
2936.068	1220.58333
2938.184	1193.25
2940.299	1150.58333
2942.412	1114.58333
2944.524	1063.91667
2946.634	1043.91667
2948.744	979.25
2950.851	1008.91667
2952.958	946.91667
2955.063	919.91667
2957.167	902.91667
2959.269	866.91667
2961.371	876.91667
2963.471	821.25
2965.569	821.58333
2967.666	786.25
2969.762	764.25
2971.857	735.91667
2973.95	724.91667
2976.042	708.25
2978.133	693.91667
2980.222	673.25
2982.31	643.58333
2984.396	633.25
2986.482	628.25
2988.566	650.25
2990.648	784.91667
2992.73	619.25
2994.81	578.91667
2996.889	593.58333
2998.966	582.25
3001.042	580.25
3003.117	573.25
3005.191	571.91667
3007.263	560.25
3009.334	545.58333
3011.403	551.25
3013.472	531.91667
3015.539	522.58333
3017.604	540.58333
3019.669	490.25
3021.732	507.58333
3023.794	506.25
3025.854	490.58333
3027.914	478.91667
3029.971	494.58333
3032.028	482.91667
3034.083	487.25
3036.137	464.91667
3038.19	450.91667
3040.242	452.91667
3042.292	437.25
3044.341	431.25
3046.388	452.58333
3048.435	406.91667
3050.48	436.25
3052.524	427.58333
3054.566	403.58333
3056.607	414.25
3058.647	399.91667
3060.686	389.91667
3062.723	369.58333
3064.759	366.91667
3066.794	-0.41667
3068.828	1.58333
3070.86	-3.75
