-0.839	439.33333
3.438	521.33333
7.711	146.33333
11.981	62.33333
16.247	50.66667
20.509	45.66667
24.768	47.33333
29.024	49.66667
33.276	49.33333
37.524	51
41.769	46.66667
46.01	41.66667
50.247	52.33333
54.481	66
58.712	71
62.939	56
67.162	67.33333
71.382	59
75.599	53.33333
79.812	66
84.021	84.33333
88.227	63.66667
92.429	67.33333
96.628	56.66667
100.823	73.66667
105.015	84
109.204	81.66667
113.388	87.33333
117.57	83
121.748	97.66667
125.922	85.66667
130.093	114
134.261	118.33333
138.425	112.33333
142.585	157.33333
146.742	158
150.896	186.66667
155.046	226.66667
159.193	365
163.336	621
167.476	1129
171.613	2114.33333
175.746	3543.66667
179.875	5326.33333
184.002	6989.66667
188.124	8203
192.244	8605.33333
196.36	8593.66667
200.472	8335.33333
204.581	8140.66667
208.687	7998
212.79	7904
216.889	7932.66667
220.984	7994
225.077	8132.33333
229.165	8232.66667
233.251	8297.66667
237.333	8357
241.412	8397
245.487	8391.66667
249.559	8276.33333
253.628	8225.33333
257.694	8113.66667
261.756	8006.33333
265.814	7868.66667
269.87	7651.66667
273.922	7371
277.97	7220.33333
282.016	7104.33333
286.058	6968
290.097	6979
294.132	6956
298.164	6869.66667
302.193	6592.66667
306.219	6113
310.241	5585.33333
314.26	5095.66667
318.276	4666
322.288	4374.33333
326.297	4118.33333
330.303	3941.66667
334.305	3809
338.305	3725.33333
342.301	3684.33333
346.294	3651.66667
350.283	3617
354.269	3565
358.252	3544.66667
362.232	3526.33333
366.209	3507.33333
370.182	3460
374.152	3453.66667
378.119	3456.66667
382.083	3458.33333
386.043	3455
390	3455.33333
393.954	3404.66667
397.905	3384
401.852	3347.33333
405.797	3294
409.738	3251.66667
413.676	3230.66667
417.61	3219.66667
421.542	3181
425.47	3172.33333
429.396	3132.33333
433.318	3090.66667
437.236	3086.66667
441.152	3090.33333
445.065	3050
448.974	3035.66667
452.88	2994
456.783	2992.66667
460.683	2954
464.58	2964.66667
468.473	2966.66667
472.364	2957.66667
476.251	2977.66667
480.135	2992.66667
484.016	3027
487.894	3061.66667
491.769	3063
495.641	3045.33333
499.509	3065.33333
503.375	3049
507.237	3046.33333
511.096	3012.66667
514.952	3047.66667
518.805	3023.66667
522.655	3020
526.502	3005.33333
530.346	2987.33333
534.187	3025.66667
538.024	3001.66667
541.859	3040.66667
545.69	3059.33333
549.519	3026.33333
553.344	3006
557.166	2981
560.985	2943.66667
564.802	2909
568.615	2853
572.425	2831
576.232	2805.33333
580.036	2787.33333
583.836	2810.33333
587.634	2797
591.429	2785.66667
595.221	2856.66667
599.01	2876
602.796	2925.66667
606.578	2951.33333
610.358	2967
614.135	2947.66667
617.909	2947
621.679	2940.66667
625.447	2894.33333
629.212	2904
632.973	2901
636.732	2901.66667
640.488	2897.33333
644.241	2869.33333
647.991	2834.66667
651.737	2896.66667
655.481	2858
659.222	2888.66667
662.96	2876.33333
666.695	2869.33333
670.427	2893.66667
674.156	2888.66667
677.882	2904
681.605	2894.66667
685.325	2855.66667
689.043	2886.66667
692.757	2855.66667
696.468	2872
700.177	2863.66667
703.882	2855.66667
707.585	2845
711.284	2835.33333
714.981	2870.66667
718.675	2874
722.366	2897
726.054	2852.33333
729.739	2856
733.421	2854
737.1	2839.66667
740.777	2888
744.45	2871.33333
748.121	2929.66667
751.789	2960.33333
755.453	2951
759.115	2979.66667
762.774	2997.33333
766.431	3034.66667
770.084	3050
773.734	3087.66667
777.382	3151
781.027	3164.66667
784.669	3194.33333
788.308	3205.33333
791.944	3220.66667
795.577	3275.33333
799.208	3306.33333
802.835	3288
806.46	3326.66667
810.082	3371
813.701	3381
817.317	3440.66667
820.931	3407.33333
824.542	3400.33333
828.149	3359
831.754	3320.66667
835.357	3286.33333
838.956	3291.33333
842.553	3270.33333
846.146	3261
849.737	3245
853.326	3256.66667
856.911	3259.66667
860.493	3303.66667
864.073	3309.33333
867.65	3379
871.225	3412.33333
874.796	3418.66667
878.365	3425.33333
881.931	3450.66667
885.494	3448.33333
889.054	3477
892.612	3477.66667
896.166	3442.33333
899.719	3428.33333
903.268	3383.66667
906.814	3397
910.358	3363.66667
913.899	3346.33333
917.438	3356
920.973	3334.66667
924.506	3398.66667
928.036	3433.33333
931.564	3470.66667
935.088	3514.33333
938.61	3517
942.129	3544
945.646	3612
949.16	3720.66667
952.671	3798.33333
956.179	3865.66667
959.685	3838.66667
963.188	3856
966.688	3750.66667
970.185	3666
973.68	3579.66667
977.173	3533.66667
980.662	3501.33333
984.149	3534.33333
987.633	3550.33333
991.114	3601.33333
994.593	3719.66667
998.069	3826
1001.542	3934
1005.013	3860.33333
1008.481	3645.33333
1011.947	3562.66667
1015.409	3565.66667
1018.869	3552
1022.327	3541.66667
1025.782	3506.33333
1029.234	3548
1032.683	3472.66667
1036.13	3387
1039.574	3252.33333
1043.016	3162.33333
1046.455	3086
1049.891	3071.33333
1053.325	3057.33333
1056.756	3098.33333
1060.184	3084
1063.61	3120
1067.033	3120
1070.454	3119.66667
1073.872	3145
1077.287	3187.33333
1080.7	3188.66667
1084.11	3195
1087.517	3185.33333
1090.922	3106.66667
1094.325	3090.66667
1097.724	3050.66667
1101.122	3056.66667
1104.516	3032.33333
1107.908	3037
1111.298	3110.33333
1114.684	3166.33333
1118.069	3176
1121.45	3198.33333
1124.83	3201.33333
1128.206	3214
1131.58	3246.33333
1134.951	3348.66667
1138.32	3472
1141.687	3591
1145.05	3690.33333
1148.412	3714
1151.77	3735.33333
1155.126	3671
1158.48	3659
1161.831	3710.66667
1165.18	3697.66667
1168.525	3778.33333
1171.869	3796
1175.21	3837.33333
1178.548	3865.33333
1181.884	3909
1185.217	3958
1188.548	4026.33333
1191.877	4078
1195.202	4186.66667
1198.526	4262.66667
1201.846	4258
1205.165	4270.66667
1208.48	4273
1211.794	4264.66667
1215.104	4258.66667
1218.413	4277.66667
1221.719	4255
1225.022	4216
1228.323	4181.33333
1231.621	4149.66667
1234.917	4147.66667
1238.21	4157
1241.501	4127.33333
1244.79	4145.33333
1248.076	4114.66667
1251.359	4189.66667
1254.64	4265
1257.919	4287
1261.195	4363
1264.468	4409
1267.74	4512
1271.008	4516
1274.275	4504
1277.538	4446
1280.8	4445.33333
1284.059	4439
1287.315	4493
1290.569	4503.33333
1293.821	4515.66667
1297.07	4539
1300.317	4570.66667
1303.562	4563
1306.803	4533.66667
1310.043	4481.66667
1313.28	4431.33333
1316.515	4417
1319.747	4375.33333
1322.977	4311.33333
1326.204	4254.66667
1329.429	4186
1332.652	4161.66667
1335.872	4145.66667
1339.09	4120.33333
1342.306	4135
1345.519	4093
1348.729	4066.66667
1351.938	4039.66667
1355.144	4020.33333
1358.347	3959.33333
1361.548	3968
1364.747	3959.66667
1367.944	3959
1371.138	3989
1374.329	4016.33333
1377.518	4078.66667
1380.705	4131
1383.89	4080.66667
1387.072	3979
1390.252	3819.66667
1393.429	3672.66667
1396.605	3564.33333
1399.777	3455.66667
1402.948	3422
1406.116	3380
1409.282	3400.33333
1412.445	3385.66667
1415.606	3418
1418.765	3471.66667
1421.921	3547.33333
1425.075	3657
1428.227	3773
1431.376	3923
1434.524	4054.66667
1437.668	4171.33333
1440.811	4252
1443.951	4253.66667
1447.089	4257.33333
1450.224	4244
1453.357	4209.33333
1456.488	4200
1459.617	4124
1462.743	4074.33333
1465.867	3995
1468.989	3923.66667
1472.108	3852.66667
1475.225	3801.66667
1478.34	3748.33333
1481.453	3741
1484.563	3770
1487.671	3804
1490.776	3876.33333
1493.88	3922.66667
1496.981	4012.66667
1500.08	4099
1503.176	4170.66667
1506.271	4253.66667
1509.363	4326
1512.452	4358.33333
1515.54	4447.66667
1518.625	4538
1521.708	4674
1524.789	4953.33333
1527.867	5213.66667
1530.944	5522.66667
1534.018	5777.66667
1537.089	5943.66667
1540.159	5867.66667
1543.226	5743
1546.291	5519.33333
1549.354	5325
1552.415	5199
1555.473	5032
1558.529	4933
1561.583	4895.33333
1564.634	4835.66667
1567.684	4845.33333
1570.731	4888
1573.776	4899.66667
1576.819	4938.66667
1579.859	4997
1582.898	5049.33333
1585.934	5079.33333
1588.968	5106.66667
1591.999	5119
1595.029	5106.66667
1598.056	5108.66667
1601.081	5135.33333
1604.104	5127.33333
1607.125	5080
1610.144	5007.66667
1613.16	4852.66667
1616.174	4774.66667
1619.186	4663.33333
1622.196	4580.33333
1625.203	4466.66667
1628.209	4424.33333
1631.212	4398
1634.213	4391.33333
1637.212	4365.66667
1640.209	4289
1643.203	4206.33333
1646.196	4076.66667
1649.186	3948.33333
1652.174	3810.33333
1655.16	3704
1658.144	3596.66667
1661.125	3430.33333
1664.105	3275
1667.082	3107
1670.057	2961.66667
1673.03	2746.66667
1676.001	2579.33333
1678.97	2405.33333
1681.937	2256.33333
1684.901	2141
1687.863	2062.66667
1690.824	1955.33333
1693.782	1922.33333
1696.738	1850.66667
1699.692	1813
1702.643	1778
1705.593	1752.33333
1708.54	1716
1711.486	1730.66667
1714.429	1682.33333
1717.37	1677
1720.309	1622.33333
1723.246	1643.66667
1726.181	1599.33333
1729.113	1596.33333
1732.044	1579
1734.972	1557.33333
1737.899	1562
1740.823	1544.33333
1743.745	1554.33333
1746.665	1492
1749.583	1482.66667
1752.499	1471
1755.413	1440.66667
1758.325	1419.66667
1761.235	1402.66667
1764.142	1370
1767.048	1364
1769.951	1370
1772.852	1343
1775.752	1344.66667
1778.649	1341.33333
1781.544	1349.66667
1784.437	1310
1787.328	1309
1790.217	1317
1793.104	1293.33333
1795.989	1282.33333
1798.872	1266.33333
1801.753	1297.66667
1804.631	1286
1807.508	1281.66667
1810.383	1272.33333
1813.255	1263.33333
1816.126	1261.33333
1818.994	1244
1821.861	1242.66667
1824.725	1247.66667
1827.587	1246.66667
1830.448	1236.33333
1833.306	1198.66667
1836.162	1218.66667
1839.017	1195.66667
1841.869	1204.66667
1844.719	1207
1847.567	1186.33333
1850.414	1186.66667
1853.258	1175.66667
1856.1	1197.66667
1858.94	1194.33333
1861.778	1179.33333
1864.614	1168.66667
1867.448	1190.66667
1870.28	1167.66667
1873.111	1189
1875.939	1177.33333
1878.765	1191
1881.589	1177
1884.411	1161.66667
1887.231	1172.33333
1890.049	1178.33333
1892.865	1157.33333
1895.68	1145
1898.492	1140.66667
1901.302	1137.66667
1904.11	1123.33333
1906.916	1113.33333
1909.721	1109
1912.523	1125.66667
1915.323	1102.33333
1918.122	1109.66667
1920.918	1117.66667
1923.712	1109.33333
1926.505	1120
1929.295	1097.66667
1932.084	1106
1934.87	1111
1937.655	1104.66667
1940.438	1090
1943.218	1082
1945.997	1100.33333
1948.774	1087
1951.549	1095.66667
1954.322	1086
1957.093	1093
1959.862	1083
1962.629	1085.33333
1965.394	1072.33333
1968.157	1038.66667
1970.918	1076.66667
1973.678	1048.33333
1976.435	1067.66667
1979.19	1051
1981.944	1046.66667
1984.696	1034.33333
1987.445	1043.66667
1990.193	1040
1992.939	1046
1995.683	1036.66667
1998.425	1008.66667
2001.165	1051.66667
2003.903	1022
2006.639	1023.66667
2009.374	1033.66667
2012.106	1033
2014.837	995.33333
2017.566	1032.33333
2020.292	1022.66667
2023.017	1015.33333
2025.74	1009
2028.461	993
2031.18	1013.33333
2033.898	991.33333
2036.613	1007.66667
2039.327	1017
2042.038	987.33333
2044.748	990
2047.456	998.33333
2050.162	977
2052.866	973.66667
2055.568	981.66667
2058.268	973
2060.967	994.33333
2063.663	967.33333
2066.358	978.66667
2069.051	952
2071.742	985.33333
2074.431	983.33333
2077.118	972.33333
2079.804	971
2082.487	963.66667
2085.169	980.66667
2087.849	983
2090.527	974.33333
2093.203	990
2095.877	986.33333
2098.55	985.33333
2101.22	1008.33333
2103.889	1025.33333
2106.556	1014
2109.221	1060
2111.884	1075.66667
2114.546	1132
2117.205	1215
2119.863	1304.66667
2122.519	1396.66667
2125.173	1508
2127.825	1607.66667
2130.475	1648.66667
2133.124	1609.33333
2135.771	1570
2138.416	1486.33333
2141.059	1408
2143.7	1353.33333
2146.339	1265.33333
2148.977	1206.66667
2151.613	1180.33333
2154.247	1144.33333
2156.879	1112.33333
2159.51	1103.33333
2162.138	1080
2164.765	1076.33333
2167.39	1066.33333
2170.013	1067.66667
2172.634	1079.33333
2175.254	1080
2177.872	1079
2180.488	1056.66667
2183.102	1045.66667
2185.714	1029
2188.325	1002.33333
2190.934	997
2193.541	980.66667
2196.146	961.66667
2198.75	942.33333
2201.351	929
2203.951	905.33333
2206.549	918
2209.146	885.66667
2211.74	887.33333
2214.333	888.66667
2216.924	866.66667
2219.514	872
2222.101	849
2224.687	868
2227.271	852.66667
2229.853	841.66667
2232.433	825
2235.012	853.66667
2237.589	843.66667
2240.164	849
2242.738	835.33333
2245.309	827.66667
2247.879	822
2250.448	834.66667
2253.014	800.66667
2255.579	795
2258.142	790.33333
2260.703	775
2263.262	790
2265.82	774.66667
2268.376	783
2270.93	755.66667
2273.483	758.33333
2276.033	763.33333
2278.583	755.66667
2281.13	748
2283.675	737.33333
2286.219	746.33333
2288.761	733.33333
2291.302	736.66667
2293.841	741
2296.377	720
2298.913	728.33333
2301.446	744
2303.978	717
2306.508	712
2309.037	711
2311.563	721.66667
2314.088	716.66667
2316.612	695
2319.133	709.66667
2321.653	700.33333
2324.171	693.66667
2326.688	708.66667
2329.202	703.33333
2331.715	697.66667
2334.227	685.66667
2336.736	679
2339.244	679.33333
2341.751	677.33333
2344.255	688.66667
2346.758	680
2349.259	669.66667
2351.759	672.66667
2354.257	665.66667
2356.753	660.33333
2359.247	665.66667
2361.74	687.66667
2364.231	668
2366.721	671.33333
2369.209	649.66667
2371.695	649.66667
2374.179	659.33333
2376.662	655.66667
2379.143	665.66667
2381.622	648
2384.1	655
2386.576	645
2389.051	667.66667
2391.524	670.33333
2393.995	649.66667
2396.464	638.33333
2398.932	633.66667
2401.398	633
2403.863	634.66667
2406.325	632.33333
2408.787	631.33333
2411.246	630.66667
2413.704	638
2416.16	628.66667
2418.615	627.33333
2421.068	636
2423.519	622
2425.969	606.66667
2428.417	627.66667
2430.863	650.33333
2433.308	632.66667
2435.751	626
2438.193	615.66667
2440.633	619.33333
2443.071	635.33333
2445.508	610.66667
2447.943	609
2450.376	605
2452.808	605
2455.238	600
2457.667	631
2460.093	597.66667
2462.519	586.66667
2464.942	597.66667
2467.365	599.66667
2469.785	584.33333
2472.204	588.33333
2474.621	575.33333
2477.037	606.33333
2479.451	568.66667
2481.863	580.33333
2484.274	585
2486.683	597.33333
2489.091	593.33333
2491.497	582.66667
2493.901	584.66667
2496.304	575
2498.705	586.33333
2501.105	574
2503.503	599.33333
2505.899	557
2508.294	586
2510.687	563
2513.079	565.66667
2515.469	559.33333
2517.858	558.33333
2520.245	572.66667
2522.63	559
2525.014	551.66667
2527.396	547.66667
2529.776	558.33333
2532.156	561.66667
2534.533	543
2536.909	552.66667
2539.283	549.33333
2541.656	547.33333
2544.027	571
2546.397	552.33333
2548.765	545.66667
2551.131	547
2553.496	548.66667
2555.86	557.66667
2558.221	544
2560.582	542.66667
2562.94	529.33333
2565.298	542.33333
2567.653	555.33333
2570.007	525.66667
2572.36	548
2574.711	540.33333
2577.06	562.33333
2579.408	531
2581.754	542.33333
2584.099	535
2586.442	521.66667
2588.784	531.33333
2591.124	533.33333
2593.463	532.33333
2595.8	530.66667
2598.135	516
2600.469	528.33333
2602.802	534.33333
2605.133	537.66667
2607.462	520.33333
2609.79	519
2612.116	524
2614.441	513.33333
2616.764	523.66667
2619.086	519.66667
2621.406	521.33333
2623.725	535.33333
2626.042	528.33333
2628.358	506
2630.672	522
2632.985	529.66667
2635.296	521.33333
2637.606	521.33333
2639.914	504.33333
2642.22	524
2644.525	521.66667
2646.829	524.33333
2649.131	540.33333
2651.432	532.66667
2653.731	528.33333
2656.028	530
2658.324	526
2660.619	520
2662.912	532.66667
2665.204	509
2667.494	528.33333
2669.782	519.33333
2672.07	526
2674.355	532
2676.639	527
2678.922	522.66667
2681.203	536.66667
2683.483	513
2685.761	516.66667
2688.038	538.66667
2690.313	540.33333
2692.587	525.66667
2694.859	520
2697.13	531
2699.399	527
2701.667	540.66667
2703.933	536.66667
2706.198	539.33333
2708.461	551.66667
2710.723	555
2712.984	559
2715.243	560.66667
2717.5	559
2719.757	570.66667
2722.011	568.33333
2724.264	574
2726.516	591
2728.766	563.66667
2731.015	574.66667
2733.262	569.33333
2735.508	571.33333
2737.753	558.66667
2739.996	545
2742.237	536.33333
2744.477	564.33333
2746.716	551
2748.953	539.33333
2751.189	551
2753.423	531.33333
2755.656	527.33333
2757.887	515.66667
2760.117	533.66667
2762.346	520.66667
2764.573	518.33333
2766.798	523.33333
2769.022	519.66667
2771.245	522
2773.467	526
2775.686	526
2777.905	529.66667
2780.122	542.66667
2782.337	536.33333
2784.552	544.33333
2786.764	543.66667
2788.976	553.66667
2791.186	565
2793.394	559
2795.601	583.33333
2797.807	582.66667
2800.011	582
2802.214	601.33333
2804.415	601
2806.615	600.33333
2808.814	618.66667
2811.011	622.33333
2813.206	617.66667
2815.401	639.66667
2817.594	665
2819.785	673.66667
2821.975	652.33333
2824.164	669.33333
2826.351	702.66667
2828.537	720.33333
2830.722	744.33333
2832.905	748.33333
2835.086	788.33333
2837.267	830.33333
2839.445	874.33333
2841.623	895
2843.799	931
2845.974	982
2848.147	1034.33333
2850.319	1055
2852.489	1094
2854.659	1119.33333
2856.826	1138
2858.993	1160
2861.158	1152
2863.321	1154.66667
2865.483	1174.66667
2867.644	1168
2869.804	1169.33333
2871.962	1167.66667
2874.118	1164.33333
2876.274	1157
2878.428	1154.33333
2880.58	1161
2882.731	1147
2884.881	1138.33333
2887.03	1139.33333
2889.177	1148
2891.322	1179.66667
2893.467	1161
2895.61	1170.33333
2897.751	1197.66667
2899.892	1176.66667
2902.03	1188.66667
2904.168	1215.66667
2906.304	1204.33333
2908.439	1234.66667
2910.572	1192.33333
2912.704	1234.66667
2914.835	1236
2916.965	1236.66667
2919.093	1236
2921.219	1198
2923.345	1241.66667
2925.469	1183.66667
2927.591	1172
2929.712	1129.66667
2931.832	1123.66667
2933.951	1111
2936.068	1068
2938.184	1035
2940.299	999
2942.412	982.33333
2944.524	913.66667
2946.634	910
2948.744	844.66667
2950.851	864.33333
2952.958	783.33333
2955.063	783.66667
2957.167	757.33333
2959.269	724.66667
2961.371	739
2963.471	696.33333
2965.569	691.66667
2967.666	644.66667
2969.762	638
2971.857	617.33333
2973.95	597.33333
2976.042	587.33333
2978.133	560.33333
2980.222	551.33333
2982.31	526
2984.396	504.33333
2986.482	509.33333
2988.566	505.33333
2990.648	481
2992.73	478.66667
2994.81	469.66667
2996.889	464.66667
2998.966	463.33333
3001.042	454.66667
3003.117	444.66667
3005.191	446.33333
3007.263	443.66667
3009.334	432.33333
3011.403	427.33333
3013.472	409.66667
3015.539	405.33333
3017.604	419.66667
3019.669	383
3021.732	393.66667
3023.794	391.66667
3025.854	364.66667
3027.914	371
3029.971	375.66667
3032.028	361.33333
3034.083	368.33333
3036.137	366.66667
3038.19	346
3040.242	336
3042.292	333.66667
3044.341	326.66667
3046.388	341
3048.435	317.33333
3050.48	333
3052.524	327.33333
3054.566	309.33333
3056.607	318.66667
3058.647	306.66667
3060.686	292.66667
3062.723	296.66667
3064.759	278.33333
3066.794	0.66667
3068.828	-1
3070.86	-3.33333
