-0.839	406.16667
3.438	458.83333
7.711	138.16667
11.981	55.16667
16.247	48.83333
20.509	47.16667
24.768	50.16667
29.024	47.5
33.276	49.16667
37.524	54.83333
41.769	43.16667
46.01	39.5
50.247	56.5
54.481	63.5
58.712	67.83333
62.939	53.5
67.162	67.5
71.382	58.5
75.599	55.5
79.812	71.5
84.021	87.5
88.227	62.83333
92.429	69.83333
96.628	56.83333
100.823	70.16667
105.015	84.16667
109.204	84.83333
113.388	86.16667
117.57	81.5
121.748	99.16667
125.922	89.5
130.093	104.5
134.261	116.5
138.425	117.16667
142.585	152.5
146.742	162.83333
150.896	187.83333
155.046	232.5
159.193	367.16667
163.336	639.16667
167.476	1148.5
171.613	2108.5
175.746	3569.83333
179.875	5384.5
184.002	7150.16667
188.124	8351.5
192.244	8825.83333
196.36	8912.83333
200.472	8760.83333
204.581	8577.5
208.687	8480.5
212.79	8515.16667
216.889	8595.16667
220.984	8803.83333
225.077	8964.83333
229.165	9144.16667
233.251	9293.5
237.333	9411.5
241.412	9437.83333
245.487	9472.83333
249.559	9371.5
253.628	9283.83333
257.694	9153.5
261.756	9042.5
265.814	8806.5
269.87	8503.83333
273.922	8242.83333
277.97	8023.16667
282.016	7783.16667
286.058	7697.83333
290.097	7656.83333
294.132	7619.83333
298.164	7448.16667
302.193	7060.16667
306.219	6569.83333
310.241	5982.5
314.26	5483.83333
318.276	5015.5
322.288	4725.16667
326.297	4457.16667
330.303	4287.83333
334.305	4160.16667
338.305	4033.5
342.301	3997.5
346.294	3950.5
350.283	3921.83333
354.269	3891.83333
358.252	3855.5
362.232	3834.16667
366.209	3804.83333
370.182	3768.83333
374.152	3763.16667
378.119	3779.16667
382.083	3766.5
386.043	3800.83333
390	3708.16667
393.954	3707.16667
397.905	3675.16667
401.852	3649.16667
405.797	3571.5
409.738	3530.5
413.676	3537.83333
417.61	3510.83333
421.542	3467.16667
425.47	3420.16667
429.396	3393.5
433.318	3387.16667
437.236	3374.16667
441.152	3365.16667
445.065	3286.16667
448.974	3297.16667
452.88	3291.83333
456.783	3232.83333
460.683	3262.16667
464.58	3267.16667
468.473	3262.83333
472.364	3280.5
476.251	3274.5
480.135	3299.16667
484.016	3356.83333
487.894	3369.16667
491.769	3362.5
495.641	3367.5
499.509	3361.83333
503.375	3367.83333
507.237	3364.16667
511.096	3350.16667
514.952	3356.16667
518.805	3387.83333
522.655	3393.16667
526.502	3302.16667
530.346	3285.16667
534.187	3329.83333
538.024	3288.5
541.859	3309.16667
545.69	3350.5
549.519	3313.83333
553.344	3299.16667
557.166	3250.83333
560.985	3216.83333
564.802	3177.16667
568.615	3142.83333
572.425	3119.83333
576.232	3088.5
580.036	3071.83333
583.836	3073.83333
587.634	3095.83333
591.429	3080.5
595.221	3130.16667
599.01	3156.83333
602.796	3182.83333
606.578	3255.83333
610.358	3249.83333
614.135	3211.83333
617.909	3216.83333
621.679	3197.16667
625.447	3189.16667
629.212	3190.16667
632.973	3168.5
636.732	3173.83333
640.488	3173.83333
644.241	3128.5
647.991	3136.16667
651.737	3147.83333
655.481	3125.83333
659.222	3121.5
662.96	3128.5
666.695	3141.83333
670.427	3142.5
674.156	3153.83333
677.882	3184.16667
681.605	3166.5
685.325	3153.83333
689.043	3145.16667
692.757	3115.5
696.468	3124.16667
700.177	3157.83333
703.882	3148.16667
707.585	3136.83333
711.284	3138.16667
714.981	3136.16667
718.675	3140.16667
722.366	3159.16667
726.054	3142.83333
729.739	3170.83333
733.421	3156.16667
737.1	3160.5
740.777	3176.16667
744.45	3175.83333
748.121	3211.5
751.789	3276.5
755.453	3268.16667
759.115	3289.83333
762.774	3297.83333
766.431	3351.83333
770.084	3398.16667
773.734	3438.83333
777.382	3501.16667
781.027	3533.16667
784.669	3533.16667
788.308	3560.83333
791.944	3581.16667
795.577	3592.16667
799.208	3661.16667
802.835	3674.16667
806.46	3702.16667
810.082	3712.16667
813.701	3746.5
817.317	3778.83333
820.931	3764.16667
824.542	3770.83333
828.149	3758.5
831.754	3741.83333
835.357	3710.5
838.956	3680.83333
842.553	3672.5
846.146	3642.5
849.737	3635.83333
853.326	3654.16667
856.911	3657.83333
860.493	3726.16667
864.073	3730.83333
867.65	3792.5
871.225	3854.16667
874.796	3845.16667
878.365	3852.83333
881.931	3885.5
885.494	3894.16667
889.054	3906.83333
892.612	3916.83333
896.166	3886.83333
899.719	3828.16667
903.268	3820.5
906.814	3782.83333
910.358	3769.5
913.899	3758.5
917.438	3765.16667
920.973	3726.16667
924.506	3770.16667
928.036	3801.5
931.564	3862.83333
935.088	3896.16667
938.61	3927.5
942.129	3957.16667
945.646	4025.83333
949.16	4132.5
952.671	4208.83333
956.179	4243.5
959.685	4223.83333
963.188	4185.83333
966.688	4121.5
970.185	4065.5
973.68	3979.16667
977.173	3993.83333
980.662	3973.83333
984.149	4000.83333
987.633	4008.5
991.114	4069.83333
994.593	4187.5
998.069	4300.5
1001.542	4421.83333
1005.013	4335.16667
1008.481	4094.83333
1011.947	4003.5
1015.409	3986.5
1018.869	3973.83333
1022.327	3982.83333
1025.782	3960.5
1029.234	3975.83333
1032.683	3914.16667
1036.13	3802.5
1039.574	3679.83333
1043.016	3532.16667
1046.455	3480.83333
1049.891	3434.5
1053.325	3428.16667
1056.756	3444.16667
1060.184	3494.16667
1063.61	3477.83333
1067.033	3485.5
1070.454	3477.83333
1073.872	3529.5
1077.287	3508.5
1080.7	3551.83333
1084.11	3528.5
1087.517	3518.16667
1090.922	3462.16667
1094.325	3448.16667
1097.724	3416.5
1101.122	3402.5
1104.516	3399.83333
1107.908	3392.5
1111.298	3467.16667
1114.684	3487.5
1118.069	3532.5
1121.45	3555.5
1124.83	3549.16667
1128.206	3593.16667
1131.58	3623.83333
1134.951	3686.16667
1138.32	3789.5
1141.687	3948.83333
1145.05	4065.16667
1148.412	4104.83333
1151.77	4126.5
1155.126	4106.83333
1158.48	4100.16667
1161.831	4136.5
1165.18	4166.83333
1168.525	4257.83333
1171.869	4282.83333
1175.21	4330.83333
1178.548	4415.83333
1181.884	4473.5
1185.217	4468.16667
1188.548	4554.83333
1191.877	4588.16667
1195.202	4696.83333
1198.526	4753.83333
1201.846	4788.5
1205.165	4762.16667
1208.48	4746.83333
1211.794	4715.83333
1215.104	4724.83333
1218.413	4740.83333
1221.719	4739.16667
1225.022	4700.16667
1228.323	4644.83333
1231.621	4638.83333
1234.917	4619.5
1238.21	4663.83333
1241.501	4667.5
1244.79	4647.16667
1248.076	4680.83333
1251.359	4707.5
1254.64	4803.16667
1257.919	4811.16667
1261.195	4877.83333
1264.468	4965.5
1267.74	5028.16667
1271.008	5031.16667
1274.275	5033.5
1277.538	4954.5
1280.8	4942.5
1284.059	4918.5
1287.315	4967.5
1290.569	5000.5
1293.821	5050.83333
1297.07	5072.83333
1300.317	5059.16667
1303.562	5077.83333
1306.803	5043.5
1310.043	4957.5
1313.28	4899.5
1316.515	4879.5
1319.747	4838.5
1322.977	4771.5
1326.204	4668.83333
1329.429	4600.83333
1332.652	4559.5
1335.872	4568.5
1339.09	4539.83333
1342.306	4571.16667
1345.519	4565.16667
1348.729	4514.16667
1351.938	4515.83333
1355.144	4441.5
1358.347	4362.16667
1361.548	4359.5
1364.747	4372.5
1367.944	4324.5
1371.138	4371.83333
1374.329	4403.16667
1377.518	4434.5
1380.705	4471.83333
1383.89	4425.16667
1387.072	4326.83333
1390.252	4157.83333
1393.429	4030.5
1396.605	3926.5
1399.777	3811.5
1402.948	3768.83333
1406.116	3735.83333
1409.282	3746.5
1412.445	3748.16667
1415.606	3796.16667
1418.765	3831.5
1421.921	3936.5
1425.075	4000.83333
1428.227	4145.16667
1431.376	4346.16667
1434.524	4477.16667
1437.668	4615.83333
1440.811	4637.83333
1443.951	4663.83333
1447.089	4687.5
1450.224	4693.83333
1453.357	4629.16667
1456.488	4590.5
1459.617	4547.16667
1462.743	4474.83333
1465.867	4396.5
1468.989	4354.5
1472.108	4284.16667
1475.225	4199.83333
1478.34	4173.83333
1481.453	4145.5
1484.563	4149.5
1487.671	4169.16667
1490.776	4272.16667
1493.88	4380.83333
1496.981	4455.5
1500.08	4529.83333
1503.176	4613.5
1506.271	4710.16667
1509.363	4738.83333
1512.452	4830.16667
1515.54	4915.83333
1518.625	5055.5
1521.708	5249.83333
1524.789	5522.5
1527.867	5872.16667
1530.944	6241.5
1534.018	6570.5
1537.089	6758.5
1540.159	6734.5
1543.226	6559.5
1546.291	6360.83333
1549.354	6134.83333
1552.415	5916.5
1555.473	5733.16667
1558.529	5660.83333
1561.583	5565.16667
1564.634	5495.5
1567.684	5512.5
1570.731	5491.16667
1573.776	5517.5
1576.819	5598.16667
1579.859	5621.5
1582.898	5743.16667
1585.934	5773.83333
1588.968	5766.16667
1591.999	5734.16667
1595.029	5734.5
1598.056	5788.83333
1601.081	5799.16667
1604.104	5809.16667
1607.125	5730.5
1610.144	5636.83333
1613.16	5487.83333
1616.174	5367.83333
1619.186	5218.16667
1622.196	5090.5
1625.203	4989.83333
1628.209	4912.16667
1631.212	4889.16667
1634.213	4836.5
1637.212	4807.5
1640.209	4728.83333
1643.203	4616.83333
1646.196	4491.5
1649.186	4318.16667
1652.174	4154.83333
1655.16	4030.16667
1658.144	3897.5
1661.125	3736.5
1664.105	3528.83333
1667.082	3380.16667
1670.057	3201.83333
1673.03	3017.5
1676.001	2821.16667
1678.97	2651.5
1681.937	2470.5
1684.901	2363.83333
1687.863	2280.5
1690.824	2179.16667
1693.782	2116.83333
1696.738	2069.5
1699.692	2019.5
1702.643	1955.16667
1705.593	1944.83333
1708.54	1929.16667
1711.486	1898.5
1714.429	1841.16667
1717.37	1851.5
1720.309	1829.16667
1723.246	1818.5
1726.181	1777.83333
1729.113	1781.5
1732.044	1757.5
1734.972	1740.5
1737.899	1737.16667
1740.823	1717.83333
1743.745	1725.5
1746.665	1645.83333
1749.583	1624.5
1752.499	1602.83333
1755.413	1593.5
1758.325	1551.83333
1761.235	1546.83333
1764.142	1511.5
1767.048	1507.16667
1769.951	1490.5
1772.852	1472.16667
1775.752	1477.5
1778.649	1463.16667
1781.544	1473.16667
1784.437	1437.5
1787.328	1450.16667
1790.217	1428.83333
1793.104	1418.16667
1795.989	1410.83333
1798.872	1366.16667
1801.753	1414.5
1804.631	1418.16667
1807.508	1409.5
1810.383	1389.16667
1813.255	1388.16667
1816.126	1370.83333
1818.994	1377.16667
1821.861	1360.83333
1824.725	1363.5
1827.587	1350.5
1830.448	1345.16667
1833.306	1335.16667
1836.162	1322.5
1839.017	1318.16667
1841.869	1312.16667
1844.719	1316.83333
1847.567	1298.83333
1850.414	1288.83333
1853.258	1296.83333
1856.1	1296.5
1858.94	1314.83333
1861.778	1303.5
1864.614	1274.83333
1867.448	1300.5
1870.28	1283.16667
1873.111	1298.16667
1875.939	1288.83333
1878.765	1304.16667
1881.589	1279.5
1884.411	1266.83333
1887.231	1294.5
1890.049	1274.5
1892.865	1286.83333
1895.68	1268.5
1898.492	1264.83333
1901.302	1245.16667
1904.11	1245.16667
1906.916	1238.83333
1909.721	1244.16667
1912.523	1240.83333
1915.323	1215.16667
1918.122	1219.83333
1920.918	1224.83333
1923.712	1226.83333
1926.505	1218.83333
1929.295	1199.16667
1932.084	1210.83333
1934.87	1218.16667
1937.655	1215.16667
1940.438	1195.83333
1943.218	1207.16667
1945.997	1196.5
1948.774	1214.16667
1951.549	1198.5
1954.322	1214.5
1957.093	1191.5
1959.862	1191.83333
1962.629	1164.83333
1965.394	1187.5
1968.157	1166.83333
1970.918	1187.83333
1973.678	1163.16667
1976.435	1168.16667
1979.19	1161.83333
1981.944	1155.83333
1984.696	1145.83333
1987.445	1135.16667
1990.193	1158.5
1992.939	1157.16667
1995.683	1140.16667
1998.425	1129.83333
2001.165	1143.83333
2003.903	1114.5
2006.639	1136.5
2009.374	1133.83333
2012.106	1135.83333
2014.837	1101.16667
2017.566	1117.5
2020.292	1124.5
2023.017	1117.5
2025.74	1108.16667
2028.461	1106.16667
2031.18	1113.5
2033.898	1103.16667
2036.613	1112.83333
2039.327	1116.16667
2042.038	1075.5
2044.748	1100.16667
2047.456	1095.5
2050.162	1071.5
2052.866	1081.16667
2055.568	1100.16667
2058.268	1081.16667
2060.967	1090.83333
2063.663	1069.83333
2066.358	1087.16667
2069.051	1083.83333
2071.742	1083.16667
2074.431	1087.5
2077.118	1075.83333
2079.804	1072.5
2082.487	1077.83333
2085.169	1096.16667
2087.849	1113.83333
2090.527	1084.5
2093.203	1100.16667
2095.877	1102.5
2098.55	1104.83333
2101.22	1133.5
2103.889	1150.83333
2106.556	1154.5
2109.221	1183.5
2111.884	1250.16667
2114.546	1321.5
2117.205	1425.16667
2119.863	1556.83333
2122.519	1685.83333
2125.173	1818.5
2127.825	1941.5
2130.475	1963.5
2133.124	1947.16667
2135.771	1903.5
2138.416	1790.83333
2141.059	1690.16667
2143.7	1621.5
2146.339	1503.5
2148.977	1430.16667
2151.613	1389.83333
2154.247	1338.83333
2156.879	1322.5
2159.51	1281.5
2162.138	1274.16667
2164.765	1266.16667
2167.39	1251.16667
2170.013	1253.5
2172.634	1272.16667
2175.254	1247.83333
2177.872	1262.5
2180.488	1214.5
2183.102	1220.16667
2185.714	1192.83333
2188.325	1174.16667
2190.934	1154.5
2193.541	1139.5
2196.146	1126.83333
2198.75	1091.5
2201.351	1070.16667
2203.951	1042.5
2206.549	1055.16667
2209.146	1026.83333
2211.74	1019.5
2214.333	1022.83333
2216.924	978.83333
2219.514	988.83333
2222.101	972.16667
2224.687	982.83333
2227.271	960.16667
2229.853	963.83333
2232.433	936.16667
2235.012	982.83333
2237.589	956.16667
2240.164	964.16667
2242.738	945.16667
2245.309	936.83333
2247.879	930.16667
2250.448	932.83333
2253.014	910.83333
2255.579	896.16667
2258.142	899.5
2260.703	873.16667
2263.262	867.5
2265.82	870.16667
2268.376	877.16667
2270.93	854.5
2273.483	851.16667
2276.033	861.16667
2278.583	844.83333
2281.13	842.5
2283.675	844.83333
2286.219	839.5
2288.761	850.16667
2291.302	840.16667
2293.841	830.5
2296.377	811.16667
2298.913	826.83333
2301.446	819.5
2303.978	817.5
2306.508	814.16667
2309.037	823.16667
2311.563	817.83333
2314.088	812.5
2316.612	785.5
2319.133	796.16667
2321.653	786.83333
2324.171	778.16667
2326.688	788.16667
2329.202	776.16667
2331.715	796.16667
2334.227	787.83333
2336.736	775.83333
2339.244	762.83333
2341.751	758.16667
2344.255	771.16667
2346.758	776.16667
2349.259	767.83333
2351.759	760.5
2354.257	764.16667
2356.753	751.16667
2359.247	757.83333
2361.74	766.83333
2364.231	749.16667
2366.721	762.5
2369.209	750.5
2371.695	743.16667
2374.179	737.5
2376.662	749.5
2379.143	761.5
2381.622	738.83333
2384.1	758.5
2386.576	734.16667
2389.051	746.83333
2391.524	760.83333
2393.995	758.5
2396.464	738.16667
2398.932	719.5
2401.398	724.16667
2403.863	732.16667
2406.325	727.5
2408.787	738.16667
2411.246	712.16667
2413.704	718.83333
2416.16	719.5
2418.615	712.5
2421.068	724.83333
2423.519	722.83333
2425.969	718.16667
2428.417	723.5
2430.863	728.5
2433.308	721.5
2435.751	708.5
2438.193	710.5
2440.633	714.5
2443.071	707.16667
2445.508	702.83333
2447.943	693.83333
2450.376	685.83333
2452.808	703.5
2455.238	693.16667
2457.667	715.16667
2460.093	689.16667
2462.519	674.5
2464.942	683.16667
2467.365	694.5
2469.785	683.5
2472.204	682.5
2474.621	673.16667
2477.037	696.83333
2479.451	670.16667
2481.863	672.16667
2484.274	665.16667
2486.683	666.5
2489.091	684.83333
2491.497	671.16667
2493.901	675.83333
2496.304	667.83333
2498.705	680.83333
2501.105	665.5
2503.503	694.83333
2505.899	663.16667
2508.294	685.5
2510.687	653.83333
2513.079	662.5
2515.469	655.83333
2517.858	658.5
2520.245	676.5
2522.63	641.16667
2525.014	659.5
2527.396	652.16667
2529.776	648.5
2532.156	654.5
2534.533	640.83333
2536.909	650.5
2539.283	636.5
2541.656	638.5
2544.027	669.5
2546.397	647.16667
2548.765	642.5
2551.131	636.83333
2553.496	645.5
2555.86	647.5
2558.221	639.16667
2560.582	641.83333
2562.94	630.83333
2565.298	635.83333
2567.653	655.5
2570.007	620.83333
2572.36	634.5
2574.711	641.16667
2577.06	650.16667
2579.408	636.16667
2581.754	628.83333
2584.099	642.5
2586.442	638.5
2588.784	637.83333
2591.124	640.16667
2593.463	630.5
2595.8	626.16667
2598.135	612.5
2600.469	631.83333
2602.802	642.16667
2605.133	632.83333
2607.462	610.83333
2609.79	617.5
2612.116	626.83333
2614.441	618.5
2616.764	612.83333
2619.086	623.16667
2621.406	618.83333
2623.725	626.83333
2626.042	629.16667
2628.358	617.83333
2630.672	622.83333
2632.985	627.16667
2635.296	623.16667
2637.606	627.16667
2639.914	623.83333
2642.22	618.5
2644.525	623.83333
2646.829	625.16667
2649.131	636.83333
2651.432	638.83333
2653.731	643.83333
2656.028	638.5
2658.324	630.16667
2660.619	633.83333
2662.912	651.16667
2665.204	632.5
2667.494	640.83333
2669.782	631.16667
2672.07	643.5
2674.355	648.16667
2676.639	636.16667
2678.922	630.16667
2681.203	647.16667
2683.483	621.5
2685.761	636.5
2688.038	645.83333
2690.313	645.16667
2692.587	637.5
2694.859	635.83333
2697.13	642.83333
2699.399	650.16667
2701.667	658.5
2703.933	664.5
2706.198	660.83333
2708.461	661.83333
2710.723	672.16667
2712.984	672.5
2715.243	680.5
2717.5	673.5
2719.757	696.83333
2722.011	679.83333
2724.264	692.16667
2726.516	706.16667
2728.766	680.83333
2731.015	703.83333
2733.262	689.5
2735.508	679.5
2737.753	687.16667
2739.996	667.5
2742.237	673.16667
2744.477	675.16667
2746.716	680.16667
2748.953	662.83333
2751.189	663.83333
2753.423	653.83333
2755.656	645.5
2757.887	641.5
2760.117	654.83333
2762.346	652.5
2764.573	648.83333
2766.798	649.83333
2769.022	651.5
2771.245	642.5
2773.467	662.16667
2775.686	663.16667
2777.905	665.83333
2780.122	667.83333
2782.337	668.16667
2784.552	668.16667
2786.764	682.83333
2788.976	681.83333
2791.186	696.5
2793.394	698.5
2795.601	706.5
2797.807	721.5
2800.011	722.16667
2802.214	741.83333
2804.415	745.5
2806.615	752.16667
2808.814	765.83333
2811.011	770.83333
2813.206	780.5
2815.401	799.5
2817.594	811.5
2819.785	820.83333
2821.975	814.16667
2824.164	835.5
2826.351	860.16667
2828.537	876.16667
2830.722	896.16667
2832.905	908.83333
2835.086	944.83333
2837.267	984.5
2839.445	1020.5
2841.623	1049.83333
2843.799	1097.16667
2845.974	1145.16667
2848.147	1192.5
2850.319	1231.16667
2852.489	1273.5
2854.659	1300.5
2856.826	1314.16667
2858.993	1330.5
2861.158	1329.83333
2863.321	1334.5
2865.483	1352.16667
2867.644	1354.83333
2869.804	1350.16667
2871.962	1334.83333
2874.118	1352.5
2876.274	1336.83333
2878.428	1311.83333
2880.58	1312.5
2882.731	1317.16667
2884.881	1323.5
2887.03	1311.5
2889.177	1327.16667
2891.322	1337.16667
2893.467	1327.83333
2895.61	1343.16667
2897.751	1360.5
2899.892	1359.16667
2902.03	1370.16667
2904.168	1372.16667
2906.304	1386.16667
2908.439	1407.83333
2910.572	1392.83333
2912.704	1389.5
2914.835	1400.83333
2916.965	1385.16667
2919.093	1411.83333
2921.219	1363.16667
2923.345	1390.83333
2925.469	1353.5
2927.591	1331.16667
2929.712	1293.83333
2931.832	1281.5
2933.951	1265.5
2936.068	1229.16667
2938.184	1194.83333
2940.299	1139.83333
2942.412	1124.83333
2944.524	1063.16667
2946.634	1037.83333
2948.744	987.5
2950.851	992.5
2952.958	948.16667
2955.063	922.5
2957.167	903.5
2959.269	859.5
2961.371	878.16667
2963.471	820.16667
2965.569	824.83333
2967.666	770.16667
2969.762	781.83333
2971.857	752.5
2973.95	727.83333
2976.042	713.83333
2978.133	701.5
2980.222	666.83333
2982.31	652.83333
2984.396	628.83333
2986.482	625.5
2988.566	626.16667
2990.648	607.16667
2992.73	592.5
2994.81	600.5
2996.889	593.16667
2998.966	580.16667
3001.042	583.83333
3003.117	577.5
3005.191	568.83333
3007.263	560.83333
3009.334	551.5
3011.403	545.83333
3013.472	530.16667
3015.539	528.83333
3017.604	532.16667
3019.669	491.83333
3021.732	492.83333
3023.794	501.83333
3025.854	480.16667
3027.914	482.5
3029.971	488.16667
3032.028	484.5
3034.083	482.5
3036.137	473.5
3038.19	450.5
3040.242	444.5
3042.292	443.16667
3044.341	431.83333
3046.388	445.16667
3048.435	416.16667
3050.48	440.83333
3052.524	430.83333
3054.566	395.83333
3056.607	415.5
3058.647	406.83333
3060.686	384.83333
3062.723	383.83333
3064.759	366.83333
3066.794	0.83333
3068.828	0.16667
3070.86	-2.5
