-0.839	464.70833
3.438	495.04167
7.711	139.04167
11.981	58.375
16.247	44.04167
20.509	39.70833
24.768	47.04167
29.024	47.70833
33.276	42.04167
37.524	52.375
41.769	41.04167
46.01	37.70833
50.247	54.04167
54.481	59.375
58.712	66.70833
62.939	49.375
67.162	59.375
71.382	59.375
75.599	49.04167
79.812	65.04167
84.021	80.04167
88.227	60.375
92.429	60.70833
96.628	51.70833
100.823	64.375
105.015	81.04167
109.204	82.375
113.388	81.04167
117.57	80.375
121.748	94.375
125.922	85.04167
130.093	105.70833
134.261	115.04167
138.425	109.70833
142.585	148.375
146.742	158.04167
150.896	174.375
155.046	219.04167
159.193	360.375
163.336	613.04167
167.476	1095.375
171.613	2043.375
175.746	3460.375
179.875	5202.70833
184.002	6746.70833
188.124	7824.70833
192.244	8232.70833
196.36	8179.375
200.472	8002.04167
204.581	7814.375
208.687	7635.04167
212.79	7615.70833
216.889	7621.04167
220.984	7815.70833
225.077	7853.04167
229.165	8029.70833
233.251	8154.375
237.333	8218.04167
241.412	8266.375
245.487	8220.70833
249.559	8197.375
253.628	8088.70833
257.694	8037.375
261.756	7926.70833
265.814	7759.70833
269.87	7488.375
273.922	7254.04167
277.97	7081.04167
282.016	6894.04167
286.058	6810.04167
290.097	6766.70833
294.132	6773.70833
298.164	6632.04167
302.193	6319.375
306.219	5841.375
310.241	5258.04167
314.26	4780.04167
318.276	4382.375
322.288	4095.375
326.297	3840.04167
330.303	3672.04167
334.305	3523.04167
338.305	3467.04167
342.301	3396.70833
346.294	3368.70833
350.283	3321.04167
354.269	3292.04167
358.252	3274.375
362.232	3250.04167
366.209	3221.04167
370.182	3207.70833
374.152	3174.70833
378.119	3179.04167
382.083	3144.04167
386.043	3154.375
390	3115.375
393.954	3097.04167
397.905	3074.70833
401.852	3050.04167
405.797	3008.70833
409.738	2954.70833
413.676	2943.70833
417.61	2926.375
421.542	2872.375
425.47	2848.375
429.396	2828.375
433.318	2815.70833
437.236	2799.375
441.152	2808.70833
445.065	2780.70833
448.974	2749.70833
452.88	2718.70833
456.783	2689.70833
460.683	2699.04167
464.58	2686.04167
468.473	2682.04167
472.364	2686.04167
476.251	2694.70833
480.135	2703.70833
484.016	2716.375
487.894	2739.70833
491.769	2750.70833
495.641	2751.70833
499.509	2763.04167
503.375	2755.375
507.237	2755.70833
511.096	2726.70833
514.952	2759.70833
518.805	2765.04167
522.655	2763.04167
526.502	2712.375
530.346	2712.04167
534.187	2727.375
538.024	2734.04167
541.859	2745.375
545.69	2766.375
549.519	2745.04167
553.344	2735.04167
557.166	2703.70833
560.985	2648.375
564.802	2638.04167
568.615	2588.70833
572.425	2533.70833
576.232	2549.04167
580.036	2504.70833
583.836	2536.70833
587.634	2546.04167
591.429	2520.70833
595.221	2576.70833
599.01	2605.70833
602.796	2648.04167
606.578	2645.04167
610.358	2670.70833
614.135	2651.04167
617.909	2646.375
621.679	2608.70833
625.447	2611.375
629.212	2619.70833
632.973	2655.04167
636.732	2632.04167
640.488	2631.375
644.241	2623.04167
647.991	2582.375
651.737	2598.375
655.481	2585.375
659.222	2578.70833
662.96	2576.70833
666.695	2619.04167
670.427	2595.375
674.156	2607.375
677.882	2607.04167
681.605	2618.04167
685.325	2607.04167
689.043	2603.70833
692.757	2567.70833
696.468	2596.04167
700.177	2600.70833
703.882	2582.375
707.585	2593.04167
711.284	2583.70833
714.981	2578.04167
718.675	2597.70833
722.366	2614.04167
726.054	2588.70833
729.739	2604.70833
733.421	2600.04167
737.1	2584.375
740.777	2623.375
744.45	2643.70833
748.121	2636.70833
751.789	2702.70833
755.453	2683.04167
759.115	2707.375
762.774	2743.375
766.431	2770.70833
770.084	2781.04167
773.734	2814.375
777.382	2873.04167
781.027	2894.375
784.669	2916.375
788.308	2940.04167
791.944	2968.70833
795.577	2975.70833
799.208	3036.375
802.835	3031.04167
806.46	3061.04167
810.082	3101.70833
813.701	3105.70833
817.317	3128.375
820.931	3140.04167
824.542	3121.70833
828.149	3104.70833
831.754	3070.375
835.357	3058.375
838.956	3031.70833
842.553	3021.375
846.146	3008.04167
849.737	2999.375
853.326	2987.70833
856.911	3015.375
860.493	3104.375
864.073	3070.04167
867.65	3109.04167
871.225	3160.04167
874.796	3158.04167
878.365	3190.70833
881.931	3186.70833
885.494	3212.70833
889.054	3200.70833
892.612	3202.375
896.166	3172.375
899.719	3162.04167
903.268	3097.70833
906.814	3101.04167
910.358	3080.70833
913.899	3072.375
917.438	3073.375
920.973	3037.04167
924.506	3099.375
928.036	3165.04167
931.564	3188.70833
935.088	3195.70833
938.61	3220.375
942.129	3275.04167
945.646	3331.375
949.16	3399.70833
952.671	3462.70833
956.179	3499.375
959.685	3475.04167
963.188	3455.70833
966.688	3425.70833
970.185	3330.04167
973.68	3263.375
977.173	3238.70833
980.662	3228.70833
984.149	3253.04167
987.633	3252.70833
991.114	3319.375
994.593	3384.70833
998.069	3501.70833
1001.542	3617.04167
1005.013	3555.375
1008.481	3354.04167
1011.947	3299.375
1015.409	3282.04167
1018.869	3288.04167
1022.327	3274.70833
1025.782	3219.375
1029.234	3260.70833
1032.683	3237.70833
1036.13	3133.70833
1039.574	2987.04167
1043.016	2953.375
1046.455	2886.70833
1049.891	2837.70833
1053.325	2873.04167
1056.756	2845.70833
1060.184	2876.04167
1063.61	2885.70833
1067.033	2898.70833
1070.454	2896.04167
1073.872	2935.375
1077.287	2952.04167
1080.7	2917.375
1084.11	2940.04167
1087.517	2918.04167
1090.922	2879.04167
1094.325	2832.375
1097.724	2800.04167
1101.122	2796.70833
1104.516	2791.375
1107.908	2816.04167
1111.298	2849.04167
1114.684	2911.375
1118.069	2929.375
1121.45	2962.04167
1124.83	2947.70833
1128.206	2975.04167
1131.58	2998.375
1134.951	3059.70833
1138.32	3160.70833
1141.687	3275.04167
1145.05	3363.375
1148.412	3423.70833
1151.77	3407.70833
1155.126	3435.375
1158.48	3418.70833
1161.831	3428.375
1165.18	3446.04167
1168.525	3510.04167
1171.869	3564.70833
1175.21	3588.375
1178.548	3621.375
1181.884	3695.375
1185.217	3703.375
1188.548	3751.04167
1191.877	3803.04167
1195.202	3882.70833
1198.526	3925.70833
1201.846	3953.04167
1205.165	3947.375
1208.48	3863.70833
1211.794	3867.04167
1215.104	3885.04167
1218.413	3882.04167
1221.719	3904.375
1225.022	3857.70833
1228.323	3834.70833
1231.621	3831.04167
1234.917	3804.04167
1238.21	3827.04167
1241.501	3824.375
1244.79	3833.70833
1248.076	3838.70833
1251.359	3880.375
1254.64	3929.70833
1257.919	3948.04167
1261.195	4010.70833
1264.468	4058.70833
1267.74	4160.375
1271.008	4123.70833
1274.275	4123.70833
1277.538	4095.70833
1280.8	4069.04167
1284.059	4089.70833
1287.315	4109.70833
1290.569	4141.70833
1293.821	4166.375
1297.07	4164.70833
1300.317	4213.04167
1303.562	4167.04167
1306.803	4158.04167
1310.043	4098.70833
1313.28	4044.70833
1316.515	4047.375
1319.747	3964.04167
1322.977	3964.70833
1326.204	3872.70833
1329.429	3797.04167
1332.652	3783.375
1335.872	3768.70833
1339.09	3725.375
1342.306	3754.70833
1345.519	3732.70833
1348.729	3699.70833
1351.938	3678.04167
1355.144	3632.04167
1358.347	3575.375
1361.548	3590.04167
1364.747	3564.04167
1367.944	3559.70833
1371.138	3592.375
1374.329	3598.04167
1377.518	3656.70833
1380.705	3699.70833
1383.89	3702.04167
1387.072	3557.375
1390.252	3449.70833
1393.429	3348.70833
1396.605	3245.04167
1399.777	3179.04167
1402.948	3151.375
1406.116	3101.04167
1409.282	3107.375
1412.445	3114.375
1415.606	3162.375
1418.765	3185.375
1421.921	3246.375
1425.075	3319.70833
1428.227	3417.375
1431.376	3580.70833
1434.524	3702.70833
1437.668	3816.04167
1440.811	3844.70833
1443.951	3878.375
1447.089	3887.375
1450.224	3866.375
1453.357	3847.70833
1456.488	3825.04167
1459.617	3751.04167
1462.743	3711.375
1465.867	3606.70833
1468.989	3591.375
1472.108	3529.375
1475.225	3472.375
1478.34	3428.04167
1481.453	3420.04167
1484.563	3435.70833
1487.671	3446.70833
1490.776	3519.04167
1493.88	3610.375
1496.981	3667.04167
1500.08	3730.04167
1503.176	3800.70833
1506.271	3874.375
1509.363	3934.04167
1512.452	3979.70833
1515.54	4057.04167
1518.625	4183.375
1521.708	4365.70833
1524.789	4562.70833
1527.867	4867.375
1530.944	5188.04167
1534.018	5414.04167
1537.089	5542.375
1540.159	5498.70833
1543.226	5356.04167
1546.291	5164.04167
1549.354	4988.04167
1552.415	4812.04167
1555.473	4688.04167
1558.529	4608.70833
1561.583	4564.04167
1564.634	4503.375
1567.684	4522.70833
1570.731	4495.375
1573.776	4535.04167
1576.819	4585.04167
1579.859	4618.70833
1582.898	4679.70833
1585.934	4700.04167
1588.968	4740.04167
1591.999	4708.375
1595.029	4724.375
1598.056	4774.04167
1601.081	4761.70833
1604.104	4734.70833
1607.125	4702.04167
1610.144	4600.375
1613.16	4526.375
1616.174	4418.04167
1619.186	4320.70833
1622.196	4230.70833
1625.203	4111.375
1628.209	4050.04167
1631.212	4005.04167
1634.213	3993.375
1637.212	3950.375
1640.209	3878.70833
1643.203	3784.375
1646.196	3677.375
1649.186	3537.375
1652.174	3450.70833
1655.16	3309.375
1658.144	3226.375
1661.125	3064.70833
1664.105	2929.04167
1667.082	2809.04167
1670.057	2644.375
1673.03	2464.375
1676.001	2340.04167
1678.97	2172.375
1681.937	2038.375
1684.901	1943.375
1687.863	1869.70833
1690.824	1789.375
1693.782	1750.04167
1696.738	1705.375
1699.692	1659.04167
1702.643	1626.04167
1705.593	1605.70833
1708.54	1583.375
1711.486	1573.04167
1714.429	1529.04167
1717.37	1523.04167
1720.309	1487.04167
1723.246	1500.04167
1726.181	1465.375
1729.113	1469.70833
1732.044	1457.04167
1734.972	1424.375
1737.899	1435.04167
1740.823	1423.375
1743.745	1419.70833
1746.665	1357.70833
1749.583	1337.70833
1752.499	1314.04167
1755.413	1301.375
1758.325	1283.04167
1761.235	1269.375
1764.142	1251.70833
1767.048	1235.04167
1769.951	1227.70833
1772.852	1224.375
1775.752	1209.04167
1778.649	1216.04167
1781.544	1226.70833
1784.437	1181.04167
1787.328	1198.04167
1790.217	1201.04167
1793.104	1151.04167
1795.989	1146.04167
1798.872	1150.70833
1801.753	1164.70833
1804.631	1163.04167
1807.508	1162.04167
1810.383	1153.70833
1813.255	1144.04167
1816.126	1147.70833
1818.994	1123.375
1821.861	1114.375
1824.725	1120.04167
1827.587	1111.70833
1830.448	1105.375
1833.306	1094.04167
1836.162	1102.04167
1839.017	1086.375
1841.869	1090.375
1844.719	1073.375
1847.567	1077.70833
1850.414	1064.375
1853.258	1056.70833
1856.1	1091.375
1858.94	1090.70833
1861.778	1066.70833
1864.614	1064.04167
1867.448	1061.04167
1870.28	1062.70833
1873.111	1076.375
1875.939	1057.70833
1878.765	1076.70833
1881.589	1047.375
1884.411	1041.04167
1887.231	1056.375
1890.049	1043.04167
1892.865	1047.04167
1895.68	1029.375
1898.492	1028.70833
1901.302	1017.375
1904.11	1040.375
1906.916	1008.04167
1909.721	1014.70833
1912.523	1019.04167
1915.323	995.375
1918.122	996.70833
1920.918	1010.375
1923.712	989.70833
1926.505	999.04167
1929.295	979.04167
1932.084	990.70833
1934.87	981.04167
1937.655	982.70833
1940.438	973.375
1943.218	982.375
1945.997	985.04167
1948.774	1003.375
1951.549	992.04167
1954.322	990.70833
1957.093	988.375
1959.862	982.70833
1962.629	980.04167
1965.394	958.70833
1968.157	942.70833
1970.918	976.70833
1973.678	945.70833
1976.435	966.04167
1979.19	940.375
1981.944	953.04167
1984.696	952.70833
1987.445	936.04167
1990.193	959.04167
1992.939	958.04167
1995.683	941.04167
1998.425	927.70833
2001.165	938.375
2003.903	929.70833
2006.639	920.04167
2009.374	926.04167
2012.106	926.70833
2014.837	894.375
2017.566	929.375
2020.292	914.04167
2023.017	928.375
2025.74	909.375
2028.461	905.70833
2031.18	919.04167
2033.898	905.70833
2036.613	908.70833
2039.327	912.375
2042.038	889.70833
2044.748	894.70833
2047.456	887.70833
2050.162	874.04167
2052.866	890.04167
2055.568	901.04167
2058.268	892.375
2060.967	888.375
2063.663	872.375
2066.358	893.70833
2069.051	879.70833
2071.742	885.375
2074.431	887.375
2077.118	878.04167
2079.804	876.04167
2082.487	881.70833
2085.169	882.70833
2087.849	887.70833
2090.527	885.70833
2093.203	895.375
2095.877	901.04167
2098.55	891.375
2101.22	905.04167
2103.889	914.04167
2106.556	907.375
2109.221	938.375
2111.884	947.375
2114.546	1031.70833
2117.205	1078.70833
2119.863	1156.04167
2122.519	1238.04167
2125.173	1324.04167
2127.825	1425.04167
2130.475	1465.70833
2133.124	1447.375
2135.771	1399.70833
2138.416	1351.04167
2141.059	1271.04167
2143.7	1227.70833
2146.339	1139.70833
2148.977	1084.375
2151.613	1061.375
2154.247	1032.04167
2156.879	1006.70833
2159.51	990.70833
2162.138	971.375
2164.765	967.375
2167.39	951.70833
2170.013	966.04167
2172.634	960.70833
2175.254	937.375
2177.872	967.70833
2180.488	920.375
2183.102	933.70833
2185.714	914.04167
2188.325	882.375
2190.934	893.70833
2193.541	874.375
2196.146	868.375
2198.75	849.04167
2201.351	833.04167
2203.951	812.04167
2206.549	831.04167
2209.146	811.375
2211.74	808.375
2214.333	802.70833
2216.924	776.04167
2219.514	792.04167
2222.101	787.04167
2224.687	798.04167
2227.271	768.04167
2229.853	772.04167
2232.433	752.375
2235.012	781.70833
2237.589	766.70833
2240.164	782.04167
2242.738	769.375
2245.309	751.04167
2247.879	760.375
2250.448	749.04167
2253.014	732.375
2255.579	720.04167
2258.142	714.375
2260.703	702.70833
2263.262	709.04167
2265.82	710.375
2268.376	707.70833
2270.93	685.04167
2273.483	687.375
2276.033	693.04167
2278.583	691.70833
2281.13	682.375
2283.675	665.375
2286.219	667.04167
2288.761	679.375
2291.302	674.70833
2293.841	675.375
2296.377	653.70833
2298.913	661.375
2301.446	669.375
2303.978	660.70833
2306.508	647.04167
2309.037	656.04167
2311.563	654.375
2314.088	662.70833
2316.612	633.70833
2319.133	646.70833
2321.653	639.375
2324.171	640.70833
2326.688	640.70833
2329.202	632.70833
2331.715	640.04167
2334.227	627.04167
2336.736	636.04167
2339.244	629.375
2341.751	602.70833
2344.255	627.04167
2346.758	615.70833
2349.259	611.70833
2351.759	617.04167
2354.257	608.70833
2356.753	605.04167
2359.247	599.70833
2361.74	611.375
2364.231	603.375
2366.721	613.375
2369.209	596.375
2371.695	603.04167
2374.179	588.375
2376.662	604.375
2379.143	614.04167
2381.622	605.375
2384.1	600.375
2386.576	593.04167
2389.051	599.04167
2391.524	616.04167
2393.995	600.375
2396.464	586.04167
2398.932	580.375
2401.398	585.375
2403.863	587.04167
2406.325	583.04167
2408.787	580.375
2411.246	588.70833
2413.704	576.04167
2416.16	566.375
2418.615	565.375
2421.068	581.375
2423.519	569.04167
2425.969	560.375
2428.417	573.04167
2430.863	578.70833
2433.308	579.70833
2435.751	561.04167
2438.193	562.70833
2440.633	578.04167
2443.071	562.375
2445.508	560.375
2447.943	559.70833
2450.376	547.375
2452.808	566.375
2455.238	547.70833
2457.667	581.04167
2460.093	552.04167
2462.519	538.70833
2464.942	543.375
2467.365	556.375
2469.785	552.04167
2472.204	550.375
2474.621	539.04167
2477.037	566.375
2479.451	525.375
2481.863	531.70833
2484.274	535.375
2486.683	532.04167
2489.091	536.04167
2491.497	534.375
2493.901	533.70833
2496.304	531.70833
2498.705	539.375
2501.105	525.70833
2503.503	557.70833
2505.899	517.375
2508.294	550.04167
2510.687	519.375
2513.079	529.375
2515.469	511.04167
2517.858	511.70833
2520.245	536.70833
2522.63	514.375
2525.014	512.70833
2527.396	511.04167
2529.776	515.375
2532.156	528.375
2534.533	505.375
2536.909	504.04167
2539.283	493.375
2541.656	509.04167
2544.027	524.04167
2546.397	512.70833
2548.765	502.70833
2551.131	510.04167
2553.496	508.04167
2555.86	515.04167
2558.221	516.375
2560.582	499.04167
2562.94	487.70833
2565.298	494.04167
2567.653	517.04167
2570.007	488.375
2572.36	505.375
2574.711	484.70833
2577.06	520.375
2579.408	493.375
2581.754	499.70833
2584.099	498.375
2586.442	491.70833
2588.784	499.70833
2591.124	494.70833
2593.463	482.04167
2595.8	492.04167
2598.135	485.70833
2600.469	490.04167
2602.802	502.375
2605.133	501.375
2607.462	477.70833
2609.79	478.70833
2612.116	488.70833
2614.441	475.375
2616.764	490.04167
2619.086	480.375
2621.406	474.375
2623.725	497.04167
2626.042	484.375
2628.358	492.375
2630.672	483.375
2632.985	495.04167
2635.296	485.70833
2637.606	489.70833
2639.914	476.70833
2642.22	487.375
2644.525	490.375
2646.829	489.70833
2649.131	494.70833
2651.432	503.70833
2653.731	484.375
2656.028	498.375
2658.324	488.70833
2660.619	485.375
2662.912	503.04167
2665.204	482.375
2667.494	494.70833
2669.782	485.70833
2672.07	498.04167
2674.355	500.04167
2676.639	492.70833
2678.922	481.70833
2681.203	504.375
2683.483	488.70833
2685.761	478.04167
2688.038	501.375
2690.313	509.04167
2692.587	508.04167
2694.859	490.375
2697.13	494.375
2699.399	493.70833
2701.667	517.70833
2703.933	513.04167
2706.198	514.70833
2708.461	512.04167
2710.723	525.70833
2712.984	518.70833
2715.243	532.04167
2717.5	526.375
2719.757	531.04167
2722.011	532.04167
2724.264	534.375
2726.516	548.04167
2728.766	539.04167
2731.015	533.375
2733.262	531.70833
2735.508	532.375
2737.753	525.04167
2739.996	515.70833
2742.237	516.04167
2744.477	527.70833
2746.716	523.04167
2748.953	505.375
2751.189	511.375
2753.423	506.70833
2755.656	504.375
2757.887	490.70833
2760.117	502.70833
2762.346	494.375
2764.573	482.70833
2766.798	501.04167
2769.022	494.70833
2771.245	504.04167
2773.467	504.04167
2775.686	507.70833
2777.905	509.70833
2780.122	512.375
2782.337	519.04167
2784.552	506.04167
2786.764	527.375
2788.976	528.375
2791.186	532.70833
2793.394	528.375
2795.601	541.375
2797.807	556.04167
2800.011	551.04167
2802.214	568.04167
2804.415	564.70833
2806.615	574.70833
2808.814	591.70833
2811.011	594.04167
2813.206	592.375
2815.401	610.70833
2817.594	630.375
2819.785	640.04167
2821.975	632.70833
2824.164	648.375
2826.351	647.04167
2828.537	694.375
2830.722	693.70833
2832.905	698.70833
2835.086	734.04167
2837.267	783.70833
2839.445	827.375
2841.623	841.04167
2843.799	888.70833
2845.974	928.375
2848.147	967.04167
2850.319	1008.70833
2852.489	1034.04167
2854.659	1052.04167
2856.826	1068.70833
2858.993	1090.375
2861.158	1085.70833
2863.321	1081.04167
2865.483	1102.375
2867.644	1095.04167
2869.804	1088.375
2871.962	1094.70833
2874.118	1106.04167
2876.274	1088.70833
2878.428	1077.375
2880.58	1058.375
2882.731	1060.70833
2884.881	1082.375
2887.03	1063.70833
2889.177	1075.375
2891.322	1100.04167
2893.467	1080.375
2895.61	1092.70833
2897.751	1109.375
2899.892	1111.04167
2902.03	1114.04167
2904.168	1131.04167
2906.304	1132.70833
2908.439	1154.375
2910.572	1126.04167
2912.704	1127.375
2914.835	1153.04167
2916.965	1143.375
2919.093	1148.375
2921.219	1120.70833
2923.345	1142.04167
2925.469	1117.04167
2927.591	1093.70833
2929.712	1043.375
2931.832	1048.04167
2933.951	1025.375
2936.068	988.04167
2938.184	963.04167
2940.299	939.70833
2942.412	900.375
2944.524	862.04167
2946.634	851.04167
2948.744	780.375
2950.851	806.70833
2952.958	754.04167
2955.063	741.375
2957.167	725.04167
2959.269	682.375
2961.371	713.375
2963.471	643.04167
2965.569	652.04167
2967.666	612.04167
2969.762	607.04167
2971.857	585.70833
2973.95	553.04167
2976.042	561.70833
2978.133	539.04167
2980.222	534.04167
2982.31	503.04167
2984.396	491.04167
2986.482	493.70833
2988.566	487.375
2990.648	467.70833
2992.73	461.04167
2994.81	451.04167
2996.889	458.375
2998.966	445.70833
3001.042	448.70833
3003.117	436.70833
3005.191	431.375
3007.263	432.70833
3009.334	429.375
3011.403	408.04167
3013.472	400.375
3015.539	399.04167
3017.604	413.70833
3019.669	382.04167
3021.732	371.375
3023.794	385.70833
3025.854	362.375
3027.914	368.70833
3029.971	368.70833
3032.028	366.70833
3034.083	363.70833
3036.137	367.04167
3038.19	344.70833
3040.242	339.375
3042.292	330.70833
3044.341	322.04167
3046.388	344.04167
3048.435	311.375
3050.48	339.04167
3052.524	326.70833
3054.566	303.04167
3056.607	322.04167
3058.647	311.375
3060.686	288.70833
3062.723	289.70833
3064.759	275.70833
3066.794	-0.29167
3068.828	-1.29167
3070.86	-0.95833
