-0.839	434.16667
3.438	505.5
7.711	146.5
11.981	56.5
16.247	50.5
20.509	44.83333
24.768	46.83333
29.024	49.5
33.276	43.5
37.524	54.83333
41.769	46.83333
46.01	37.16667
50.247	57.83333
54.481	63.83333
58.712	73.16667
62.939	53.16667
67.162	58.5
71.382	57.16667
75.599	50.5
79.812	66.83333
84.021	86.83333
88.227	66.5
92.429	67.16667
96.628	52.5
100.823	71.16667
105.015	77.5
109.204	81.83333
113.388	82.5
117.57	78.16667
121.748	92.5
125.922	90.83333
130.093	107.5
134.261	117.83333
138.425	107.5
142.585	154.5
146.742	155.16667
150.896	189.5
155.046	230.5
159.193	371.16667
163.336	614.16667
167.476	1123.83333
171.613	2061.5
175.746	3506.5
179.875	5243.83333
184.002	6901.5
188.124	8080.83333
192.244	8482.83333
196.36	8481.16667
200.472	8285.16667
204.581	8091.5
208.687	7864.5
212.79	7840.5
216.889	7832.5
220.984	7893.5
225.077	7966.5
229.165	8094.5
233.251	8191.5
237.333	8203.5
241.412	8251.83333
245.487	8183.16667
249.559	8117.83333
253.628	8026.16667
257.694	7964.16667
261.756	7852.5
265.814	7680.5
269.87	7474.83333
273.922	7259.16667
277.97	7087.16667
282.016	6969.5
286.058	6908.16667
290.097	6882.16667
294.132	6901.16667
298.164	6788.5
302.193	6459.16667
306.219	6009.16667
310.241	5463.83333
314.26	4958.5
318.276	4551.5
322.288	4238.83333
326.297	4012.83333
330.303	3838.16667
334.305	3710.5
338.305	3611.5
342.301	3574.16667
346.294	3507.83333
350.283	3475.83333
354.269	3417.5
358.252	3409.5
362.232	3381.83333
366.209	3331.83333
370.182	3304.5
374.152	3310.83333
378.119	3293.5
382.083	3288.83333
386.043	3299.16667
390	3257.16667
393.954	3238.16667
397.905	3203.5
401.852	3182.5
405.797	3159.16667
409.738	3089.83333
413.676	3094.16667
417.61	3052.5
421.542	3017.5
425.47	2983.5
429.396	2987.5
433.318	2932.16667
437.236	2923.5
441.152	2939.83333
445.065	2873.16667
448.974	2854.16667
452.88	2823.5
456.783	2814.16667
460.683	2806.5
464.58	2807.5
468.473	2807.16667
472.364	2817.5
476.251	2847.5
480.135	2847.16667
484.016	2868.83333
487.894	2861.16667
491.769	2893.83333
495.641	2895.16667
499.509	2884.16667
503.375	2871.5
507.237	2878.83333
511.096	2866.16667
514.952	2881.16667
518.805	2862.83333
522.655	2885.16667
526.502	2858.16667
530.346	2847.83333
534.187	2864.5
538.024	2895.16667
541.859	2894.5
545.69	2923.83333
549.519	2902.16667
553.344	2864.5
557.166	2825.83333
560.985	2810.83333
564.802	2766.5
568.615	2709.83333
572.425	2706.5
576.232	2667.83333
580.036	2676.16667
583.836	2661.16667
587.634	2664.16667
591.429	2639.16667
595.221	2712.83333
599.01	2737.5
602.796	2767.5
606.578	2815.5
610.358	2812.5
614.135	2785.5
617.909	2796.83333
621.679	2769.16667
625.447	2745.16667
629.212	2749.5
632.973	2768.16667
636.732	2775.83333
640.488	2745.16667
644.241	2719.83333
647.991	2714.5
651.737	2731.83333
655.481	2697.83333
659.222	2698.5
662.96	2707.83333
666.695	2728.16667
670.427	2735.16667
674.156	2739.16667
677.882	2752.83333
681.605	2739.83333
685.325	2709.83333
689.043	2732.83333
692.757	2705.16667
696.468	2686.16667
700.177	2715.5
703.882	2691.16667
707.585	2728.16667
711.284	2702.5
714.981	2712.5
718.675	2722.83333
722.366	2744.83333
726.054	2711.83333
729.739	2730.83333
733.421	2728.83333
737.1	2722.16667
740.777	2744.16667
744.45	2762.16667
748.121	2774.83333
751.789	2822.5
755.453	2831.5
759.115	2865.83333
762.774	2871.16667
766.431	2902.16667
770.084	2920.5
773.734	2971.16667
777.382	3024.83333
781.027	3072.83333
784.669	3082.16667
788.308	3062.5
791.944	3113.16667
795.577	3145.16667
799.208	3156.83333
802.835	3169.5
806.46	3196.83333
810.082	3229.16667
813.701	3225.83333
817.317	3264.83333
820.931	3251.5
824.542	3249.83333
828.149	3218.83333
831.754	3241.16667
835.357	3210.16667
838.956	3191.16667
842.553	3178.5
846.146	3160.16667
849.737	3136.5
853.326	3163.16667
856.911	3177.16667
860.493	3230.16667
864.073	3253.5
867.65	3300.16667
871.225	3347.16667
874.796	3357.16667
878.365	3363.83333
881.931	3390.83333
885.494	3407.5
889.054	3414.16667
892.612	3411.16667
896.166	3367.83333
899.719	3349.83333
903.268	3305.83333
906.814	3297.5
910.358	3296.5
913.899	3256.83333
917.438	3287.16667
920.973	3264.83333
924.506	3315.5
928.036	3338.16667
931.564	3382.5
935.088	3417.16667
938.61	3419.83333
942.129	3472.5
945.646	3559.83333
949.16	3637.83333
952.671	3732.16667
956.179	3745.16667
959.685	3740.83333
963.188	3683.16667
966.688	3615.16667
970.185	3553.83333
973.68	3466.5
977.173	3426.16667
980.662	3391.16667
984.149	3407.16667
987.633	3419.16667
991.114	3447.83333
994.593	3547.83333
998.069	3698.5
1001.542	3783.83333
1005.013	3736.83333
1008.481	3535.5
1011.947	3471.16667
1015.409	3451.83333
1018.869	3449.83333
1022.327	3448.16667
1025.782	3394.83333
1029.234	3397.5
1032.683	3358.83333
1036.13	3245.16667
1039.574	3152.83333
1043.016	3090.5
1046.455	3003.16667
1049.891	2949.83333
1053.325	2963.5
1056.756	2963.16667
1060.184	3006.16667
1063.61	3008.83333
1067.033	3017.5
1070.454	3060.16667
1073.872	3059.83333
1077.287	3070.83333
1080.7	3065.16667
1084.11	3093.16667
1087.517	3071.5
1090.922	3019.16667
1094.325	3000.16667
1097.724	2967.16667
1101.122	2980.83333
1104.516	2962.16667
1107.908	2958.83333
1111.298	3005.16667
1114.684	3048.83333
1118.069	3103.5
1121.45	3114.83333
1124.83	3115.83333
1128.206	3161.5
1131.58	3174.16667
1134.951	3288.5
1138.32	3380.83333
1141.687	3511.5
1145.05	3628.16667
1148.412	3687.83333
1151.77	3644.5
1155.126	3657.5
1158.48	3647.83333
1161.831	3665.5
1165.18	3688.83333
1168.525	3738.5
1171.869	3788.16667
1175.21	3843.5
1178.548	3888.5
1181.884	3889.16667
1185.217	3943.5
1188.548	4010.16667
1191.877	4065.83333
1195.202	4159.83333
1198.526	4212.83333
1201.846	4204.83333
1205.165	4249.83333
1208.48	4204.83333
1211.794	4203.83333
1215.104	4207.5
1218.413	4185.5
1221.719	4205.16667
1225.022	4164.5
1228.323	4109.83333
1231.621	4122.16667
1234.917	4066.16667
1238.21	4130.83333
1241.501	4107.83333
1244.79	4116.5
1248.076	4098.5
1251.359	4123.16667
1254.64	4210.16667
1257.919	4252.83333
1261.195	4314.83333
1264.468	4404.5
1267.74	4472.83333
1271.008	4475.5
1274.275	4462.16667
1277.538	4427.5
1280.8	4401.83333
1284.059	4391.83333
1287.315	4425.83333
1290.569	4451.83333
1293.821	4456.5
1297.07	4508.83333
1300.317	4520.16667
1303.562	4508.16667
1306.803	4483.16667
1310.043	4439.83333
1313.28	4377.5
1316.515	4342.83333
1319.747	4285.5
1322.977	4224.16667
1326.204	4157.5
1329.429	4073.83333
1332.652	4047.16667
1335.872	4042.16667
1339.09	4003.5
1342.306	4020.83333
1345.519	3969.83333
1348.729	3935.5
1351.938	3917.5
1355.144	3852.16667
1358.347	3846.5
1361.548	3837.83333
1364.747	3843.16667
1367.944	3826.5
1371.138	3887.16667
1374.329	3916.83333
1377.518	3966.83333
1380.705	4006.83333
1383.89	3987.83333
1387.072	3895.83333
1390.252	3723.83333
1393.429	3617.83333
1396.605	3465.16667
1399.777	3378.83333
1402.948	3352.5
1406.116	3314.5
1409.282	3308.83333
1412.445	3304.83333
1415.606	3350.16667
1418.765	3413.5
1421.921	3453.83333
1425.075	3554.5
1428.227	3710.16667
1431.376	3873.83333
1434.524	4014.83333
1437.668	4085.83333
1440.811	4135.5
1443.951	4177.5
1447.089	4176.16667
1450.224	4161.5
1453.357	4161.83333
1456.488	4156.5
1459.617	4099.83333
1462.743	4002.16667
1465.867	3919.5
1468.989	3890.83333
1472.108	3826.16667
1475.225	3745.5
1478.34	3701.16667
1481.453	3705.16667
1484.563	3713.5
1487.671	3766.16667
1490.776	3833.83333
1493.88	3949.5
1496.981	4028.83333
1500.08	4111.16667
1503.176	4185.16667
1506.271	4233.83333
1509.363	4327.83333
1512.452	4362.16667
1515.54	4434.83333
1518.625	4562.16667
1521.708	4722.83333
1524.789	4935.5
1527.867	5198.83333
1530.944	5519.5
1534.018	5764.16667
1537.089	5949.16667
1540.159	5899.5
1543.226	5781.83333
1546.291	5587.83333
1549.354	5396.5
1552.415	5229.83333
1555.473	5076.16667
1558.529	5000.83333
1561.583	4936.16667
1564.634	4887.16667
1567.684	4887.5
1570.731	4910.83333
1573.776	4929.5
1576.819	4976.5
1579.859	5030.5
1582.898	5108.83333
1585.934	5117.83333
1588.968	5146.16667
1591.999	5120.5
1595.029	5118.5
1598.056	5188.5
1601.081	5177.83333
1604.104	5152.16667
1607.125	5122.5
1610.144	5012.16667
1613.16	4900.5
1616.174	4763.16667
1619.186	4662.5
1622.196	4524.16667
1625.203	4438.16667
1628.209	4342.83333
1631.212	4285.5
1634.213	4222.83333
1637.212	4185.5
1640.209	4115.16667
1643.203	4007.83333
1646.196	3880.83333
1649.186	3766.83333
1652.174	3629.5
1655.16	3517.83333
1658.144	3410.83333
1661.125	3271.16667
1664.105	3136.83333
1667.082	2968.5
1670.057	2808.5
1673.03	2642.5
1676.001	2465.5
1678.97	2306.16667
1681.937	2177.16667
1684.901	2065.83333
1687.863	2007.16667
1690.824	1891.83333
1693.782	1877.5
1696.738	1829.5
1699.692	1755.16667
1702.643	1730.5
1705.593	1685.83333
1708.54	1672.16667
1711.486	1662.5
1714.429	1621.83333
1717.37	1605.16667
1720.309	1583.5
1723.246	1587.16667
1726.181	1546.83333
1729.113	1548.16667
1732.044	1508.5
1734.972	1504.83333
1737.899	1499.16667
1740.823	1484.16667
1743.745	1500.5
1746.665	1437.5
1749.583	1433.83333
1752.499	1417.83333
1755.413	1375.5
1758.325	1362.83333
1761.235	1341.83333
1764.142	1316.5
1767.048	1318.16667
1769.951	1301.5
1772.852	1283.5
1775.752	1268.83333
1778.649	1287.16667
1781.544	1272.16667
1784.437	1247.16667
1787.328	1249.16667
1790.217	1253.5
1793.104	1220.16667
1795.989	1214.83333
1798.872	1219.83333
1801.753	1233.5
1804.631	1237.83333
1807.508	1237.83333
1810.383	1217.83333
1813.255	1208.83333
1816.126	1198.83333
1818.994	1207.16667
1821.861	1183.5
1824.725	1173.83333
1827.587	1180.5
1830.448	1179.83333
1833.306	1147.83333
1836.162	1169.83333
1839.017	1152.5
1841.869	1151.16667
1844.719	1146.16667
1847.567	1130.83333
1850.414	1128.83333
1853.258	1135.83333
1856.1	1140.5
1858.94	1144.16667
1861.778	1127.5
1864.614	1121.83333
1867.448	1135.16667
1870.28	1128.16667
1873.111	1134.83333
1875.939	1114.83333
1878.765	1133.5
1881.589	1117.16667
1884.411	1114.16667
1887.231	1118.16667
1890.049	1114.83333
1892.865	1101.16667
1895.68	1085.5
1898.492	1102.16667
1901.302	1075.83333
1904.11	1078.16667
1906.916	1059.83333
1909.721	1057.83333
1912.523	1079.83333
1915.323	1058.5
1918.122	1055.16667
1920.918	1064.83333
1923.712	1050.16667
1926.505	1061.83333
1929.295	1030.16667
1932.084	1064.83333
1934.87	1072.5
1937.655	1037.5
1940.438	1042.16667
1943.218	1037.5
1945.997	1054.5
1948.774	1057.83333
1951.549	1043.83333
1954.322	1035.16667
1957.093	1042.83333
1959.862	1028.5
1962.629	1044.16667
1965.394	1025.16667
1968.157	1012.5
1970.918	1024.83333
1973.678	1010.83333
1976.435	1011.16667
1979.19	1004.5
1981.944	1009.83333
1984.696	988.5
1987.445	989.5
1990.193	982.83333
1992.939	1000.83333
1995.683	995.16667
1998.425	963.16667
2001.165	1003.16667
2003.903	986.16667
2006.639	983.16667
2009.374	993.16667
2012.106	985.83333
2014.837	959.16667
2017.566	981.83333
2020.292	985.16667
2023.017	982.16667
2025.74	961.16667
2028.461	966.5
2031.18	958.83333
2033.898	954.16667
2036.613	966.16667
2039.327	968.5
2042.038	951.16667
2044.748	970.16667
2047.456	953.83333
2050.162	942.83333
2052.866	945.83333
2055.568	944.16667
2058.268	950.5
2060.967	966.5
2063.663	937.83333
2066.358	945.83333
2069.051	925.83333
2071.742	943.16667
2074.431	934.5
2077.118	943.5
2079.804	920.16667
2082.487	940.5
2085.169	934.16667
2087.849	961.83333
2090.527	932.16667
2093.203	946.83333
2095.877	950.83333
2098.55	962.5
2101.22	975.16667
2103.889	978.16667
2106.556	990.83333
2109.221	1020.16667
2111.884	1064.16667
2114.546	1119.5
2117.205	1199.16667
2119.863	1309.5
2122.519	1422.83333
2125.173	1519.5
2127.825	1656.16667
2130.475	1664.83333
2133.124	1649.83333
2135.771	1607.5
2138.416	1517.16667
2141.059	1430.5
2143.7	1344.16667
2146.339	1274.16667
2148.977	1197.5
2151.613	1174.16667
2154.247	1138.5
2156.879	1099.83333
2159.51	1073.83333
2162.138	1059.5
2164.765	1058.16667
2167.39	1052.5
2170.013	1045.83333
2172.634	1039.5
2175.254	1028.83333
2177.872	1056.5
2180.488	1016.5
2183.102	1006.5
2185.714	995.83333
2188.325	967.5
2190.934	974.16667
2193.541	954.83333
2196.146	940.83333
2198.75	921.5
2201.351	908.83333
2203.951	887.83333
2206.549	898.83333
2209.146	881.83333
2211.74	851.5
2214.333	867.16667
2216.924	839.16667
2219.514	844.5
2222.101	828.16667
2224.687	851.83333
2227.271	824.16667
2229.853	819.5
2232.433	813.16667
2235.012	833.83333
2237.589	822.83333
2240.164	814.5
2242.738	817.83333
2245.309	789.83333
2247.879	806.16667
2250.448	810.16667
2253.014	774.16667
2255.579	766.16667
2258.142	773.5
2260.703	748.16667
2263.262	744.5
2265.82	745.16667
2268.376	737.5
2270.93	748.83333
2273.483	728.16667
2276.033	744.16667
2278.583	736.16667
2281.13	713.83333
2283.675	721.83333
2286.219	727.83333
2288.761	712.83333
2291.302	714.16667
2293.841	728.5
2296.377	689.83333
2298.913	707.16667
2301.446	711.16667
2303.978	699.83333
2306.508	692.83333
2309.037	690.83333
2311.563	700.83333
2314.088	703.83333
2316.612	673.5
2319.133	696.5
2321.653	687.83333
2324.171	670.83333
2326.688	682.16667
2329.202	673.16667
2331.715	684.5
2334.227	675.83333
2336.736	665.5
2339.244	661.83333
2341.751	652.83333
2344.255	664.83333
2346.758	652.5
2349.259	646.16667
2351.759	653.16667
2354.257	641.16667
2356.753	646.5
2359.247	646.5
2361.74	661.83333
2364.231	645.83333
2366.721	650.83333
2369.209	639.5
2371.695	641.5
2374.179	633.83333
2376.662	630.83333
2379.143	643.16667
2381.622	634.5
2384.1	640.5
2386.576	624.83333
2389.051	645.16667
2391.524	649.83333
2393.995	646.83333
2396.464	624.16667
2398.932	619.83333
2401.398	621.83333
2403.863	615.5
2406.325	618.16667
2408.787	612.16667
2411.246	613.83333
2413.704	607.83333
2416.16	609.16667
2418.615	604.83333
2421.068	611.83333
2423.519	613.83333
2425.969	600.83333
2428.417	607.16667
2430.863	626.5
2433.308	616.5
2435.751	604.83333
2438.193	606.5
2440.633	609.16667
2443.071	593.5
2445.508	585.5
2447.943	592.83333
2450.376	587.83333
2452.808	604.5
2455.238	577.5
2457.667	608.16667
2460.093	591.16667
2462.519	577.5
2464.942	571.83333
2467.365	586.5
2469.785	580.16667
2472.204	581.83333
2474.621	566.83333
2477.037	581.83333
2479.451	572.5
2481.863	557.5
2484.274	559.16667
2486.683	574.83333
2489.091	580.83333
2491.497	564.83333
2493.901	570.16667
2496.304	563.5
2498.705	569.16667
2501.105	565.16667
2503.503	588.16667
2505.899	555.16667
2508.294	570.83333
2510.687	544.5
2513.079	557.16667
2515.469	550.16667
2517.858	546.16667
2520.245	563.83333
2522.63	549.5
2525.014	549.16667
2527.396	541.83333
2529.776	541.83333
2532.156	555.16667
2534.533	534.5
2536.909	538.5
2539.283	527.16667
2541.656	541.5
2544.027	562.5
2546.397	545.5
2548.765	534.16667
2551.131	522.16667
2553.496	547.16667
2555.86	546.83333
2558.221	534.16667
2560.582	531.16667
2562.94	515.83333
2565.298	525.5
2567.653	532.5
2570.007	514.5
2572.36	529.16667
2574.711	526.5
2577.06	548.83333
2579.408	531.16667
2581.754	518.16667
2584.099	529.16667
2586.442	519.16667
2588.784	527.5
2591.124	527.16667
2593.463	518.83333
2595.8	513.83333
2598.135	507.83333
2600.469	515.5
2602.802	524.83333
2605.133	535.83333
2607.462	513.16667
2609.79	504.83333
2612.116	521.5
2614.441	513.16667
2616.764	521.5
2619.086	505.83333
2621.406	511.5
2623.725	526.16667
2626.042	519.16667
2628.358	513.83333
2630.672	505.83333
2632.985	517.83333
2635.296	513.5
2637.606	523.16667
2639.914	503.83333
2642.22	503.16667
2644.525	506.83333
2646.829	510.16667
2649.131	526.16667
2651.432	527.5
2653.731	509.83333
2656.028	528.5
2658.324	523.83333
2660.619	508.83333
2662.912	522.83333
2665.204	503.83333
2667.494	525.83333
2669.782	511.5
2672.07	521.5
2674.355	525.5
2676.639	517.16667
2678.922	508.16667
2681.203	527.83333
2683.483	503.83333
2685.761	496.83333
2688.038	532.83333
2690.313	538.5
2692.587	529.83333
2694.859	518.5
2697.13	525.5
2699.399	529.83333
2701.667	536.16667
2703.933	541.5
2706.198	530.16667
2708.461	552.83333
2710.723	553.16667
2712.984	547.83333
2715.243	559.83333
2717.5	551.16667
2719.757	565.83333
2722.011	558.83333
2724.264	575.16667
2726.516	581.16667
2728.766	567.5
2731.015	563.16667
2733.262	550.16667
2735.508	560.5
2737.753	563.83333
2739.996	550.5
2742.237	544.16667
2744.477	551.16667
2746.716	552.5
2748.953	542.16667
2751.189	543.16667
2753.423	540.5
2755.656	531.83333
2757.887	523.16667
2760.117	533.5
2762.346	522.83333
2764.573	519.16667
2766.798	519.83333
2769.022	529.83333
2771.245	522.83333
2773.467	531.16667
2775.686	528.16667
2777.905	531.83333
2780.122	542.16667
2782.337	544.83333
2784.552	545.5
2786.764	552.16667
2788.976	559.83333
2791.186	566.16667
2793.394	568.5
2795.601	574.83333
2797.807	584.83333
2800.011	601.5
2802.214	603.16667
2804.415	607.16667
2806.615	617.16667
2808.814	626.16667
2811.011	635.16667
2813.206	627.83333
2815.401	651.83333
2817.594	671.16667
2819.785	682.16667
2821.975	671.83333
2824.164	700.5
2826.351	712.5
2828.537	737.83333
2830.722	751.5
2832.905	767.16667
2835.086	803.5
2837.267	850.5
2839.445	862.83333
2841.623	886.16667
2843.799	940.5
2845.974	988.83333
2848.147	1024.83333
2850.319	1069.16667
2852.489	1108.5
2854.659	1125.16667
2856.826	1142.5
2858.993	1170.5
2861.158	1161.16667
2863.321	1167.5
2865.483	1174.83333
2867.644	1177.5
2869.804	1176.83333
2871.962	1151.83333
2874.118	1174.83333
2876.274	1155.16667
2878.428	1164.83333
2880.58	1141.83333
2882.731	1130.83333
2884.881	1141.5
2887.03	1151.5
2889.177	1147.5
2891.322	1166.5
2893.467	1148.16667
2895.61	1164.83333
2897.751	1194.5
2899.892	1193.5
2902.03	1205.83333
2904.168	1216.5
2906.304	1200.5
2908.439	1233.16667
2910.572	1223.16667
2912.704	1218.16667
2914.835	1228.16667
2916.965	1235.16667
2919.093	1232.16667
2921.219	1184.83333
2923.345	1215.16667
2925.469	1193.83333
2927.591	1168.16667
2929.712	1121.16667
2931.832	1127.5
2933.951	1087.5
2936.068	1068.83333
2938.184	1042.5
2940.299	996.5
2942.412	973.16667
2944.524	917.5
2946.634	908.5
2948.744	833.83333
2950.851	854.83333
2952.958	803.83333
2955.063	781.83333
2957.167	764.16667
2959.269	727.83333
2961.371	725.83333
2963.471	684.16667
2965.569	690.83333
2967.666	653.5
2969.762	624.5
2971.857	613.83333
2973.95	591.5
2976.042	586.16667
2978.133	566.83333
2980.222	548.16667
2982.31	524.83333
2984.396	505.83333
2986.482	505.5
2988.566	489.83333
2990.648	483.16667
2992.73	474.5
2994.81	461.83333
2996.889	454.16667
2998.966	461.5
3001.042	453.83333
3003.117	445.16667
3005.191	445.16667
3007.263	437.5
3009.334	424.5
3011.403	429.83333
3013.472	410.83333
3015.539	411.5
3017.604	420.16667
3019.669	380.16667
3021.732	388.16667
3023.794	394.83333
3025.854	366.83333
3027.914	371.16667
3029.971	375.16667
3032.028	361.5
3034.083	364.16667
3036.137	373.5
3038.19	346.83333
3040.242	336.16667
3042.292	328.83333
3044.341	326.5
3046.388	346.16667
3048.435	308.5
3050.48	334.83333
3052.524	328.5
3054.566	304.16667
3056.607	327.16667
3058.647	313.83333
3060.686	283.83333
3062.723	287.16667
3064.759	278.5
3066.794	-0.16667
3068.828	-2.5
3070.86	-0.16667
