-0.839	465.5
3.438	495.5
7.711	145.16667
11.981	56.5
16.247	50.83333
20.509	46.16667
24.768	44.83333
29.024	49.16667
33.276	44.83333
37.524	50.83333
41.769	43.16667
46.01	36.83333
50.247	52.5
54.481	62.16667
58.712	65.5
62.939	48.83333
67.162	64.83333
71.382	59.83333
75.599	52.5
79.812	64.16667
84.021	83.5
88.227	61.5
92.429	63.16667
96.628	54.5
100.823	71.5
105.015	77.16667
109.204	76.83333
113.388	84.16667
117.57	79.83333
121.748	96.16667
125.922	85.5
130.093	104.83333
134.261	113.83333
138.425	105.83333
142.585	149.5
146.742	151.16667
150.896	176.83333
155.046	219.16667
159.193	353.5
163.336	601.5
167.476	1107.83333
171.613	2055.83333
175.746	3456.5
179.875	5142.16667
184.002	6735.83333
188.124	7830.5
192.244	8189.83333
196.36	8144.16667
200.472	7950.5
204.581	7780.5
208.687	7605.16667
212.79	7539.83333
216.889	7640.16667
220.984	7782.16667
225.077	7851.5
229.165	8013.16667
233.251	8078.5
237.333	8195.16667
241.412	8245.5
245.487	8189.83333
249.559	8145.5
253.628	8040.83333
257.694	7984.5
261.756	7914.5
265.814	7731.5
269.87	7516.16667
273.922	7242.83333
277.97	7045.16667
282.016	6860.5
286.058	6786.5
290.097	6745.5
294.132	6712.83333
298.164	6576.5
302.193	6270.16667
306.219	5811.16667
310.241	5271.5
314.26	4802.83333
318.276	4382.16667
322.288	4068.16667
326.297	3847.5
330.303	3671.16667
334.305	3543.5
338.305	3461.83333
342.301	3402.16667
346.294	3367.16667
350.283	3310.5
354.269	3312.83333
358.252	3267.83333
362.232	3250.5
366.209	3246.16667
370.182	3196.16667
374.152	3170.5
378.119	3187.16667
382.083	3166.5
386.043	3204.16667
390	3135.83333
393.954	3119.5
397.905	3094.5
401.852	3063.83333
405.797	3022.5
409.738	2978.83333
413.676	3002.5
417.61	2938.16667
421.542	2911.16667
425.47	2867.16667
429.396	2826.16667
433.318	2811.5
437.236	2815.16667
441.152	2805.83333
445.065	2750.83333
448.974	2750.16667
452.88	2731.5
456.783	2677.83333
460.683	2701.16667
464.58	2684.16667
468.473	2697.83333
472.364	2706.83333
476.251	2715.16667
480.135	2719.16667
484.016	2725.16667
487.894	2762.5
491.769	2772.16667
495.641	2779.5
499.509	2762.5
503.375	2770.83333
507.237	2752.16667
511.096	2736.83333
514.952	2772.5
518.805	2783.16667
522.655	2789.83333
526.502	2727.16667
530.346	2727.16667
534.187	2738.83333
538.024	2729.5
541.859	2756.16667
545.69	2764.5
549.519	2732.5
553.344	2741.5
557.166	2695.83333
560.985	2668.5
564.802	2635.5
568.615	2600.5
572.425	2561.83333
576.232	2534.5
580.036	2538.5
583.836	2552.16667
587.634	2554.5
591.429	2567.5
595.221	2579.5
599.01	2601.83333
602.796	2619.5
606.578	2677.5
610.358	2680.83333
614.135	2651.83333
617.909	2639.5
621.679	2625.5
625.447	2619.5
629.212	2636.83333
632.973	2641.83333
636.732	2629.5
640.488	2623.5
644.241	2588.83333
647.991	2608.16667
651.737	2630.83333
655.481	2590.83333
659.222	2603.5
662.96	2586.16667
666.695	2615.16667
670.427	2622.16667
674.156	2635.16667
677.882	2618.83333
681.605	2617.83333
685.325	2597.83333
689.043	2613.83333
692.757	2591.5
696.468	2595.16667
700.177	2614.16667
703.882	2588.16667
707.585	2609.5
711.284	2576.16667
714.981	2592.16667
718.675	2582.83333
722.366	2647.16667
726.054	2577.16667
729.739	2610.83333
733.421	2595.5
737.1	2601.16667
740.777	2614.5
744.45	2636.16667
748.121	2659.5
751.789	2691.83333
755.453	2689.5
759.115	2706.16667
762.774	2753.5
766.431	2778.5
770.084	2793.16667
773.734	2822.5
777.382	2866.16667
781.027	2903.83333
784.669	2924.16667
788.308	2942.83333
791.944	2970.16667
795.577	2973.16667
799.208	3039.5
802.835	3059.83333
806.46	3065.16667
810.082	3085.5
813.701	3101.5
817.317	3136.16667
820.931	3137.5
824.542	3120.16667
828.149	3103.16667
831.754	3073.83333
835.357	3040.5
838.956	3025.83333
842.553	3005.16667
846.146	2997.83333
849.737	2969.16667
853.326	3021.83333
856.911	3012.16667
860.493	3059.5
864.073	3068.83333
867.65	3132.5
871.225	3152.5
874.796	3179.16667
878.365	3164.5
881.931	3190.16667
885.494	3208.83333
889.054	3168.5
892.612	3174.83333
896.166	3178.5
899.719	3132.5
903.268	3095.16667
906.814	3085.5
910.358	3077.83333
913.899	3029.5
917.438	3038.5
920.973	3046.83333
924.506	3075.5
928.036	3123.5
931.564	3159.16667
935.088	3201.83333
938.61	3200.5
942.129	3232.16667
945.646	3320.16667
949.16	3397.5
952.671	3439.83333
956.179	3472.5
959.685	3473.83333
963.188	3455.83333
966.688	3403.16667
970.185	3311.5
973.68	3251.5
977.173	3246.5
980.662	3232.83333
984.149	3242.83333
987.633	3257.83333
991.114	3288.5
994.593	3391.83333
998.069	3491.16667
1001.542	3595.5
1005.013	3516.83333
1008.481	3334.83333
1011.947	3279.83333
1015.409	3271.83333
1018.869	3302.5
1022.327	3285.83333
1025.782	3210.5
1029.234	3253.16667
1032.683	3209.5
1036.13	3101.83333
1039.574	2994.83333
1043.016	2916.83333
1046.455	2878.83333
1049.891	2813.5
1053.325	2824.83333
1056.756	2847.83333
1060.184	2859.16667
1063.61	2890.5
1067.033	2891.16667
1070.454	2882.5
1073.872	2922.16667
1077.287	2938.16667
1080.7	2950.5
1084.11	2919.83333
1087.517	2911.5
1090.922	2865.83333
1094.325	2819.16667
1097.724	2801.5
1101.122	2815.83333
1104.516	2775.83333
1107.908	2783.16667
1111.298	2844.5
1114.684	2895.16667
1118.069	2917.16667
1121.45	2950.16667
1124.83	2916.83333
1128.206	2963.16667
1131.58	2994.83333
1134.951	3049.83333
1138.32	3157.5
1141.687	3274.83333
1145.05	3359.83333
1148.412	3399.16667
1151.77	3385.16667
1155.126	3371.5
1158.48	3376.83333
1161.831	3372.5
1165.18	3439.5
1168.525	3506.83333
1171.869	3505.83333
1175.21	3559.5
1178.548	3595.83333
1181.884	3623.5
1185.217	3672.16667
1188.548	3734.83333
1191.877	3757.83333
1195.202	3845.83333
1198.526	3897.5
1201.846	3901.16667
1205.165	3908.5
1208.48	3902.83333
1211.794	3845.16667
1215.104	3869.5
1218.413	3876.5
1221.719	3856.83333
1225.022	3836.83333
1228.323	3797.16667
1231.621	3799.16667
1234.917	3798.83333
1238.21	3820.5
1241.501	3812.16667
1244.79	3790.16667
1248.076	3831.16667
1251.359	3858.5
1254.64	3896.83333
1257.919	3945.83333
1261.195	3964.16667
1264.468	4033.83333
1267.74	4086.16667
1271.008	4111.16667
1274.275	4097.83333
1277.538	4076.5
1280.8	4052.83333
1284.059	4074.16667
1287.315	4082.16667
1290.569	4100.16667
1293.821	4124.5
1297.07	4142.83333
1300.317	4145.5
1303.562	4122.83333
1306.803	4118.16667
1310.043	4058.16667
1313.28	4021.5
1316.515	3992.16667
1319.747	3934.83333
1322.977	3890.16667
1326.204	3865.83333
1329.429	3796.83333
1332.652	3747.16667
1335.872	3752.5
1339.09	3722.16667
1342.306	3719.5
1345.519	3702.16667
1348.729	3660.83333
1351.938	3702.5
1355.144	3631.5
1358.347	3576.83333
1361.548	3569.16667
1364.747	3603.5
1367.944	3544.83333
1371.138	3579.5
1374.329	3630.16667
1377.518	3649.83333
1380.705	3687.5
1383.89	3680.83333
1387.072	3581.83333
1390.252	3453.5
1393.429	3322.16667
1396.605	3229.83333
1399.777	3157.83333
1402.948	3072.83333
1406.116	3069.83333
1409.282	3103.16667
1412.445	3072.83333
1415.606	3128.16667
1418.765	3171.16667
1421.921	3226.83333
1425.075	3324.83333
1428.227	3425.83333
1431.376	3578.5
1434.524	3700.83333
1437.668	3778.5
1440.811	3835.16667
1443.951	3853.5
1447.089	3819.5
1450.224	3836.5
1453.357	3819.5
1456.488	3807.5
1459.617	3736.16667
1462.743	3677.5
1465.867	3559.16667
1468.989	3572.5
1472.108	3484.83333
1475.225	3423.5
1478.34	3398.83333
1481.453	3400.5
1484.563	3421.16667
1487.671	3414.5
1490.776	3497.83333
1493.88	3536.83333
1496.981	3600.83333
1500.08	3664.16667
1503.176	3745.5
1506.271	3801.83333
1509.363	3891.5
1512.452	3952.5
1515.54	4016.16667
1518.625	4110.16667
1521.708	4292.83333
1524.789	4518.83333
1527.867	4824.5
1530.944	5117.5
1534.018	5337.83333
1537.089	5482.83333
1540.159	5437.5
1543.226	5294.83333
1546.291	5104.16667
1549.354	4905.16667
1552.415	4760.83333
1555.473	4619.16667
1558.529	4527.16667
1561.583	4480.5
1564.634	4411.83333
1567.684	4427.83333
1570.731	4416.83333
1573.776	4474.16667
1576.819	4494.16667
1579.859	4545.5
1582.898	4581.83333
1585.934	4637.16667
1588.968	4647.5
1591.999	4633.16667
1595.029	4647.16667
1598.056	4671.16667
1601.081	4683.83333
1604.104	4674.83333
1607.125	4621.5
1610.144	4568.16667
1613.16	4485.83333
1616.174	4365.16667
1619.186	4295.16667
1622.196	4171.16667
1625.203	4081.16667
1628.209	4018.16667
1631.212	4031.16667
1634.213	3990.83333
1637.212	3929.16667
1640.209	3902.83333
1643.203	3814.16667
1646.196	3666.5
1649.186	3560.5
1652.174	3437.16667
1655.16	3321.16667
1658.144	3230.83333
1661.125	3090.83333
1664.105	2925.16667
1667.082	2800.16667
1670.057	2647.83333
1673.03	2474.5
1676.001	2332.5
1678.97	2179.16667
1681.937	2047.5
1684.901	1942.83333
1687.863	1867.16667
1690.824	1792.83333
1693.782	1761.5
1696.738	1690.5
1699.692	1652.83333
1702.643	1610.5
1705.593	1590.83333
1708.54	1571.5
1711.486	1567.5
1714.429	1525.5
1717.37	1528.16667
1720.309	1493.83333
1723.246	1499.16667
1726.181	1460.16667
1729.113	1472.16667
1732.044	1435.16667
1734.972	1423.83333
1737.899	1432.5
1740.823	1405.83333
1743.745	1416.83333
1746.665	1358.83333
1749.583	1345.83333
1752.499	1310.16667
1755.413	1320.5
1758.325	1256.5
1761.235	1266.16667
1764.142	1249.83333
1767.048	1224.83333
1769.951	1237.5
1772.852	1206.83333
1775.752	1214.16667
1778.649	1212.83333
1781.544	1200.5
1784.437	1178.83333
1787.328	1191.5
1790.217	1183.5
1793.104	1153.83333
1795.989	1164.83333
1798.872	1153.16667
1801.753	1165.5
1804.631	1157.16667
1807.508	1158.5
1810.383	1137.5
1813.255	1129.83333
1816.126	1144.83333
1818.994	1141.83333
1821.861	1113.5
1824.725	1118.83333
1827.587	1110.5
1830.448	1119.16667
1833.306	1082.16667
1836.162	1090.5
1839.017	1088.5
1841.869	1089.83333
1844.719	1086.5
1847.567	1070.16667
1850.414	1071.16667
1853.258	1072.83333
1856.1	1079.83333
1858.94	1070.5
1861.778	1059.5
1864.614	1062.5
1867.448	1064.83333
1870.28	1059.16667
1873.111	1072.5
1875.939	1062.5
1878.765	1074.5
1881.589	1061.5
1884.411	1056.83333
1887.231	1062.83333
1890.049	1048.83333
1892.865	1048.5
1895.68	1043.16667
1898.492	1033.83333
1901.302	1021.5
1904.11	1026.83333
1906.916	1024.83333
1909.721	1003.16667
1912.523	1012.16667
1915.323	996.16667
1918.122	999.16667
1920.918	1010.5
1923.712	991.5
1926.505	1003.5
1929.295	979.5
1932.084	994.5
1934.87	1003.5
1937.655	994.16667
1940.438	975.83333
1943.218	996.83333
1945.997	1006.83333
1948.774	992.5
1951.549	1005.16667
1954.322	974.83333
1957.093	993.5
1959.862	982.16667
1962.629	977.16667
1965.394	962.83333
1968.157	954.83333
1970.918	966.16667
1973.678	959.16667
1976.435	962.5
1979.19	947.83333
1981.944	944.5
1984.696	941.5
1987.445	928.5
1990.193	939.5
1992.939	955.16667
1995.683	937.5
1998.425	917.16667
2001.165	946.5
2003.903	924.16667
2006.639	916.16667
2009.374	936.5
2012.106	933.16667
2014.837	905.5
2017.566	937.5
2020.292	923.5
2023.017	914.5
2025.74	899.83333
2028.461	913.16667
2031.18	918.5
2033.898	908.5
2036.613	915.16667
2039.327	916.83333
2042.038	887.16667
2044.748	895.16667
2047.456	896.83333
2050.162	885.83333
2052.866	882.5
2055.568	904.83333
2058.268	886.16667
2060.967	884.83333
2063.663	876.16667
2066.358	897.16667
2069.051	870.5
2071.742	877.83333
2074.431	879.83333
2077.118	875.5
2079.804	858.5
2082.487	876.16667
2085.169	890.16667
2087.849	899.16667
2090.527	882.83333
2093.203	889.83333
2095.877	908.83333
2098.55	909.5
2101.22	904.83333
2103.889	913.16667
2106.556	921.83333
2109.221	940.83333
2111.884	962.16667
2114.546	1016.5
2117.205	1069.5
2119.863	1158.16667
2122.519	1236.16667
2125.173	1328.16667
2127.825	1424.16667
2130.475	1439.5
2133.124	1429.5
2135.771	1388.5
2138.416	1329.16667
2141.059	1266.5
2143.7	1222.16667
2146.339	1122.5
2148.977	1071.16667
2151.613	1042.83333
2154.247	1035.83333
2156.879	1003.5
2159.51	978.83333
2162.138	965.16667
2164.765	959.5
2167.39	942.5
2170.013	959.83333
2172.634	951.5
2175.254	944.5
2177.872	960.16667
2180.488	908.16667
2183.102	926.16667
2185.714	909.16667
2188.325	878.5
2190.934	891.16667
2193.541	868.5
2196.146	874.16667
2198.75	837.16667
2201.351	839.16667
2203.951	807.83333
2206.549	816.16667
2209.146	805.83333
2211.74	796.83333
2214.333	800.83333
2216.924	771.16667
2219.514	782.5
2222.101	780.16667
2224.687	785.16667
2227.271	773.83333
2229.853	761.16667
2232.433	750.83333
2235.012	781.83333
2237.589	776.5
2240.164	771.16667
2242.738	758.5
2245.309	750.83333
2247.879	757.16667
2250.448	757.83333
2253.014	727.16667
2255.579	708.83333
2258.142	721.5
2260.703	707.5
2263.262	711.16667
2265.82	691.83333
2268.376	702.16667
2270.93	689.5
2273.483	688.83333
2276.033	691.83333
2278.583	688.16667
2281.13	681.5
2283.675	670.5
2286.219	677.16667
2288.761	672.5
2291.302	670.16667
2293.841	674.83333
2296.377	651.5
2298.913	657.83333
2301.446	668.83333
2303.978	657.83333
2306.508	654.5
2309.037	655.16667
2311.563	654.5
2314.088	651.83333
2316.612	628.83333
2319.133	641.83333
2321.653	634.16667
2324.171	634.5
2326.688	643.5
2329.202	621.16667
2331.715	635.16667
2334.227	638.5
2336.736	620.83333
2339.244	621.5
2341.751	610.83333
2344.255	624.16667
2346.758	609.83333
2349.259	602.83333
2351.759	620.16667
2354.257	609.83333
2356.753	615.5
2359.247	596.83333
2361.74	619.83333
2364.231	600.16667
2366.721	609.16667
2369.209	595.83333
2371.695	607.5
2374.179	595.5
2376.662	597.16667
2379.143	611.16667
2381.622	587.83333
2384.1	600.5
2386.576	600.83333
2389.051	597.16667
2391.524	603.83333
2393.995	596.16667
2396.464	583.83333
2398.932	583.5
2401.398	581.83333
2403.863	575.5
2406.325	579.16667
2408.787	577.16667
2411.246	568.83333
2413.704	575.16667
2416.16	574.83333
2418.615	578.16667
2421.068	578.5
2423.519	573.5
2425.969	559.83333
2428.417	573.16667
2430.863	587.83333
2433.308	577.83333
2435.751	567.16667
2438.193	566.83333
2440.633	564.16667
2443.071	561.83333
2445.508	544.5
2447.943	554.83333
2450.376	553.5
2452.808	551.83333
2455.238	541.83333
2457.667	579.83333
2460.093	547.5
2462.519	544.83333
2464.942	543.5
2467.365	556.5
2469.785	551.83333
2472.204	542.83333
2474.621	532.5
2477.037	560.83333
2479.451	523.16667
2481.863	523.83333
2484.274	535.83333
2486.683	544.5
2489.091	546.5
2491.497	530.5
2493.901	537.16667
2496.304	536.16667
2498.705	533.16667
2501.105	522.16667
2503.503	548.5
2505.899	521.16667
2508.294	544.16667
2510.687	524.16667
2513.079	513.5
2515.469	516.83333
2517.858	513.5
2520.245	528.83333
2522.63	511.16667
2525.014	510.16667
2527.396	501.5
2529.776	505.83333
2532.156	518.83333
2534.533	499.5
2536.909	507.16667
2539.283	486.83333
2541.656	506.5
2544.027	527.5
2546.397	519.5
2548.765	507.5
2551.131	509.83333
2553.496	504.5
2555.86	512.16667
2558.221	506.83333
2560.582	501.5
2562.94	478.16667
2565.298	498.16667
2567.653	513.16667
2570.007	489.83333
2572.36	505.5
2574.711	486.83333
2577.06	513.5
2579.408	497.16667
2581.754	498.83333
2584.099	493.5
2586.442	495.5
2588.784	491.83333
2591.124	496.5
2593.463	484.83333
2595.8	490.16667
2598.135	473.5
2600.469	485.16667
2602.802	494.83333
2605.133	499.16667
2607.462	478.5
2609.79	479.16667
2612.116	481.16667
2614.441	479.83333
2616.764	487.5
2619.086	480.16667
2621.406	480.83333
2623.725	491.16667
2626.042	482.83333
2628.358	474.16667
2630.672	483.16667
2632.985	486.16667
2635.296	482.16667
2637.606	485.5
2639.914	480.16667
2642.22	483.5
2644.525	481.83333
2646.829	490.83333
2649.131	492.5
2651.432	504.5
2653.731	483.16667
2656.028	498.5
2658.324	500.16667
2660.619	481.83333
2662.912	506.5
2665.204	472.83333
2667.494	493.16667
2669.782	480.5
2672.07	479.83333
2674.355	495.16667
2676.639	491.16667
2678.922	477.83333
2681.203	498.16667
2683.483	468.5
2685.761	480.83333
2688.038	501.5
2690.313	505.83333
2692.587	489.16667
2694.859	482.83333
2697.13	492.83333
2699.399	496.16667
2701.667	505.5
2703.933	508.16667
2706.198	509.16667
2708.461	515.16667
2710.723	523.5
2712.984	513.5
2715.243	529.16667
2717.5	515.16667
2719.757	535.83333
2722.011	521.5
2724.264	541.16667
2726.516	547.83333
2728.766	524.5
2731.015	539.16667
2733.262	535.16667
2735.508	531.5
2737.753	524.16667
2739.996	514.16667
2742.237	502.5
2744.477	526.5
2746.716	523.16667
2748.953	505.5
2751.189	513.16667
2753.423	502.83333
2755.656	504.16667
2757.887	487.16667
2760.117	498.83333
2762.346	486.16667
2764.573	492.16667
2766.798	490.16667
2769.022	497.16667
2771.245	486.16667
2773.467	489.83333
2775.686	487.5
2777.905	514.16667
2780.122	513.83333
2782.337	508.16667
2784.552	505.16667
2786.764	526.16667
2788.976	513.16667
2791.186	530.83333
2793.394	536.16667
2795.601	537.83333
2797.807	531.5
2800.011	553.16667
2802.214	571.5
2804.415	566.83333
2806.615	579.83333
2808.814	586.83333
2811.011	600.5
2813.206	589.16667
2815.401	606.5
2817.594	628.16667
2819.785	627.16667
2821.975	619.83333
2824.164	641.5
2826.351	657.5
2828.537	674.83333
2830.722	694.16667
2832.905	704.16667
2835.086	736.5
2837.267	776.83333
2839.445	809.83333
2841.623	833.5
2843.799	863.83333
2845.974	911.83333
2848.147	972.5
2850.319	976.83333
2852.489	1028.5
2854.659	1025.5
2856.826	1068.83333
2858.993	1098.16667
2861.158	1061.16667
2863.321	1071.16667
2865.483	1085.16667
2867.644	1095.83333
2869.804	1084.83333
2871.962	1082.83333
2874.118	1096.5
2876.274	1083.16667
2878.428	1067.83333
2880.58	1057.16667
2882.731	1063.16667
2884.881	1057.16667
2887.03	1072.16667
2889.177	1063.16667
2891.322	1088.16667
2893.467	1073.83333
2895.61	1082.16667
2897.751	1115.5
2899.892	1089.83333
2902.03	1122.83333
2904.168	1134.5
2906.304	1141.5
2908.439	1139.5
2910.572	1118.83333
2912.704	1135.16667
2914.835	1139.16667
2916.965	1143.83333
2919.093	1154.5
2921.219	1107.16667
2923.345	1132.83333
2925.469	1092.83333
2927.591	1081.16667
2929.712	1063.83333
2931.832	1043.16667
2933.951	1008.83333
2936.068	997.83333
2938.184	967.16667
2940.299	933.83333
2942.412	892.5
2944.524	859.83333
2946.634	844.5
2948.744	789.16667
2950.851	803.16667
2952.958	746.5
2955.063	737.5
2957.167	714.16667
2959.269	668.16667
2961.371	682.5
2963.471	642.16667
2965.569	644.16667
2967.666	613.16667
2969.762	604.16667
2971.857	571.16667
2973.95	564.5
2976.042	557.83333
2978.133	527.5
2980.222	518.83333
2982.31	498.83333
2984.396	483.16667
2986.482	482.16667
2988.566	476.16667
2990.648	463.16667
2992.73	457.83333
2994.81	439.5
2996.889	452.83333
2998.966	439.83333
3001.042	449.83333
3003.117	433.83333
3005.191	428.16667
3007.263	423.83333
3009.334	416.5
3011.403	413.5
3013.472	388.5
3015.539	398.16667
3017.604	405.16667
3019.669	375.83333
3021.732	377.16667
3023.794	386.83333
3025.854	364.16667
3027.914	365.16667
3029.971	366.5
3032.028	359.16667
3034.083	369.16667
3036.137	355.83333
3038.19	345.83333
3040.242	336.83333
3042.292	324.16667
3044.341	325.83333
3046.388	342.83333
3048.435	310.16667
3050.48	333.5
3052.524	317.83333
3054.566	303.16667
3056.607	318.83333
3058.647	314.83333
3060.686	289.16667
3062.723	284.5
3064.759	272.5
3066.794	0.83333
3068.828	-2.16667
3070.86	-2.5
