-0.839	401.75
3.438	439.41667
7.711	138.08333
11.981	55.75
16.247	46.75
20.509	45.75
24.768	48.75
29.024	48.75
33.276	41.75
37.524	51.41667
41.769	40.08333
46.01	39.41667
50.247	51.75
54.481	65.41667
58.712	71.75
62.939	50.08333
67.162	62.41667
71.382	57.08333
75.599	48.08333
79.812	67.08333
84.021	88.41667
88.227	65.08333
92.429	66.75
96.628	50.75
100.823	67.75
105.015	78.08333
109.204	81.75
113.388	82.75
117.57	80.08333
121.748	96.41667
125.922	88.75
130.093	108.41667
134.261	111.08333
138.425	113.41667
142.585	157.41667
146.742	155.75
150.896	176.08333
155.046	219.41667
159.193	353.75
163.336	601.75
167.476	1100.08333
171.613	2047.75
175.746	3432.08333
179.875	5181.75
184.002	6727.08333
188.124	7840.41667
192.244	8300.75
196.36	8213.75
200.472	8063.75
204.581	7890.08333
208.687	7778.41667
212.79	7718.75
216.889	7737.75
220.984	7831.75
225.077	7926.41667
229.165	8061.08333
233.251	8186.08333
237.333	8276.08333
241.412	8276.41667
245.487	8275.08333
249.559	8233.75
253.628	8135.41667
257.694	8083.75
261.756	8022.41667
265.814	7859.08333
269.87	7667.75
273.922	7384.75
277.97	7168.08333
282.016	6998.41667
286.058	6864.75
290.097	6852.08333
294.132	6828.75
298.164	6745.75
302.193	6492.08333
306.219	6012.08333
310.241	5469.08333
314.26	4942.41667
318.276	4510.41667
322.288	4226.41667
326.297	3992.41667
330.303	3769.41667
334.305	3648.75
338.305	3552.75
342.301	3491.75
346.294	3439.41667
350.283	3420.75
354.269	3360.41667
358.252	3360.75
362.232	3356.75
366.209	3291.41667
370.182	3257.08333
374.152	3234.75
378.119	3246.75
382.083	3264.41667
386.043	3251.08333
390	3214.08333
393.954	3185.41667
397.905	3157.08333
401.852	3147.08333
405.797	3119.41667
409.738	3066.75
413.676	3047.41667
417.61	3048.41667
421.542	3016.75
425.47	2981.41667
429.396	2929.75
433.318	2931.41667
437.236	2920.75
441.152	2908.08333
445.065	2883.75
448.974	2884.41667
452.88	2841.75
456.783	2832.75
460.683	2800.08333
464.58	2808.08333
468.473	2802.08333
472.364	2802.75
476.251	2828.75
480.135	2834.08333
484.016	2867.08333
487.894	2881.08333
491.769	2903.75
495.641	2900.75
499.509	2897.75
503.375	2902.41667
507.237	2886.75
511.096	2852.75
514.952	2873.75
518.805	2854.08333
522.655	2871.41667
526.502	2846.08333
530.346	2845.08333
534.187	2887.08333
538.024	2883.08333
541.859	2872.75
545.69	2922.75
549.519	2889.08333
553.344	2871.08333
557.166	2821.08333
560.985	2801.41667
564.802	2765.75
568.615	2704.75
572.425	2673.75
576.232	2646.75
580.036	2662.41667
583.836	2671.75
587.634	2639.08333
591.429	2639.41667
595.221	2687.75
599.01	2734.41667
602.796	2781.41667
606.578	2818.41667
610.358	2820.75
614.135	2786.41667
617.909	2764.75
621.679	2749.41667
625.447	2727.08333
629.212	2777.08333
632.973	2767.41667
636.732	2740.75
640.488	2746.08333
644.241	2720.75
647.991	2727.08333
651.737	2748.41667
655.481	2726.75
659.222	2711.75
662.96	2720.08333
666.695	2744.41667
670.427	2733.75
674.156	2765.75
677.882	2780.75
681.605	2739.75
685.325	2736.41667
689.043	2710.08333
692.757	2709.08333
696.468	2713.41667
700.177	2712.08333
703.882	2709.08333
707.585	2698.75
711.284	2696.41667
714.981	2713.75
718.675	2739.08333
722.366	2730.08333
726.054	2715.41667
729.739	2695.41667
733.421	2691.75
737.1	2705.41667
740.777	2726.08333
744.45	2731.41667
748.121	2757.08333
751.789	2800.41667
755.453	2806.41667
759.115	2826.41667
762.774	2854.41667
766.431	2883.08333
770.084	2936.41667
773.734	2974.08333
777.382	3045.75
781.027	3038.08333
784.669	3069.08333
788.308	3039.08333
791.944	3089.41667
795.577	3113.75
799.208	3126.08333
802.835	3145.75
806.46	3185.41667
810.082	3224.41667
813.701	3247.08333
817.317	3265.75
820.931	3250.08333
824.542	3285.41667
828.149	3215.08333
831.754	3179.75
835.357	3170.08333
838.956	3165.41667
842.553	3122.75
846.146	3115.41667
849.737	3111.75
853.326	3116.41667
856.911	3132.75
860.493	3197.75
864.073	3207.08333
867.65	3243.75
871.225	3295.08333
874.796	3274.08333
878.365	3301.08333
881.931	3327.08333
885.494	3358.08333
889.054	3338.41667
892.612	3350.75
896.166	3302.75
899.719	3276.41667
903.268	3267.41667
906.814	3256.08333
910.358	3251.75
913.899	3217.41667
917.438	3234.75
920.973	3216.08333
924.506	3272.75
928.036	3306.41667
931.564	3362.75
935.088	3364.75
938.61	3374.41667
942.129	3418.41667
945.646	3491.41667
949.16	3592.75
952.671	3677.75
956.179	3725.41667
959.685	3682.75
963.188	3700.41667
966.688	3638.08333
970.185	3532.41667
973.68	3460.75
977.173	3432.41667
980.662	3397.41667
984.149	3416.08333
987.633	3424.08333
991.114	3442.41667
994.593	3559.75
998.069	3643.08333
1001.542	3764.41667
1005.013	3680.41667
1008.481	3500.08333
1011.947	3430.75
1015.409	3409.41667
1018.869	3426.41667
1022.327	3415.08333
1025.782	3383.08333
1029.234	3373.41667
1032.683	3347.41667
1036.13	3240.75
1039.574	3102.75
1043.016	3031.41667
1046.455	2970.41667
1049.891	2927.75
1053.325	2936.08333
1056.756	2954.08333
1060.184	2964.75
1063.61	2981.41667
1067.033	2979.41667
1070.454	3001.41667
1073.872	3019.41667
1077.287	3026.75
1080.7	3033.08333
1084.11	3031.08333
1087.517	3004.41667
1090.922	2981.41667
1094.325	2950.08333
1097.724	2923.41667
1101.122	2932.41667
1104.516	2924.08333
1107.908	2933.08333
1111.298	2948.41667
1114.684	3013.75
1118.069	3025.08333
1121.45	3078.08333
1124.83	3093.41667
1128.206	3090.41667
1131.58	3152.41667
1134.951	3232.08333
1138.32	3372.08333
1141.687	3497.41667
1145.05	3607.41667
1148.412	3647.08333
1151.77	3617.41667
1155.126	3606.08333
1158.48	3601.08333
1161.831	3636.75
1165.18	3638.75
1168.525	3699.41667
1171.869	3767.75
1175.21	3794.41667
1178.548	3850.75
1181.884	3904.41667
1185.217	3893.08333
1188.548	3966.75
1191.877	4021.41667
1195.202	4144.41667
1198.526	4173.75
1201.846	4193.08333
1205.165	4185.41667
1208.48	4169.75
1211.794	4170.08333
1215.104	4155.75
1218.413	4157.41667
1221.719	4161.41667
1225.022	4117.75
1228.323	4060.41667
1231.621	4037.41667
1234.917	4005.08333
1238.21	4035.75
1241.501	4014.08333
1244.79	4001.08333
1248.076	3982.75
1251.359	4067.75
1254.64	4119.41667
1257.919	4154.41667
1261.195	4237.08333
1264.468	4320.75
1267.74	4419.75
1271.008	4416.41667
1274.275	4389.41667
1277.538	4320.41667
1280.8	4289.75
1284.059	4306.41667
1287.315	4366.41667
1290.569	4367.75
1293.821	4382.08333
1297.07	4431.41667
1300.317	4433.08333
1303.562	4442.08333
1306.803	4372.08333
1310.043	4359.41667
1313.28	4326.08333
1316.515	4279.08333
1319.747	4209.75
1322.977	4169.41667
1326.204	4098.41667
1329.429	4044.41667
1332.652	4007.08333
1335.872	4026.08333
1339.09	3959.41667
1342.306	3948.41667
1345.519	3924.41667
1348.729	3898.08333
1351.938	3877.08333
1355.144	3787.41667
1358.347	3743.41667
1361.548	3755.75
1364.747	3762.75
1367.944	3779.08333
1371.138	3785.75
1374.329	3812.75
1377.518	3851.41667
1380.705	3892.08333
1383.89	3865.08333
1387.072	3774.08333
1390.252	3628.75
1393.429	3484.41667
1396.605	3391.41667
1399.777	3254.41667
1402.948	3198.08333
1406.116	3206.75
1409.282	3220.08333
1412.445	3202.41667
1415.606	3224.41667
1418.765	3260.75
1421.921	3334.75
1425.075	3425.08333
1428.227	3598.41667
1431.376	3741.08333
1434.524	3900.08333
1437.668	4010.75
1440.811	4042.41667
1443.951	4080.75
1447.089	4080.75
1450.224	4102.75
1453.357	4065.08333
1456.488	4032.75
1459.617	3967.08333
1462.743	3931.08333
1465.867	3854.41667
1468.989	3809.41667
1472.108	3759.08333
1475.225	3662.75
1478.34	3665.08333
1481.453	3648.75
1484.563	3650.75
1487.671	3703.75
1490.776	3787.08333
1493.88	3872.08333
1496.981	3960.41667
1500.08	4032.08333
1503.176	4075.75
1506.271	4121.08333
1509.363	4197.41667
1512.452	4236.08333
1515.54	4335.75
1518.625	4393.08333
1521.708	4576.75
1524.789	4780.41667
1527.867	5057.41667
1530.944	5367.08333
1534.018	5586.75
1537.089	5737.08333
1540.159	5681.75
1543.226	5580.08333
1546.291	5387.41667
1549.354	5232.41667
1552.415	5056.75
1555.473	4947.41667
1558.529	4828.41667
1561.583	4808.41667
1564.634	4783.41667
1567.684	4766.08333
1570.731	4794.75
1573.776	4826.75
1576.819	4881.41667
1579.859	4915.75
1582.898	5007.08333
1585.934	5058.08333
1588.968	5056.08333
1591.999	5057.41667
1595.029	5048.75
1598.056	5062.08333
1601.081	5079.08333
1604.104	5073.41667
1607.125	5030.08333
1610.144	4927.08333
1613.16	4817.08333
1616.174	4673.08333
1619.186	4554.41667
1622.196	4475.75
1625.203	4384.75
1628.209	4330.75
1631.212	4292.41667
1634.213	4247.41667
1637.212	4242.08333
1640.209	4137.41667
1643.203	4026.08333
1646.196	3909.41667
1649.186	3741.08333
1652.174	3588.41667
1655.16	3505.08333
1658.144	3354.75
1661.125	3214.41667
1664.105	3074.08333
1667.082	2931.75
1670.057	2782.41667
1673.03	2570.75
1676.001	2407.41667
1678.97	2253.75
1681.937	2106.75
1684.901	1985.41667
1687.863	1915.75
1690.824	1832.08333
1693.782	1796.08333
1696.738	1719.75
1699.692	1693.08333
1702.643	1638.75
1705.593	1637.08333
1708.54	1586.75
1711.486	1605.41667
1714.429	1557.75
1717.37	1542.08333
1720.309	1510.75
1723.246	1521.08333
1726.181	1477.75
1729.113	1485.08333
1732.044	1478.41667
1734.972	1433.75
1737.899	1438.75
1740.823	1432.08333
1743.745	1425.08333
1746.665	1371.41667
1749.583	1364.08333
1752.499	1341.08333
1755.413	1315.41667
1758.325	1294.41667
1761.235	1298.75
1764.142	1255.75
1767.048	1264.75
1769.951	1249.41667
1772.852	1233.08333
1775.752	1226.75
1778.649	1224.08333
1781.544	1231.75
1784.437	1195.41667
1787.328	1199.41667
1790.217	1196.41667
1793.104	1169.41667
1795.989	1159.08333
1798.872	1157.75
1801.753	1190.75
1804.631	1171.75
1807.508	1175.08333
1810.383	1161.08333
1813.255	1147.41667
1816.126	1156.41667
1818.994	1144.08333
1821.861	1129.41667
1824.725	1124.75
1827.587	1126.08333
1830.448	1124.41667
1833.306	1090.75
1836.162	1109.08333
1839.017	1093.41667
1841.869	1103.75
1844.719	1091.08333
1847.567	1073.08333
1850.414	1066.08333
1853.258	1079.08333
1856.1	1090.08333
1858.94	1092.08333
1861.778	1075.75
1864.614	1072.41667
1867.448	1069.41667
1870.28	1059.75
1873.111	1088.08333
1875.939	1064.75
1878.765	1083.41667
1881.589	1067.08333
1884.411	1057.41667
1887.231	1060.41667
1890.049	1047.08333
1892.865	1058.41667
1895.68	1039.75
1898.492	1045.08333
1901.302	1018.41667
1904.11	1026.08333
1906.916	1014.75
1909.721	1012.41667
1912.523	1019.75
1915.323	1002.08333
1918.122	1008.41667
1920.918	1013.75
1923.712	1009.41667
1926.505	1018.75
1929.295	987.75
1932.084	1022.41667
1934.87	1001.75
1937.655	992.08333
1940.438	982.75
1943.218	987.75
1945.997	998.08333
1948.774	1008.41667
1951.549	1006.75
1954.322	979.75
1957.093	991.08333
1959.862	963.75
1962.629	981.41667
1965.394	969.08333
1968.157	961.08333
1970.918	970.75
1973.678	950.08333
1976.435	954.41667
1979.19	939.08333
1981.944	940.08333
1984.696	942.75
1987.445	932.08333
1990.193	941.08333
1992.939	958.41667
1995.683	954.08333
1998.425	915.75
2001.165	952.75
2003.903	921.41667
2006.639	928.41667
2009.374	933.41667
2012.106	927.08333
2014.837	908.08333
2017.566	922.41667
2020.292	920.08333
2023.017	919.08333
2025.74	907.75
2028.461	915.08333
2031.18	929.41667
2033.898	895.08333
2036.613	911.41667
2039.327	902.75
2042.038	887.08333
2044.748	891.75
2047.456	900.41667
2050.162	885.75
2052.866	888.75
2055.568	899.75
2058.268	874.08333
2060.967	892.75
2063.663	869.08333
2066.358	887.08333
2069.051	867.75
2071.742	881.75
2074.431	879.41667
2077.118	872.41667
2079.804	860.41667
2082.487	873.75
2085.169	880.75
2087.849	900.41667
2090.527	874.08333
2093.203	880.41667
2095.877	890.08333
2098.55	887.08333
2101.22	901.41667
2103.889	905.75
2106.556	898.08333
2109.221	916.41667
2111.884	937.75
2114.546	990.41667
2117.205	1023.75
2119.863	1114.75
2122.519	1169.75
2125.173	1264.08333
2127.825	1347.75
2130.475	1391.75
2133.124	1364.75
2135.771	1345.41667
2138.416	1289.75
2141.059	1205.75
2143.7	1154.75
2146.339	1083.08333
2148.977	1030.41667
2151.613	1013.08333
2154.247	978.41667
2156.879	973.08333
2159.51	959.08333
2162.138	949.08333
2164.765	930.75
2167.39	919.08333
2170.013	935.75
2172.634	930.75
2175.254	927.08333
2177.872	947.41667
2180.488	893.08333
2183.102	909.75
2185.714	893.08333
2188.325	867.08333
2190.934	868.08333
2193.541	866.08333
2196.146	861.41667
2198.75	822.75
2201.351	828.41667
2203.951	811.75
2206.549	819.41667
2209.146	810.08333
2211.74	785.75
2214.333	817.41667
2216.924	783.08333
2219.514	781.41667
2222.101	767.41667
2224.687	784.41667
2227.271	763.75
2229.853	764.08333
2232.433	739.08333
2235.012	766.08333
2237.589	774.75
2240.164	775.75
2242.738	760.75
2245.309	736.75
2247.879	754.08333
2250.448	753.08333
2253.014	727.08333
2255.579	706.08333
2258.142	706.75
2260.703	696.75
2263.262	701.08333
2265.82	683.08333
2268.376	695.75
2270.93	687.41667
2273.483	666.41667
2276.033	695.08333
2278.583	668.41667
2281.13	671.75
2283.675	670.75
2286.219	669.41667
2288.761	665.75
2291.302	672.08333
2293.841	672.41667
2296.377	650.08333
2298.913	656.08333
2301.446	664.75
2303.978	648.08333
2306.508	651.41667
2309.037	657.75
2311.563	648.41667
2314.088	655.41667
2316.612	627.08333
2319.133	639.08333
2321.653	629.75
2324.171	623.41667
2326.688	641.41667
2329.202	624.75
2331.715	629.08333
2334.227	629.08333
2336.736	623.08333
2339.244	612.41667
2341.751	609.75
2344.255	623.75
2346.758	607.75
2349.259	597.41667
2351.759	614.08333
2354.257	598.75
2356.753	587.75
2359.247	599.41667
2361.74	600.41667
2364.231	595.75
2366.721	601.75
2369.209	588.75
2371.695	595.41667
2374.179	587.75
2376.662	583.41667
2379.143	610.41667
2381.622	585.75
2384.1	591.08333
2386.576	588.75
2389.051	598.41667
2391.524	593.41667
2393.995	594.75
2396.464	576.41667
2398.932	578.75
2401.398	579.08333
2403.863	573.08333
2406.325	575.08333
2408.787	573.08333
2411.246	568.75
2413.704	570.08333
2416.16	567.41667
2418.615	561.75
2421.068	573.08333
2423.519	564.75
2425.969	562.08333
2428.417	573.75
2430.863	571.75
2433.308	581.41667
2435.751	561.08333
2438.193	554.08333
2440.633	561.41667
2443.071	559.41667
2445.508	542.75
2447.943	547.41667
2450.376	549.08333
2452.808	559.08333
2455.238	543.41667
2457.667	570.08333
2460.093	545.75
2462.519	530.75
2464.942	533.75
2467.365	545.75
2469.785	536.08333
2472.204	533.75
2474.621	531.08333
2477.037	547.41667
2479.451	521.41667
2481.863	525.41667
2484.274	530.75
2486.683	528.41667
2489.091	524.41667
2491.497	524.41667
2493.901	526.75
2496.304	515.75
2498.705	525.75
2501.105	517.08333
2503.503	537.08333
2505.899	499.75
2508.294	536.41667
2510.687	516.75
2513.079	515.41667
2515.469	505.41667
2517.858	508.08333
2520.245	527.08333
2522.63	509.75
2525.014	510.41667
2527.396	500.08333
2529.776	495.41667
2532.156	500.75
2534.533	502.41667
2536.909	503.75
2539.283	487.08333
2541.656	493.41667
2544.027	511.75
2546.397	504.75
2548.765	495.08333
2551.131	489.75
2553.496	502.75
2555.86	499.41667
2558.221	496.75
2560.582	491.08333
2562.94	485.41667
2565.298	480.75
2567.653	509.08333
2570.007	482.08333
2572.36	503.08333
2574.711	478.41667
2577.06	505.75
2579.408	485.75
2581.754	484.08333
2584.099	482.08333
2586.442	481.08333
2588.784	493.08333
2591.124	493.08333
2593.463	484.41667
2595.8	471.08333
2598.135	472.75
2600.469	471.41667
2602.802	485.75
2605.133	489.75
2607.462	470.41667
2609.79	467.41667
2612.116	481.08333
2614.441	474.75
2616.764	474.41667
2619.086	476.75
2621.406	465.08333
2623.725	492.08333
2626.042	472.41667
2628.358	471.75
2630.672	466.41667
2632.985	480.75
2635.296	473.75
2637.606	479.41667
2639.914	459.75
2642.22	470.08333
2644.525	472.41667
2646.829	474.75
2649.131	479.41667
2651.432	479.75
2653.731	464.08333
2656.028	481.41667
2658.324	471.08333
2660.619	469.08333
2662.912	484.75
2665.204	462.75
2667.494	484.41667
2669.782	474.41667
2672.07	485.08333
2674.355	487.08333
2676.639	475.08333
2678.922	474.08333
2681.203	482.08333
2683.483	461.08333
2685.761	467.08333
2688.038	476.08333
2690.313	494.75
2692.587	483.41667
2694.859	472.08333
2697.13	480.41667
2699.399	481.75
2701.667	484.41667
2703.933	506.41667
2706.198	498.41667
2708.461	500.41667
2710.723	499.08333
2712.984	503.75
2715.243	506.75
2717.5	501.75
2719.757	512.41667
2722.011	509.75
2724.264	526.41667
2726.516	532.08333
2728.766	509.08333
2731.015	524.08333
2733.262	513.75
2735.508	511.75
2737.753	515.08333
2739.996	490.41667
2742.237	485.75
2744.477	498.41667
2746.716	503.08333
2748.953	493.75
2751.189	497.08333
2753.423	482.08333
2755.656	471.41667
2757.887	468.75
2760.117	475.41667
2762.346	480.08333
2764.573	472.08333
2766.798	464.75
2769.022	480.75
2771.245	478.75
2773.467	472.08333
2775.686	481.08333
2777.905	474.75
2780.122	483.41667
2782.337	495.41667
2784.552	488.41667
2786.764	500.41667
2788.976	507.08333
2791.186	508.08333
2793.394	504.08333
2795.601	522.41667
2797.807	531.41667
2800.011	525.41667
2802.214	537.75
2804.415	536.75
2806.615	542.41667
2808.814	560.41667
2811.011	565.08333
2813.206	563.75
2815.401	590.41667
2817.594	586.41667
2819.785	609.41667
2821.975	591.08333
2824.164	612.08333
2826.351	635.75
2828.537	646.41667
2830.722	671.75
2832.905	677.08333
2835.086	705.41667
2837.267	767.41667
2839.445	794.75
2841.623	816.08333
2843.799	872.08333
2845.974	912.41667
2848.147	952.08333
2850.319	997.08333
2852.489	1020.75
2854.659	1030.41667
2856.826	1060.75
2858.993	1089.41667
2861.158	1075.41667
2863.321	1086.41667
2865.483	1102.41667
2867.644	1096.08333
2869.804	1100.41667
2871.962	1096.41667
2874.118	1100.08333
2876.274	1102.08333
2878.428	1074.75
2880.58	1073.41667
2882.731	1069.08333
2884.881	1083.08333
2887.03	1090.08333
2889.177	1077.08333
2891.322	1113.41667
2893.467	1081.41667
2895.61	1105.41667
2897.751	1117.41667
2899.892	1108.08333
2902.03	1147.08333
2904.168	1148.08333
2906.304	1143.75
2908.439	1164.75
2910.572	1143.41667
2912.704	1170.75
2914.835	1173.41667
2916.965	1159.41667
2919.093	1181.75
2921.219	1138.75
2923.345	1163.08333
2925.469	1143.41667
2927.591	1127.75
2929.712	1092.08333
2931.832	1081.41667
2933.951	1059.41667
2936.068	1025.41667
2938.184	978.75
2940.299	966.08333
2942.412	921.08333
2944.524	890.08333
2946.634	863.75
2948.744	801.41667
2950.851	816.75
2952.958	752.75
2955.063	738.75
2957.167	727.75
2959.269	691.08333
2961.371	705.41667
2963.471	661.08333
2965.569	659.08333
2967.666	615.08333
2969.762	615.75
2971.857	586.41667
2973.95	571.41667
2976.042	565.08333
2978.133	540.41667
2980.222	520.75
2982.31	497.08333
2984.396	485.75
2986.482	481.75
2988.566	476.08333
2990.648	457.41667
2992.73	454.08333
2994.81	436.41667
2996.889	442.41667
2998.966	431.41667
3001.042	435.75
3003.117	429.75
3005.191	425.08333
3007.263	421.75
3009.334	415.75
3011.403	408.08333
3013.472	383.08333
3015.539	392.75
3017.604	394.08333
3019.669	360.08333
3021.732	365.08333
3023.794	359.41667
3025.854	354.75
3027.914	351.75
3029.971	359.08333
3032.028	347.41667
3034.083	346.75
3036.137	348.41667
3038.19	331.75
3040.242	323.08333
3042.292	312.08333
3044.341	316.41667
3046.388	323.08333
3048.435	295.08333
3050.48	316.75
3052.524	307.41667
3054.566	299.08333
3056.607	304.41667
3058.647	298.41667
3060.686	272.41667
3062.723	275.08333
3064.759	261.41667
3066.794	-0.58333
3068.828	-0.91667
3070.86	-2.58333
