-0.839	149.83333
3.438	171.83333
7.711	71.83333
11.981	43.5
16.247	33.83333
20.509	41.5
24.768	34.16667
29.024	44.5
33.276	31.83333
37.524	41.5
41.769	35.16667
46.01	27.5
50.247	43.5
54.481	53.83333
58.712	56.5
62.939	41.83333
67.162	53.83333
71.382	48.83333
75.599	40.83333
79.812	48.16667
84.021	66.16667
88.227	45.16667
92.429	51.83333
96.628	42.83333
100.823	54.16667
105.015	54.16667
109.204	49.83333
113.388	63.83333
117.57	48.5
121.748	61.5
125.922	55.83333
130.093	69.83333
134.261	71.5
138.425	57.16667
142.585	91.5
146.742	74.5
150.896	82.83333
155.046	83.83333
159.193	124.16667
163.336	195.83333
167.476	328.16667
171.613	591.16667
175.746	978.5
179.875	1437.16667
184.002	1871.16667
188.124	2219.5
192.244	2350.83333
196.36	2365.83333
200.472	2402.5
204.581	2360.5
208.687	2317.5
212.79	2315.83333
216.889	2346.83333
220.984	2352.83333
225.077	2388.5
229.165	2408.5
233.251	2398.83333
237.333	2396.83333
241.412	2385.16667
245.487	2378.5
249.559	2337.5
253.628	2339.16667
257.694	2323.5
261.756	2324.83333
265.814	2280.83333
269.87	2230.83333
273.922	2183.83333
277.97	2157.5
282.016	2154.5
286.058	2143.83333
290.097	2151.5
294.132	2185.16667
298.164	2172.83333
302.193	2100.16667
306.219	2001.5
310.241	1909.5
314.26	1822.83333
318.276	1732.83333
322.288	1698.83333
326.297	1657.83333
330.303	1642.16667
334.305	1605.83333
338.305	1600.83333
342.301	1593.5
346.294	1596.5
350.283	1602.16667
354.269	1594.16667
358.252	1570.5
362.232	1582.5
366.209	1592.16667
370.182	1573.16667
374.152	1559.5
378.119	1580.83333
382.083	1581.5
386.043	1583.5
390	1573.83333
393.954	1588.5
397.905	1577.5
401.852	1610.83333
405.797	1581.16667
409.738	1578.5
413.676	1612.16667
417.61	1614.16667
421.542	1608.83333
425.47	1569.83333
429.396	1554.16667
433.318	1553.5
437.236	1565.83333
441.152	1595.16667
445.065	1544.83333
448.974	1547.5
452.88	1545.5
456.783	1540.5
460.683	1535.16667
464.58	1555.5
468.473	1548.5
472.364	1561.16667
476.251	1570.5
480.135	1559.5
484.016	1580.16667
487.894	1596.16667
491.769	1583.5
495.641	1593.83333
499.509	1580.5
503.375	1577.83333
507.237	1570.5
511.096	1579.5
514.952	1568.83333
518.805	1571.16667
522.655	1561.83333
526.502	1564.83333
530.346	1568.16667
534.187	1563.16667
538.024	1572.16667
541.859	1562.5
545.69	1595.83333
549.519	1575.83333
553.344	1565.5
557.166	1561.5
560.985	1555.16667
564.802	1548.83333
568.615	1539.16667
572.425	1502.5
576.232	1499.83333
580.036	1515.83333
583.836	1520.5
587.634	1500.83333
591.429	1524.16667
595.221	1537.16667
599.01	1546.16667
602.796	1543.16667
606.578	1547.83333
610.358	1559.5
614.135	1555.5
617.909	1566.83333
621.679	1525.16667
625.447	1516.16667
629.212	1537.16667
632.973	1523.5
636.732	1519.83333
640.488	1509.5
644.241	1498.83333
647.991	1482.83333
651.737	1536.16667
655.481	1479.16667
659.222	1503.5
662.96	1507.16667
666.695	1494.16667
670.427	1502.5
674.156	1511.83333
677.882	1529.5
681.605	1504.83333
685.325	1488.16667
689.043	1508.83333
692.757	1474.5
696.468	1493.16667
700.177	1487.5
703.882	1468.16667
707.585	1448.5
711.284	1460.5
714.981	1437.5
718.675	1445.16667
722.366	1443.83333
726.054	1441.16667
729.739	1441.5
733.421	1436.5
737.1	1438.83333
740.777	1431.5
744.45	1450.16667
748.121	1446.5
751.789	1470.83333
755.453	1447.16667
759.115	1475.16667
762.774	1468.16667
766.431	1466.5
770.084	1455.83333
773.734	1442.5
777.382	1475.83333
781.027	1462.16667
784.669	1461.5
788.308	1466.83333
791.944	1489.16667
795.577	1491.5
799.208	1494.83333
802.835	1501.5
806.46	1489.83333
810.082	1504.5
813.701	1519.16667
817.317	1535.16667
820.931	1518.83333
824.542	1529.16667
828.149	1478.16667
831.754	1479.83333
835.357	1479.83333
838.956	1470.5
842.553	1469.83333
846.146	1449.83333
849.737	1422.83333
853.326	1421.5
856.911	1398.83333
860.493	1435.83333
864.073	1425.16667
867.65	1452.5
871.225	1456.83333
874.796	1455.16667
878.365	1444.83333
881.931	1439.5
885.494	1458.16667
889.054	1452.16667
892.612	1449.16667
896.166	1429.5
899.719	1411.5
903.268	1390.5
906.814	1384.83333
910.358	1368.83333
913.899	1387.83333
917.438	1370.5
920.973	1343.16667
924.506	1379.83333
928.036	1406.83333
931.564	1421.5
935.088	1434.83333
938.61	1408.16667
942.129	1409.5
945.646	1422.16667
949.16	1422.83333
952.671	1434.5
956.179	1451.83333
959.685	1446.16667
963.188	1450.5
966.688	1441.83333
970.185	1419.83333
973.68	1379.16667
977.173	1372.16667
980.662	1353.83333
984.149	1367.16667
987.633	1331.83333
991.114	1352.83333
994.593	1375.83333
998.069	1394.5
1001.542	1427.5
1005.013	1400.83333
1008.481	1328.5
1011.947	1325.16667
1015.409	1294.16667
1018.869	1303.16667
1022.327	1322.83333
1025.782	1277.5
1029.234	1284.5
1032.683	1281.16667
1036.13	1246.5
1039.574	1214.83333
1043.016	1181.5
1046.455	1183.16667
1049.891	1171.16667
1053.325	1164.5
1056.756	1164.83333
1060.184	1173.16667
1063.61	1155.83333
1067.033	1174.16667
1070.454	1165.83333
1073.872	1189.5
1077.287	1160.16667
1080.7	1165.5
1084.11	1163.16667
1087.517	1170.16667
1090.922	1139.83333
1094.325	1124.83333
1097.724	1117.83333
1101.122	1111.16667
1104.516	1123.5
1107.908	1095.16667
1111.298	1096.16667
1114.684	1109.16667
1118.069	1106.83333
1121.45	1147.83333
1124.83	1130.83333
1128.206	1131.83333
1131.58	1147.5
1134.951	1172.16667
1138.32	1193.16667
1141.687	1228.16667
1145.05	1230.5
1148.412	1231.16667
1151.77	1221.16667
1155.126	1214.5
1158.48	1224.83333
1161.831	1213.16667
1165.18	1209.16667
1168.525	1226.5
1171.869	1230.16667
1175.21	1232.83333
1178.548	1249.5
1181.884	1256.5
1185.217	1261.5
1188.548	1282.83333
1191.877	1286.83333
1195.202	1339.5
1198.526	1362.16667
1201.846	1348.5
1205.165	1353.16667
1208.48	1365.83333
1211.794	1364.16667
1215.104	1355.5
1218.413	1346.5
1221.719	1355.5
1225.022	1330.5
1228.323	1318.16667
1231.621	1326.16667
1234.917	1317.83333
1238.21	1324.83333
1241.501	1302.5
1244.79	1293.83333
1248.076	1289.16667
1251.359	1300.5
1254.64	1359.16667
1257.919	1320.83333
1261.195	1328.83333
1264.468	1351.16667
1267.74	1368.5
1271.008	1347.16667
1274.275	1378.16667
1277.538	1363.83333
1280.8	1367.16667
1284.059	1346.16667
1287.315	1359.16667
1290.569	1348.5
1293.821	1374.83333
1297.07	1370.83333
1300.317	1364.5
1303.562	1375.83333
1306.803	1346.83333
1310.043	1345.16667
1313.28	1334.5
1316.515	1330.5
1319.747	1344.83333
1322.977	1333.83333
1326.204	1314.16667
1329.429	1300.5
1332.652	1310.83333
1335.872	1325.16667
1339.09	1311.16667
1342.306	1304.16667
1345.519	1291.5
1348.729	1287.83333
1351.938	1304.16667
1355.144	1271.16667
1358.347	1253.16667
1361.548	1267.83333
1364.747	1270.16667
1367.944	1235.83333
1371.138	1241.16667
1374.329	1234.83333
1377.518	1247.16667
1380.705	1256.5
1383.89	1228.83333
1387.072	1208.83333
1390.252	1179.5
1393.429	1144.16667
1396.605	1114.5
1399.777	1077.16667
1402.948	1065.16667
1406.116	1064.5
1409.282	1062.5
1412.445	1077.5
1415.606	1069.5
1418.765	1072.5
1421.921	1090.5
1425.075	1103.83333
1428.227	1120.83333
1431.376	1156.83333
1434.524	1199.5
1437.668	1213.83333
1440.811	1211.83333
1443.951	1207.83333
1447.089	1243.83333
1450.224	1236.83333
1453.357	1214.83333
1456.488	1207.16667
1459.617	1201.5
1462.743	1191.16667
1465.867	1162.5
1468.989	1159.16667
1472.108	1130.5
1475.225	1129.5
1478.34	1096.83333
1481.453	1097.5
1484.563	1085.16667
1487.671	1103.83333
1490.776	1118.16667
1493.88	1119.83333
1496.981	1130.16667
1500.08	1152.16667
1503.176	1147.16667
1506.271	1160.83333
1509.363	1177.83333
1512.452	1185.16667
1515.54	1186.83333
1518.625	1210.83333
1521.708	1258.5
1524.789	1262.83333
1527.867	1285.16667
1530.944	1354.5
1534.018	1362.5
1537.089	1439.16667
1540.159	1450.5
1543.226	1442.83333
1546.291	1419.83333
1549.354	1386.16667
1552.415	1384.5
1555.473	1338.83333
1558.529	1331.83333
1561.583	1310.5
1564.634	1281.5
1567.684	1299.5
1570.731	1301.16667
1573.776	1300.5
1576.819	1308.5
1579.859	1315.83333
1582.898	1343.16667
1585.934	1331.16667
1588.968	1357.83333
1591.999	1332.5
1595.029	1340.5
1598.056	1342.16667
1601.081	1364.5
1604.104	1363.16667
1607.125	1340.5
1610.144	1328.83333
1613.16	1293.16667
1616.174	1267.83333
1619.186	1260.5
1622.196	1215.16667
1625.203	1203.83333
1628.209	1191.83333
1631.212	1190.16667
1634.213	1184.16667
1637.212	1208.5
1640.209	1199.16667
1643.203	1176.83333
1646.196	1156.5
1649.186	1099.83333
1652.174	1088.83333
1655.16	1044.5
1658.144	1046.16667
1661.125	987.83333
1664.105	957.5
1667.082	922.83333
1670.057	876.83333
1673.03	841.83333
1676.001	797.83333
1678.97	748.5
1681.937	713.83333
1684.901	689.83333
1687.863	667.83333
1690.824	637.5
1693.782	654.83333
1696.738	611.16667
1699.692	612.5
1702.643	603.5
1705.593	601.83333
1708.54	580.16667
1711.486	590.16667
1714.429	569.16667
1717.37	576.16667
1720.309	564.16667
1723.246	581.5
1726.181	545.5
1729.113	557.16667
1732.044	552.16667
1734.972	548.16667
1737.899	558.5
1740.823	557.16667
1743.745	571.83333
1746.665	535.16667
1749.583	523.83333
1752.499	522.16667
1755.413	525.5
1758.325	498.83333
1761.235	510.5
1764.142	499.83333
1767.048	508.16667
1769.951	506.5
1772.852	490.5
1775.752	501.83333
1778.649	493.5
1781.544	509.83333
1784.437	473.83333
1787.328	480.5
1790.217	489.16667
1793.104	464.83333
1795.989	461.5
1798.872	459.16667
1801.753	485.5
1804.631	474.16667
1807.508	470.83333
1810.383	471.16667
1813.255	461.5
1816.126	462.83333
1818.994	453.83333
1821.861	459.16667
1824.725	453.16667
1827.587	462.83333
1830.448	451.83333
1833.306	441.83333
1836.162	466.16667
1839.017	445.16667
1841.869	444.83333
1844.719	452.83333
1847.567	420.16667
1850.414	432.16667
1853.258	429.16667
1856.1	437.5
1858.94	446.83333
1861.778	431.83333
1864.614	418.83333
1867.448	434.5
1870.28	418.83333
1873.111	439.16667
1875.939	434.83333
1878.765	450.5
1881.589	419.16667
1884.411	429.83333
1887.231	434.16667
1890.049	421.5
1892.865	440.83333
1895.68	416.83333
1898.492	418.16667
1901.302	413.16667
1904.11	415.16667
1906.916	413.83333
1909.721	406.16667
1912.523	413.5
1915.323	400.16667
1918.122	394.83333
1920.918	416.83333
1923.712	393.16667
1926.505	402.5
1929.295	383.5
1932.084	407.83333
1934.87	397.16667
1937.655	385.16667
1940.438	391.83333
1943.218	399.5
1945.997	386.83333
1948.774	398.5
1951.549	398.83333
1954.322	379.16667
1957.093	381.83333
1959.862	384.16667
1962.629	393.5
1965.394	379.83333
1968.157	370.16667
1970.918	391.5
1973.678	367.5
1976.435	386.5
1979.19	371.83333
1981.944	359.83333
1984.696	370.16667
1987.445	363.5
1990.193	363.83333
1992.939	381.5
1995.683	366.16667
1998.425	343.16667
2001.165	383.83333
2003.903	345.83333
2006.639	350.5
2009.374	368.5
2012.106	367.16667
2014.837	341.5
2017.566	367.5
2020.292	357.83333
2023.017	352.83333
2025.74	351.83333
2028.461	341.83333
2031.18	350.5
2033.898	335.16667
2036.613	345.16667
2039.327	350.83333
2042.038	340.5
2044.748	341.5
2047.456	344.5
2050.162	336.16667
2052.866	331.83333
2055.568	349.5
2058.268	334.83333
2060.967	341.5
2063.663	319.16667
2066.358	328.16667
2069.051	320.83333
2071.742	334.83333
2074.431	340.5
2077.118	327.5
2079.804	319.83333
2082.487	323.16667
2085.169	335.16667
2087.849	351.5
2090.527	321.5
2093.203	328.5
2095.877	328.16667
2098.55	337.5
2101.22	337.16667
2103.889	337.5
2106.556	327.16667
2109.221	338.5
2111.884	335.16667
2114.546	361.83333
2117.205	362.16667
2119.863	405.16667
2122.519	406.5
2125.173	424.5
2127.825	461.16667
2130.475	457.83333
2133.124	437.16667
2135.771	424.83333
2138.416	428.5
2141.059	396.16667
2143.7	398.83333
2146.339	370.83333
2148.977	347.16667
2151.613	346.5
2154.247	342.5
2156.879	336.16667
2159.51	323.5
2162.138	332.16667
2164.765	312.83333
2167.39	306.83333
2170.013	334.16667
2172.634	326.83333
2175.254	306.83333
2177.872	342.5
2180.488	302.83333
2183.102	296.83333
2185.714	296.83333
2188.325	286.16667
2190.934	292.5
2193.541	300.83333
2196.146	289.5
2198.75	281.16667
2201.351	275.16667
2203.951	268.5
2206.549	285.5
2209.146	272.5
2211.74	262.83333
2214.333	276.83333
2216.924	263.83333
2219.514	269.5
2222.101	264.16667
2224.687	279.16667
2227.271	263.5
2229.853	261.16667
2232.433	246.5
2235.012	275.83333
2237.589	270.5
2240.164	274.5
2242.738	257.5
2245.309	246.16667
2247.879	268.5
2250.448	256.5
2253.014	245.83333
2255.579	240.83333
2258.142	245.5
2260.703	251.16667
2263.262	247.5
2265.82	243.83333
2268.376	254.5
2270.93	245.83333
2273.483	235.5
2276.033	249.5
2278.583	238.83333
2281.13	238.83333
2283.675	233.83333
2286.219	233.16667
2288.761	240.16667
2291.302	243.5
2293.841	246.5
2296.377	224.16667
2298.913	238.83333
2301.446	243.16667
2303.978	236.16667
2306.508	226.83333
2309.037	233.83333
2311.563	224.16667
2314.088	239.16667
2316.612	217.83333
2319.133	227.5
2321.653	228.83333
2324.171	216.83333
2326.688	224.5
2329.202	227.83333
2331.715	232.5
2334.227	229.5
2336.736	224.16667
2339.244	215.83333
2341.751	210.5
2344.255	222.16667
2346.758	228.16667
2349.259	207.5
2351.759	224.16667
2354.257	207.16667
2356.753	203.16667
2359.247	208.83333
2361.74	209.5
2364.231	212.5
2366.721	223.5
2369.209	207.5
2371.695	209.5
2374.179	200.5
2376.662	200.5
2379.143	220.16667
2381.622	205.16667
2384.1	211.83333
2386.576	201.83333
2389.051	218.16667
2391.524	215.5
2393.995	207.5
2396.464	197.16667
2398.932	192.5
2401.398	207.83333
2403.863	197.16667
2406.325	196.5
2408.787	203.5
2411.246	197.83333
2413.704	196.83333
2416.16	199.16667
2418.615	195.83333
2421.068	197.16667
2423.519	193.83333
2425.969	184.5
2428.417	205.16667
2430.863	216.83333
2433.308	199.83333
2435.751	198.83333
2438.193	195.83333
2440.633	193.5
2443.071	199.5
2445.508	191.5
2447.943	192.16667
2450.376	181.16667
2452.808	197.5
2455.238	188.16667
2457.667	213.83333
2460.093	181.16667
2462.519	177.83333
2464.942	184.83333
2467.365	189.83333
2469.785	192.5
2472.204	181.16667
2474.621	188.5
2477.037	201.16667
2479.451	171.5
2481.863	175.16667
2484.274	174.83333
2486.683	183.83333
2489.091	188.5
2491.497	185.83333
2493.901	181.5
2496.304	176.5
2498.705	188.16667
2501.105	181.5
2503.503	195.5
2505.899	168.16667
2508.294	193.5
2510.687	171.83333
2513.079	175.16667
2515.469	170.83333
2517.858	175.5
2520.245	191.16667
2522.63	168.16667
2525.014	172.83333
2527.396	171.5
2529.776	168.16667
2532.156	178.5
2534.533	166.16667
2536.909	160.16667
2539.283	150.16667
2541.656	164.5
2544.027	177.83333
2546.397	180.5
2548.765	168.83333
2551.131	170.16667
2553.496	169.5
2555.86	166.5
2558.221	169.5
2560.582	165.83333
2562.94	153.16667
2565.298	171.16667
2567.653	175.5
2570.007	155.16667
2572.36	171.83333
2574.711	157.5
2577.06	170.5
2579.408	164.5
2581.754	165.5
2584.099	162.16667
2586.442	162.16667
2588.784	167.16667
2591.124	160.16667
2593.463	161.5
2595.8	159.83333
2598.135	150.16667
2600.469	151.5
2602.802	166.83333
2605.133	167.16667
2607.462	150.5
2609.79	146.5
2612.116	168.5
2614.441	153.5
2616.764	169.5
2619.086	164.16667
2621.406	153.5
2623.725	158.83333
2626.042	156.5
2628.358	148.16667
2630.672	158.83333
2632.985	166.83333
2635.296	161.16667
2637.606	152.16667
2639.914	153.16667
2642.22	151.5
2644.525	152.5
2646.829	153.5
2649.131	166.16667
2651.432	157.83333
2653.731	154.83333
2656.028	166.5
2658.324	156.16667
2660.619	144.5
2662.912	165.83333
2665.204	143.16667
2667.494	157.5
2669.782	148.16667
2672.07	168.5
2674.355	162.16667
2676.639	152.16667
2678.922	147.16667
2681.203	157.16667
2683.483	152.5
2685.761	144.16667
2688.038	154.83333
2690.313	167.5
2692.587	152.83333
2694.859	145.5
2697.13	154.16667
2699.399	152.16667
2701.667	155.83333
2703.933	156.5
2706.198	169.83333
2708.461	154.16667
2710.723	160.5
2712.984	155.16667
2715.243	164.83333
2717.5	153.16667
2719.757	164.5
2722.011	157.5
2724.264	157.16667
2726.516	169.5
2728.766	156.5
2731.015	152.83333
2733.262	156.83333
2735.508	154.5
2737.753	156.5
2739.996	145.16667
2742.237	145.16667
2744.477	163.5
2746.716	157.5
2748.953	159.83333
2751.189	161.16667
2753.423	157.83333
2755.656	145.5
2757.887	144.5
2760.117	147.5
2762.346	140.5
2764.573	136.16667
2766.798	139.5
2769.022	149.16667
2771.245	140.83333
2773.467	147.83333
2775.686	144.83333
2777.905	147.16667
2780.122	144.16667
2782.337	149.16667
2784.552	146.83333
2786.764	142.16667
2788.976	143.5
2791.186	151.83333
2793.394	144.5
2795.601	155.5
2797.807	158.83333
2800.011	155.16667
2802.214	155.83333
2804.415	152.83333
2806.615	157.16667
2808.814	159.16667
2811.011	163.83333
2813.206	159.16667
2815.401	170.5
2817.594	162.5
2819.785	170.16667
2821.975	160.5
2824.164	164.83333
2826.351	161.16667
2828.537	179.5
2830.722	178.16667
2832.905	175.16667
2835.086	182.16667
2837.267	199.5
2839.445	193.5
2841.623	201.16667
2843.799	198.16667
2845.974	201.16667
2848.147	214.83333
2850.319	223.83333
2852.489	237.5
2854.659	232.83333
2856.826	238.16667
2858.993	250.83333
2861.158	232.5
2863.321	238.83333
2865.483	252.5
2867.644	244.5
2869.804	251.16667
2871.962	239.83333
2874.118	246.5
2876.274	246.5
2878.428	246.83333
2880.58	250.83333
2882.731	237.5
2884.881	238.5
2887.03	243.5
2889.177	245.16667
2891.322	252.83333
2893.467	239.16667
2895.61	236.83333
2897.751	261.5
2899.892	244.83333
2902.03	248.83333
2904.168	247.16667
2906.304	247.5
2908.439	268.83333
2910.572	244.16667
2912.704	253.5
2914.835	263.5
2916.965	253.5
2919.093	266.16667
2921.219	244.16667
2923.345	270.83333
2925.469	248.83333
2927.591	245.83333
2929.712	236.83333
2931.832	245.16667
2933.951	237.83333
2936.068	227.16667
2938.184	227.83333
2940.299	215.5
2942.412	210.83333
2944.524	196.16667
2946.634	206.16667
2948.744	181.16667
2950.851	215.5
2952.958	179.83333
2955.063	195.16667
2957.167	188.16667
2959.269	169.83333
2961.371	192.83333
2963.471	163.5
2965.569	182.16667
2967.666	157.5
2969.762	157.16667
2971.857	149.83333
2973.95	149.16667
2976.042	156.83333
2978.133	146.16667
2980.222	148.16667
2982.31	131.5
2984.396	118.83333
2986.482	130.16667
2988.566	133.83333
2990.648	130.83333
2992.73	131.16667
2994.81	116.16667
2996.889	130.16667
2998.966	120.83333
3001.042	136.83333
3003.117	119.5
3005.191	121.5
3007.263	126.16667
3009.334	123.5
3011.403	126.5
3013.472	117.16667
3015.539	136.5
3017.604	140.16667
3019.669	107.5
3021.732	117.16667
3023.794	111.5
3025.854	101.83333
3027.914	107.5
3029.971	105.16667
3032.028	109.83333
3034.083	115.5
3036.137	111.83333
3038.19	102.16667
3040.242	94.5
3042.292	94.16667
3044.341	99.5
3046.388	112.16667
3048.435	93.16667
3050.48	111.16667
3052.524	102.16667
3054.566	82.5
3056.607	97.5
3058.647	90.83333
3060.686	84.16667
3062.723	77.83333
3064.759	83.83333
3066.794	-0.5
3068.828	-0.5
3070.86	2.83333
