-0.839	131.08333
3.438	151.08333
7.711	61.75
11.981	42.41667
16.247	33.41667
20.509	37.75
24.768	36.75
29.024	41.75
33.276	30.75
37.524	42.41667
41.769	29.41667
46.01	24.08333
50.247	43.41667
54.481	50.08333
58.712	53.41667
62.939	36.08333
67.162	56.41667
71.382	46.41667
75.599	35.41667
79.812	44.75
84.021	59.41667
88.227	44.08333
92.429	50.75
96.628	36.75
100.823	52.75
105.015	51.75
109.204	47.41667
113.388	56.08333
117.57	41.08333
121.748	57.75
125.922	47.41667
130.093	63.75
134.261	62.41667
138.425	51.41667
142.585	83.41667
146.742	65.08333
150.896	72.75
155.046	69.08333
159.193	104.41667
163.336	147.41667
167.476	246.75
171.613	446.08333
175.746	709.75
179.875	1043.75
184.002	1347.75
188.124	1600.41667
192.244	1676.75
196.36	1672.41667
200.472	1662.75
204.581	1650.75
208.687	1593.41667
212.79	1592.41667
216.889	1641.41667
220.984	1622.08333
225.077	1641.41667
229.165	1640.41667
233.251	1639.41667
237.333	1643.41667
241.412	1632.75
245.487	1630.41667
249.559	1584.75
253.628	1602.75
257.694	1588.41667
261.756	1574.75
265.814	1560.75
269.87	1502.08333
273.922	1469.41667
277.97	1451.75
282.016	1438.75
286.058	1418.75
290.097	1439.41667
294.132	1461.75
298.164	1458.75
302.193	1402.41667
306.219	1316.41667
310.241	1239.75
314.26	1154.41667
318.276	1099.08333
322.288	1073.75
326.297	1034.41667
330.303	1000.08333
334.305	984.41667
338.305	974.75
342.301	986.41667
346.294	975.41667
350.283	968.41667
354.269	957.75
358.252	951.41667
362.232	965.41667
366.209	955.75
370.182	954.08333
374.152	940.41667
378.119	948.08333
382.083	928.08333
386.043	958.75
390	936.08333
393.954	954.41667
397.905	949.08333
401.852	948.75
405.797	946.08333
409.738	949.75
413.676	970.41667
417.61	994.08333
421.542	952.41667
425.47	917.75
429.396	913.75
433.318	907.41667
437.236	914.08333
441.152	946.41667
445.065	901.08333
448.974	921.41667
452.88	900.75
456.783	900.41667
460.683	891.75
464.58	884.75
468.473	906.75
472.364	900.08333
476.251	897.08333
480.135	909.75
484.016	917.41667
487.894	911.75
491.769	924.75
495.641	912.41667
499.509	923.08333
503.375	919.75
507.237	911.41667
511.096	915.08333
514.952	924.08333
518.805	928.41667
522.655	923.08333
526.502	902.08333
530.346	920.08333
534.187	929.75
538.024	917.75
541.859	908.08333
545.69	929.41667
549.519	920.75
553.344	910.41667
557.166	897.08333
560.985	884.08333
564.802	895.75
568.615	884.41667
572.425	873.41667
576.232	866.75
580.036	874.41667
583.836	877.08333
587.634	893.75
591.429	882.41667
595.221	900.08333
599.01	896.41667
602.796	886.75
606.578	899.08333
610.358	904.08333
614.135	879.08333
617.909	892.08333
621.679	887.08333
625.447	886.41667
629.212	879.75
632.973	893.08333
636.732	877.75
640.488	891.75
644.241	870.75
647.991	867.41667
651.737	901.08333
655.481	862.41667
659.222	868.08333
662.96	861.41667
666.695	875.75
670.427	875.41667
674.156	882.08333
677.882	892.41667
681.605	884.08333
685.325	863.75
689.043	884.41667
692.757	870.08333
696.468	863.41667
700.177	875.41667
703.882	850.41667
707.585	844.08333
711.284	864.75
714.981	840.75
718.675	843.08333
722.366	866.41667
726.054	845.41667
729.739	839.41667
733.421	844.41667
737.1	848.08333
740.777	856.41667
744.45	851.08333
748.121	855.41667
751.789	886.41667
755.453	859.41667
759.115	864.08333
762.774	861.08333
766.431	873.08333
770.084	876.08333
773.734	873.41667
777.382	891.41667
781.027	904.75
784.669	884.08333
788.308	883.75
791.944	907.75
795.577	911.08333
799.208	896.75
802.835	902.08333
806.46	913.08333
810.082	915.75
813.701	915.41667
817.317	921.08333
820.931	917.08333
824.542	933.41667
828.149	904.41667
831.754	895.75
835.357	902.41667
838.956	905.08333
842.553	914.41667
846.146	899.08333
849.737	881.41667
853.326	882.75
856.911	853.75
860.493	896.08333
864.073	893.08333
867.65	933.75
871.225	931.75
874.796	906.41667
878.365	905.75
881.931	901.41667
885.494	918.41667
889.054	902.41667
892.612	923.41667
896.166	899.41667
899.719	879.41667
903.268	861.41667
906.814	861.75
910.358	867.75
913.899	849.75
917.438	861.08333
920.973	829.41667
924.506	847.41667
928.036	871.41667
931.564	871.08333
935.088	892.41667
938.61	867.75
942.129	872.08333
945.646	882.75
949.16	895.75
952.671	916.08333
956.179	924.75
959.685	903.08333
963.188	917.08333
966.688	909.75
970.185	882.41667
973.68	857.08333
977.173	864.41667
980.662	837.75
984.149	841.41667
987.633	826.08333
991.114	844.08333
994.593	861.08333
998.069	864.08333
1001.542	883.08333
1005.013	877.41667
1008.481	814.75
1011.947	819.08333
1015.409	820.08333
1018.869	813.08333
1022.327	812.75
1025.782	807.08333
1029.234	795.75
1032.683	794.41667
1036.13	770.08333
1039.574	737.41667
1043.016	729.41667
1046.455	726.08333
1049.891	714.08333
1053.325	725.08333
1056.756	719.41667
1060.184	718.41667
1063.61	708.75
1067.033	728.75
1070.454	706.41667
1073.872	734.41667
1077.287	720.75
1080.7	714.41667
1084.11	721.08333
1087.517	714.41667
1090.922	709.08333
1094.325	687.08333
1097.724	686.41667
1101.122	694.08333
1104.516	696.75
1107.908	678.75
1111.298	693.41667
1114.684	704.08333
1118.069	693.41667
1121.45	739.41667
1124.83	705.41667
1128.206	699.41667
1131.58	717.08333
1134.951	728.75
1138.32	740.41667
1141.687	779.41667
1145.05	790.08333
1148.412	787.08333
1151.77	791.41667
1155.126	781.75
1158.48	760.08333
1161.831	772.41667
1165.18	775.75
1168.525	787.75
1171.869	802.41667
1175.21	792.08333
1178.548	814.08333
1181.884	801.41667
1185.217	817.08333
1188.548	839.08333
1191.877	835.75
1195.202	893.08333
1198.526	915.41667
1201.846	907.41667
1205.165	901.41667
1208.48	908.75
1211.794	900.41667
1215.104	905.75
1218.413	888.08333
1221.719	890.41667
1225.022	877.41667
1228.323	859.41667
1231.621	880.41667
1234.917	870.41667
1238.21	879.75
1241.501	864.41667
1244.79	850.08333
1248.076	826.75
1251.359	859.08333
1254.64	902.41667
1257.919	867.75
1261.195	877.75
1264.468	888.75
1267.74	908.08333
1271.008	905.41667
1274.275	908.08333
1277.538	911.75
1280.8	895.08333
1284.059	882.08333
1287.315	904.08333
1290.569	900.75
1293.821	927.08333
1297.07	909.41667
1300.317	928.08333
1303.562	918.08333
1306.803	907.75
1310.043	913.75
1313.28	910.41667
1316.515	901.08333
1319.747	911.75
1322.977	893.75
1326.204	886.08333
1329.429	877.41667
1332.652	883.75
1335.872	874.41667
1339.09	858.08333
1342.306	863.75
1345.519	840.41667
1348.729	832.75
1351.938	840.41667
1355.144	834.08333
1358.347	816.08333
1361.548	820.41667
1364.747	825.75
1367.944	806.41667
1371.138	813.41667
1374.329	804.41667
1377.518	816.41667
1380.705	818.41667
1383.89	819.41667
1387.072	784.41667
1390.252	767.08333
1393.429	748.75
1396.605	733.75
1399.777	707.08333
1402.948	708.41667
1406.116	688.08333
1409.282	689.41667
1412.445	679.08333
1415.606	699.08333
1418.765	686.41667
1421.921	718.75
1425.075	725.75
1428.227	740.75
1431.376	771.75
1434.524	791.08333
1437.668	826.75
1440.811	817.08333
1443.951	811.75
1447.089	828.41667
1450.224	830.75
1453.357	827.75
1456.488	803.08333
1459.617	811.08333
1462.743	801.41667
1465.867	770.41667
1468.989	780.75
1472.108	770.08333
1475.225	748.08333
1478.34	741.75
1481.453	741.75
1484.563	721.08333
1487.671	742.75
1490.776	751.41667
1493.88	756.41667
1496.981	775.08333
1500.08	778.41667
1503.176	763.41667
1506.271	778.75
1509.363	799.08333
1512.452	799.75
1515.54	804.08333
1518.625	805.08333
1521.708	848.08333
1524.789	856.08333
1527.867	887.08333
1530.944	927.75
1534.018	940.41667
1537.089	991.41667
1540.159	1003.41667
1543.226	1002.41667
1546.291	976.08333
1549.354	963.08333
1552.415	953.75
1555.473	915.08333
1558.529	925.41667
1561.583	910.75
1564.634	897.75
1567.684	894.75
1570.731	897.08333
1573.776	907.41667
1576.819	917.08333
1579.859	915.41667
1582.898	931.75
1585.934	942.08333
1588.968	953.75
1591.999	934.08333
1595.029	929.08333
1598.056	960.08333
1601.081	974.41667
1604.104	954.41667
1607.125	947.41667
1610.144	933.75
1613.16	892.41667
1616.174	875.41667
1619.186	874.08333
1622.196	848.08333
1625.203	823.08333
1628.209	821.41667
1631.212	821.08333
1634.213	816.75
1637.212	816.08333
1640.209	815.41667
1643.203	796.41667
1646.196	765.08333
1649.186	735.41667
1652.174	718.41667
1655.16	695.41667
1658.144	685.08333
1661.125	663.41667
1664.105	636.08333
1667.082	614.75
1670.057	571.41667
1673.03	544.41667
1676.001	529.41667
1678.97	500.08333
1681.937	478.41667
1684.901	455.08333
1687.863	451.08333
1690.824	416.41667
1693.782	424.75
1696.738	398.75
1699.692	400.08333
1702.643	380.08333
1705.593	392.41667
1708.54	384.41667
1711.486	388.08333
1714.429	370.08333
1717.37	374.08333
1720.309	364.41667
1723.246	371.08333
1726.181	361.08333
1729.113	358.75
1732.044	358.75
1734.972	349.75
1737.899	367.75
1740.823	363.75
1743.745	377.08333
1746.665	340.41667
1749.583	338.75
1752.499	331.08333
1755.413	333.08333
1758.325	320.75
1761.235	330.75
1764.142	318.08333
1767.048	314.41667
1769.951	317.08333
1772.852	315.08333
1775.752	322.75
1778.649	335.75
1781.544	341.08333
1784.437	304.08333
1787.328	314.41667
1790.217	306.75
1793.104	288.08333
1795.989	292.75
1798.872	286.75
1801.753	310.75
1804.631	299.75
1807.508	304.41667
1810.383	296.08333
1813.255	303.08333
1816.126	297.08333
1818.994	289.75
1821.861	289.08333
1824.725	295.08333
1827.587	296.75
1830.448	294.75
1833.306	276.75
1836.162	296.75
1839.017	286.75
1841.869	294.41667
1844.719	286.41667
1847.567	271.08333
1850.414	270.41667
1853.258	263.08333
1856.1	286.08333
1858.94	289.41667
1861.778	279.41667
1864.614	267.75
1867.448	280.75
1870.28	259.41667
1873.111	287.08333
1875.939	274.41667
1878.765	282.75
1881.589	271.08333
1884.411	274.08333
1887.231	277.75
1890.049	273.75
1892.865	279.75
1895.68	268.41667
1898.492	279.41667
1901.302	268.08333
1904.11	267.08333
1906.916	270.08333
1909.721	258.75
1912.523	268.75
1915.323	255.41667
1918.122	251.08333
1920.918	272.41667
1923.712	251.08333
1926.505	260.08333
1929.295	237.75
1932.084	258.75
1934.87	257.75
1937.655	256.75
1940.438	246.75
1943.218	249.75
1945.997	252.08333
1948.774	262.41667
1951.549	260.41667
1954.322	250.75
1957.093	256.41667
1959.862	246.08333
1962.629	244.41667
1965.394	247.41667
1968.157	239.75
1970.918	259.08333
1973.678	235.08333
1976.435	251.08333
1979.19	238.75
1981.944	228.75
1984.696	242.08333
1987.445	236.08333
1990.193	239.41667
1992.939	251.08333
1995.683	245.08333
1998.425	223.08333
2001.165	250.41667
2003.903	224.75
2006.639	234.75
2009.374	238.75
2012.106	242.41667
2014.837	219.41667
2017.566	240.75
2020.292	232.08333
2023.017	233.41667
2025.74	229.75
2028.461	220.08333
2031.18	226.41667
2033.898	219.75
2036.613	228.08333
2039.327	232.41667
2042.038	220.75
2044.748	223.08333
2047.456	228.75
2050.162	216.41667
2052.866	220.08333
2055.568	233.75
2058.268	219.75
2060.967	230.75
2063.663	214.08333
2066.358	206.41667
2069.051	207.75
2071.742	222.75
2074.431	226.75
2077.118	215.08333
2079.804	205.41667
2082.487	212.41667
2085.169	227.41667
2087.849	236.08333
2090.527	214.08333
2093.203	221.08333
2095.877	212.75
2098.55	217.08333
2101.22	228.75
2103.889	224.75
2106.556	215.08333
2109.221	235.75
2111.884	221.75
2114.546	242.41667
2117.205	249.75
2119.863	272.08333
2122.519	270.08333
2125.173	280.08333
2127.825	318.08333
2130.475	316.75
2133.124	295.41667
2135.771	281.75
2138.416	300.75
2141.059	264.08333
2143.7	274.41667
2146.339	245.41667
2148.977	216.08333
2151.613	239.08333
2154.247	224.75
2156.879	223.75
2159.51	215.08333
2162.138	211.75
2164.765	207.08333
2167.39	194.08333
2170.013	223.41667
2172.634	215.41667
2175.254	205.75
2177.872	238.08333
2180.488	191.75
2183.102	198.75
2185.714	202.08333
2188.325	190.41667
2190.934	203.75
2193.541	208.41667
2196.146	196.41667
2198.75	186.41667
2201.351	180.75
2203.951	176.08333
2206.549	197.08333
2209.146	190.75
2211.74	182.75
2214.333	193.75
2216.924	182.75
2219.514	174.75
2222.101	181.08333
2224.687	189.75
2227.271	171.08333
2229.853	172.08333
2232.433	165.41667
2235.012	185.41667
2237.589	188.41667
2240.164	193.75
2242.738	178.08333
2245.309	171.08333
2247.879	188.75
2250.448	189.08333
2253.014	168.41667
2255.579	165.08333
2258.142	174.75
2260.703	163.41667
2263.262	166.41667
2265.82	153.75
2268.376	177.41667
2270.93	164.41667
2273.483	163.41667
2276.033	169.41667
2278.583	161.08333
2281.13	165.41667
2283.675	155.75
2286.219	162.08333
2288.761	171.08333
2291.302	159.08333
2293.841	178.41667
2296.377	153.41667
2298.913	166.08333
2301.446	174.75
2303.978	162.08333
2306.508	164.08333
2309.037	162.75
2311.563	161.41667
2314.088	171.41667
2316.612	152.08333
2319.133	162.75
2321.653	162.41667
2324.171	152.41667
2326.688	174.08333
2329.202	159.08333
2331.715	159.75
2334.227	156.08333
2336.736	159.08333
2339.244	149.41667
2341.751	139.41667
2344.255	160.75
2346.758	156.41667
2349.259	149.41667
2351.759	154.75
2354.257	145.41667
2356.753	139.75
2359.247	149.08333
2361.74	146.08333
2364.231	152.08333
2366.721	155.08333
2369.209	147.75
2371.695	150.75
2374.179	141.75
2376.662	132.75
2379.143	159.08333
2381.622	144.75
2384.1	153.75
2386.576	146.75
2389.051	154.41667
2391.524	159.08333
2393.995	155.75
2396.464	144.41667
2398.932	135.08333
2401.398	146.75
2403.863	140.75
2406.325	139.08333
2408.787	147.41667
2411.246	141.75
2413.704	149.41667
2416.16	138.75
2418.615	142.08333
2421.068	144.41667
2423.519	142.75
2425.969	129.08333
2428.417	149.75
2430.863	160.41667
2433.308	145.41667
2435.751	148.08333
2438.193	140.75
2440.633	146.75
2443.071	148.41667
2445.508	135.08333
2447.943	139.08333
2450.376	141.41667
2452.808	148.08333
2455.238	134.41667
2457.667	161.41667
2460.093	131.75
2462.519	124.75
2464.942	130.08333
2467.365	142.08333
2469.785	140.75
2472.204	131.08333
2474.621	139.75
2477.037	146.08333
2479.451	126.41667
2481.863	126.41667
2484.274	129.41667
2486.683	133.08333
2489.091	145.75
2491.497	140.08333
2493.901	137.08333
2496.304	128.08333
2498.705	136.75
2501.105	129.41667
2503.503	149.08333
2505.899	123.75
2508.294	142.75
2510.687	131.41667
2513.079	126.41667
2515.469	125.41667
2517.858	128.08333
2520.245	138.08333
2522.63	123.08333
2525.014	129.08333
2527.396	123.08333
2529.776	128.08333
2532.156	131.41667
2534.533	113.75
2536.909	120.75
2539.283	112.41667
2541.656	118.08333
2544.027	140.08333
2546.397	132.08333
2548.765	121.08333
2551.131	126.08333
2553.496	130.41667
2555.86	129.41667
2558.221	130.41667
2560.582	122.08333
2562.94	114.41667
2565.298	123.08333
2567.653	135.41667
2570.007	112.75
2572.36	129.08333
2574.711	114.75
2577.06	139.75
2579.408	122.41667
2581.754	116.41667
2584.099	119.75
2586.442	123.41667
2588.784	127.08333
2591.124	126.75
2593.463	122.08333
2595.8	128.41667
2598.135	115.08333
2600.469	111.08333
2602.802	130.75
2605.133	128.08333
2607.462	112.08333
2609.79	107.75
2612.116	128.08333
2614.441	121.08333
2616.764	124.75
2619.086	122.41667
2621.406	119.08333
2623.725	133.41667
2626.042	116.75
2628.358	105.75
2630.672	122.75
2632.985	127.08333
2635.296	124.41667
2637.606	116.75
2639.914	113.08333
2642.22	116.75
2644.525	121.75
2646.829	124.08333
2649.131	131.75
2651.432	128.41667
2653.731	117.75
2656.028	127.75
2658.324	125.08333
2660.619	109.08333
2662.912	133.08333
2665.204	105.75
2667.494	123.41667
2669.782	112.08333
2672.07	132.08333
2674.355	130.41667
2676.639	122.75
2678.922	118.08333
2681.203	119.08333
2683.483	116.41667
2685.761	107.08333
2688.038	123.75
2690.313	129.75
2692.587	119.41667
2694.859	117.41667
2697.13	117.08333
2699.399	123.08333
2701.667	129.08333
2703.933	126.41667
2706.198	129.75
2708.461	133.75
2710.723	132.08333
2712.984	124.75
2715.243	126.08333
2717.5	121.08333
2719.757	132.75
2722.011	123.75
2724.264	131.08333
2726.516	132.75
2728.766	119.75
2731.015	121.75
2733.262	129.41667
2735.508	123.75
2737.753	127.41667
2739.996	110.75
2742.237	115.41667
2744.477	127.41667
2746.716	137.75
2748.953	127.75
2751.189	136.75
2753.423	124.41667
2755.656	119.75
2757.887	110.08333
2760.117	122.08333
2762.346	113.75
2764.573	107.08333
2766.798	117.08333
2769.022	120.75
2771.245	118.08333
2773.467	119.75
2775.686	116.41667
2777.905	124.41667
2780.122	119.75
2782.337	126.08333
2784.552	113.41667
2786.764	115.41667
2788.976	114.75
2791.186	120.41667
2793.394	120.08333
2795.601	125.08333
2797.807	126.41667
2800.011	125.08333
2802.214	129.41667
2804.415	124.08333
2806.615	126.08333
2808.814	124.41667
2811.011	132.08333
2813.206	131.41667
2815.401	136.08333
2817.594	138.08333
2819.785	142.75
2821.975	119.08333
2824.164	134.75
2826.351	135.41667
2828.537	144.08333
2830.722	144.41667
2832.905	139.08333
2835.086	145.75
2837.267	166.08333
2839.445	160.41667
2841.623	157.75
2843.799	161.08333
2845.974	166.41667
2848.147	169.75
2850.319	184.75
2852.489	188.41667
2854.659	188.08333
2856.826	180.08333
2858.993	212.08333
2861.158	185.75
2863.321	187.08333
2865.483	211.08333
2867.644	200.41667
2869.804	201.08333
2871.962	192.08333
2874.118	204.75
2876.274	215.41667
2878.428	204.41667
2880.58	209.75
2882.731	194.08333
2884.881	201.08333
2887.03	205.08333
2889.177	199.75
2891.322	208.41667
2893.467	191.41667
2895.61	193.41667
2897.751	207.41667
2899.892	195.41667
2902.03	203.08333
2904.168	191.75
2906.304	197.08333
2908.439	221.08333
2910.572	192.75
2912.704	206.08333
2914.835	207.41667
2916.965	204.75
2919.093	221.75
2921.219	187.08333
2923.345	215.75
2925.469	207.08333
2927.591	200.41667
2929.712	188.08333
2931.832	201.08333
2933.951	191.41667
2936.068	188.08333
2938.184	186.75
2940.299	177.41667
2942.412	180.08333
2944.524	160.41667
2946.634	172.75
2948.744	150.75
2950.851	186.41667
2952.958	147.75
2955.063	165.08333
2957.167	154.08333
2959.269	139.08333
2961.371	174.75
2963.471	143.08333
2965.569	158.41667
2967.666	131.08333
2969.762	133.41667
2971.857	130.41667
2973.95	123.41667
2976.042	139.41667
2978.133	120.75
2980.222	120.75
2982.31	118.08333
2984.396	105.75
2986.482	112.75
2988.566	113.41667
2990.648	111.75
2992.73	111.41667
2994.81	100.41667
2996.889	114.08333
2998.966	110.75
3001.042	118.08333
3003.117	107.41667
3005.191	106.41667
3007.263	115.41667
3009.334	106.41667
3011.403	112.08333
3013.472	103.08333
3015.539	123.08333
3017.604	126.41667
3019.669	95.08333
3021.732	100.75
3023.794	107.08333
3025.854	97.41667
3027.914	90.08333
3029.971	97.75
3032.028	99.75
3034.083	105.41667
3036.137	101.75
3038.19	90.41667
3040.242	86.41667
3042.292	87.41667
3044.341	93.08333
3046.388	105.08333
3048.435	85.08333
3050.48	104.75
3052.524	89.41667
3054.566	77.08333
3056.607	91.41667
3058.647	85.41667
3060.686	74.41667
3062.723	73.41667
3064.759	73.41667
3066.794	2.41667
3068.828	1.41667
3070.86	1.08333
