-0.839	143.375
3.438	159.375
7.711	66.375
11.981	44.04167
16.247	31.375
20.509	37.04167
24.768	36.375
29.024	46.375
33.276	32.375
37.524	43.04167
41.769	35.70833
46.01	31.04167
50.247	46.70833
54.481	53.375
58.712	59.04167
62.939	37.70833
67.162	53.375
71.382	45.70833
75.599	37.70833
79.812	51.375
84.021	67.04167
88.227	43.70833
92.429	53.375
96.628	41.70833
100.823	54.375
105.015	57.70833
109.204	46.70833
113.388	61.375
117.57	45.375
121.748	66.04167
125.922	51.70833
130.093	70.04167
134.261	69.70833
138.425	60.375
142.585	90.375
146.742	71.375
150.896	89.04167
155.046	84.375
159.193	129.04167
163.336	192.04167
167.476	329.70833
171.613	607.70833
175.746	991.70833
179.875	1462.04167
184.002	1909.70833
188.124	2283.375
192.244	2440.70833
196.36	2452.70833
200.472	2460.04167
204.581	2432.70833
208.687	2403.375
212.79	2388.375
216.889	2422.375
220.984	2458.375
225.077	2475.375
229.165	2487.04167
233.251	2493.375
237.333	2497.04167
241.412	2498.04167
245.487	2483.04167
249.559	2460.04167
253.628	2456.375
257.694	2454.70833
261.756	2475.375
265.814	2423.70833
269.87	2356.70833
273.922	2311.70833
277.97	2286.70833
282.016	2306.70833
286.058	2263.70833
290.097	2290.70833
294.132	2326.375
298.164	2312.70833
302.193	2242.70833
306.219	2169.04167
310.241	2056.375
314.26	1951.04167
318.276	1893.70833
322.288	1860.70833
326.297	1800.70833
330.303	1812.04167
334.305	1778.375
338.305	1761.04167
342.301	1768.375
346.294	1786.70833
350.283	1764.70833
354.269	1764.04167
358.252	1751.375
362.232	1754.375
366.209	1742.70833
370.182	1753.04167
374.152	1757.375
378.119	1749.04167
382.083	1758.375
386.043	1762.70833
390	1766.04167
393.954	1783.375
397.905	1807.04167
401.852	1822.04167
405.797	1788.70833
409.738	1861.04167
413.676	1945.70833
417.61	2028.04167
421.542	1874.70833
425.47	1771.70833
429.396	1782.70833
433.318	1746.04167
437.236	1739.375
441.152	1766.375
445.065	1732.70833
448.974	1733.70833
452.88	1739.70833
456.783	1707.70833
460.683	1719.70833
464.58	1720.375
468.473	1739.375
472.364	1752.375
476.251	1744.70833
480.135	1732.375
484.016	1784.375
487.894	1778.375
491.769	1761.70833
495.641	1764.375
499.509	1783.375
503.375	1778.04167
507.237	1740.375
511.096	1748.04167
514.952	1761.375
518.805	1736.375
522.655	1736.375
526.502	1740.375
530.346	1727.375
534.187	1762.70833
538.024	1743.70833
541.859	1749.375
545.69	1764.70833
549.519	1741.70833
553.344	1744.04167
557.166	1715.375
560.985	1708.70833
564.802	1725.375
568.615	1702.70833
572.425	1664.70833
576.232	1671.04167
580.036	1663.375
583.836	1674.70833
587.634	1667.375
591.429	1668.70833
595.221	1696.04167
599.01	1712.375
602.796	1693.70833
606.578	1714.04167
610.358	1720.04167
614.135	1697.70833
617.909	1706.04167
621.679	1682.70833
625.447	1674.375
629.212	1695.04167
632.973	1683.04167
636.732	1692.70833
640.488	1679.04167
644.241	1658.70833
647.991	1649.70833
651.737	1668.70833
655.481	1636.70833
659.222	1652.70833
662.96	1641.375
666.695	1632.04167
670.427	1657.04167
674.156	1653.70833
677.882	1639.375
681.605	1636.70833
685.325	1640.375
689.043	1654.70833
692.757	1629.70833
696.468	1625.375
700.177	1620.70833
703.882	1604.375
707.585	1587.04167
711.284	1591.375
714.981	1572.375
718.675	1566.70833
722.366	1584.375
726.054	1555.375
729.739	1559.70833
733.421	1582.375
737.1	1538.375
740.777	1567.04167
744.45	1575.375
748.121	1570.70833
751.789	1598.375
755.453	1584.04167
759.115	1588.04167
762.774	1585.70833
766.431	1578.70833
770.084	1600.70833
773.734	1568.375
777.382	1598.375
781.027	1576.375
784.669	1574.04167
788.308	1568.04167
791.944	1586.375
795.577	1587.375
799.208	1585.375
802.835	1612.375
806.46	1610.04167
810.082	1589.04167
813.701	1583.375
817.317	1611.375
820.931	1624.04167
824.542	1614.375
828.149	1576.04167
831.754	1564.375
835.357	1555.04167
838.956	1585.375
842.553	1600.04167
846.146	1592.375
849.737	1531.04167
853.326	1525.04167
856.911	1489.04167
860.493	1524.375
864.073	1549.04167
867.65	1651.375
871.225	1640.375
874.796	1555.375
878.365	1517.70833
881.931	1526.04167
885.494	1534.375
889.054	1523.375
892.612	1519.70833
896.166	1513.70833
899.719	1471.375
903.268	1471.04167
906.814	1467.70833
910.358	1470.70833
913.899	1453.04167
917.438	1450.375
920.973	1415.70833
924.506	1429.70833
928.036	1463.04167
931.564	1467.04167
935.088	1471.375
938.61	1471.04167
942.129	1457.375
945.646	1484.04167
949.16	1489.70833
952.671	1492.04167
956.179	1522.70833
959.685	1501.04167
963.188	1524.375
966.688	1497.375
970.185	1452.375
973.68	1412.70833
977.173	1431.375
980.662	1407.70833
984.149	1416.375
987.633	1400.375
991.114	1418.375
994.593	1436.04167
998.069	1458.04167
1001.542	1509.04167
1005.013	1494.70833
1008.481	1394.04167
1011.947	1375.70833
1015.409	1348.375
1018.869	1355.70833
1022.327	1370.375
1025.782	1349.70833
1029.234	1340.04167
1032.683	1318.70833
1036.13	1295.375
1039.574	1268.70833
1043.016	1247.70833
1046.455	1233.375
1049.891	1216.70833
1053.325	1235.375
1056.756	1215.04167
1060.184	1215.70833
1063.61	1216.375
1067.033	1212.375
1070.454	1199.375
1073.872	1234.70833
1077.287	1204.375
1080.7	1216.70833
1084.11	1205.375
1087.517	1195.04167
1090.922	1183.375
1094.325	1160.04167
1097.724	1155.375
1101.122	1148.375
1104.516	1156.375
1107.908	1144.04167
1111.298	1142.70833
1114.684	1161.04167
1118.069	1136.04167
1121.45	1200.04167
1124.83	1178.04167
1128.206	1171.04167
1131.58	1176.375
1134.951	1204.375
1138.32	1204.70833
1141.687	1239.70833
1145.05	1268.375
1148.412	1259.04167
1151.77	1245.04167
1155.126	1233.70833
1158.48	1220.04167
1161.831	1225.70833
1165.18	1226.70833
1168.525	1237.04167
1171.869	1244.375
1175.21	1250.04167
1178.548	1263.04167
1181.884	1260.04167
1185.217	1278.70833
1188.548	1290.70833
1191.877	1310.70833
1195.202	1346.04167
1198.526	1364.04167
1201.846	1388.70833
1205.165	1369.70833
1208.48	1353.70833
1211.794	1363.375
1215.104	1348.70833
1218.413	1347.70833
1221.719	1365.375
1225.022	1329.04167
1228.323	1305.375
1231.621	1318.04167
1234.917	1304.04167
1238.21	1345.04167
1241.501	1306.70833
1244.79	1282.04167
1248.076	1280.70833
1251.359	1288.375
1254.64	1338.375
1257.919	1325.04167
1261.195	1335.70833
1264.468	1347.375
1267.74	1375.375
1271.008	1372.375
1274.275	1365.70833
1277.538	1361.04167
1280.8	1367.04167
1284.059	1352.70833
1287.315	1372.04167
1290.569	1356.70833
1293.821	1347.70833
1297.07	1347.375
1300.317	1354.04167
1303.562	1358.04167
1306.803	1345.375
1310.043	1315.70833
1313.28	1335.04167
1316.515	1316.70833
1319.747	1320.70833
1322.977	1313.70833
1326.204	1307.04167
1329.429	1298.70833
1332.652	1286.70833
1335.872	1302.70833
1339.09	1280.375
1342.306	1303.70833
1345.519	1300.375
1348.729	1283.375
1351.938	1274.375
1355.144	1249.70833
1358.347	1227.04167
1361.548	1240.70833
1364.747	1244.375
1367.944	1219.375
1371.138	1206.04167
1374.329	1226.04167
1377.518	1220.70833
1380.705	1226.70833
1383.89	1220.375
1387.072	1173.375
1390.252	1163.70833
1393.429	1149.375
1396.605	1110.70833
1399.777	1070.70833
1402.948	1076.375
1406.116	1055.70833
1409.282	1054.70833
1412.445	1058.70833
1415.606	1061.70833
1418.765	1066.70833
1421.921	1083.04167
1425.075	1090.70833
1428.227	1114.375
1431.376	1153.70833
1434.524	1171.375
1437.668	1187.04167
1440.811	1204.375
1443.951	1193.375
1447.089	1210.70833
1450.224	1216.04167
1453.357	1199.70833
1456.488	1199.70833
1459.617	1189.04167
1462.743	1167.375
1465.867	1130.70833
1468.989	1153.375
1472.108	1118.375
1475.225	1095.70833
1478.34	1082.70833
1481.453	1070.70833
1484.563	1067.04167
1487.671	1072.70833
1490.776	1102.04167
1493.88	1091.375
1496.981	1121.04167
1500.08	1117.70833
1503.176	1120.375
1506.271	1131.70833
1509.363	1153.375
1512.452	1157.04167
1515.54	1159.375
1518.625	1170.70833
1521.708	1196.375
1524.789	1227.375
1527.867	1259.375
1530.944	1301.04167
1534.018	1352.70833
1537.089	1372.70833
1540.159	1387.04167
1543.226	1379.04167
1546.291	1355.375
1549.354	1337.375
1552.415	1310.04167
1555.473	1288.70833
1558.529	1281.04167
1561.583	1243.70833
1564.634	1248.04167
1567.684	1239.375
1570.731	1234.375
1573.776	1251.375
1576.819	1262.04167
1579.859	1249.04167
1582.898	1275.375
1585.934	1292.04167
1588.968	1288.70833
1591.999	1281.375
1595.029	1273.04167
1598.056	1286.375
1601.081	1306.04167
1604.104	1303.04167
1607.125	1273.70833
1610.144	1251.375
1613.16	1239.70833
1616.174	1230.375
1619.186	1216.04167
1622.196	1202.70833
1625.203	1155.04167
1628.209	1155.04167
1631.212	1133.04167
1634.213	1140.70833
1637.212	1142.70833
1640.209	1144.04167
1643.203	1112.04167
1646.196	1090.04167
1649.186	1072.375
1652.174	1041.70833
1655.16	1014.04167
1658.144	1002.70833
1661.125	965.375
1664.105	936.70833
1667.082	907.375
1670.057	864.375
1673.03	830.70833
1676.001	796.04167
1678.97	739.04167
1681.937	712.375
1684.901	691.04167
1687.863	685.375
1690.824	631.04167
1693.782	654.04167
1696.738	625.04167
1699.692	618.04167
1702.643	595.375
1705.593	604.70833
1708.54	592.04167
1711.486	605.375
1714.429	575.375
1717.37	593.375
1720.309	577.375
1723.246	584.70833
1726.181	568.04167
1729.113	560.70833
1732.044	572.04167
1734.972	556.70833
1737.899	570.04167
1740.823	559.70833
1743.745	586.375
1746.665	550.375
1749.583	536.375
1752.499	540.375
1755.413	525.70833
1758.325	523.375
1761.235	531.375
1764.142	507.70833
1767.048	504.70833
1769.951	510.375
1772.852	510.70833
1775.752	565.04167
1778.649	611.375
1781.544	549.70833
1784.437	501.70833
1787.328	502.375
1790.217	493.375
1793.104	479.375
1795.989	482.04167
1798.872	469.70833
1801.753	495.375
1804.631	483.70833
1807.508	491.04167
1810.383	487.04167
1813.255	479.70833
1816.126	471.04167
1818.994	474.70833
1821.861	467.375
1824.725	471.04167
1827.587	482.04167
1830.448	466.375
1833.306	453.04167
1836.162	469.375
1839.017	456.70833
1841.869	462.375
1844.719	449.70833
1847.567	440.70833
1850.414	435.375
1853.258	439.375
1856.1	454.70833
1858.94	451.70833
1861.778	442.04167
1864.614	432.375
1867.448	443.70833
1870.28	432.375
1873.111	454.04167
1875.939	435.70833
1878.765	454.375
1881.589	434.70833
1884.411	440.70833
1887.231	451.70833
1890.049	437.04167
1892.865	441.375
1895.68	429.375
1898.492	442.70833
1901.302	430.04167
1904.11	429.70833
1906.916	428.70833
1909.721	406.70833
1912.523	425.70833
1915.323	418.375
1918.122	408.375
1920.918	428.375
1923.712	398.70833
1926.505	416.375
1929.295	395.70833
1932.084	403.04167
1934.87	407.04167
1937.655	398.04167
1940.438	400.70833
1943.218	401.04167
1945.997	402.70833
1948.774	394.70833
1951.549	413.375
1954.322	392.375
1957.093	398.375
1959.862	391.70833
1962.629	391.375
1965.394	384.70833
1968.157	378.375
1970.918	394.70833
1973.678	380.04167
1976.435	390.70833
1979.19	375.70833
1981.944	370.04167
1984.696	380.04167
1987.445	375.04167
1990.193	379.375
1992.939	382.70833
1995.683	377.375
1998.425	349.375
2001.165	395.375
2003.903	361.70833
2006.639	362.375
2009.374	372.70833
2012.106	371.04167
2014.837	346.04167
2017.566	379.04167
2020.292	359.04167
2023.017	359.375
2025.74	345.70833
2028.461	348.04167
2031.18	355.375
2033.898	345.70833
2036.613	353.70833
2039.327	358.04167
2042.038	349.375
2044.748	356.70833
2047.456	351.375
2050.162	337.04167
2052.866	344.375
2055.568	352.04167
2058.268	348.70833
2060.967	346.70833
2063.663	334.04167
2066.358	337.70833
2069.051	329.70833
2071.742	333.70833
2074.431	346.375
2077.118	327.70833
2079.804	324.04167
2082.487	333.375
2085.169	344.04167
2087.849	354.70833
2090.527	326.70833
2093.203	324.70833
2095.877	328.04167
2098.55	337.70833
2101.22	339.375
2103.889	347.375
2106.556	329.375
2109.221	360.70833
2111.884	339.04167
2114.546	356.375
2117.205	363.375
2119.863	401.70833
2122.519	394.04167
2125.173	422.70833
2127.825	448.04167
2130.475	456.04167
2133.124	436.375
2135.771	417.04167
2138.416	427.375
2141.059	389.70833
2143.7	392.375
2146.339	362.375
2148.977	338.04167
2151.613	347.375
2154.247	338.375
2156.879	338.70833
2159.51	316.70833
2162.138	320.04167
2164.765	321.70833
2167.39	306.04167
2170.013	326.04167
2172.634	313.70833
2175.254	301.70833
2177.872	340.04167
2180.488	294.375
2183.102	298.375
2185.714	297.70833
2188.325	283.375
2190.934	297.70833
2193.541	304.375
2196.146	287.375
2198.75	278.375
2201.351	281.04167
2203.951	272.04167
2206.549	280.375
2209.146	283.375
2211.74	270.375
2214.333	277.04167
2216.924	272.375
2219.514	277.70833
2222.101	263.375
2224.687	289.04167
2227.271	254.70833
2229.853	265.04167
2232.433	246.04167
2235.012	268.375
2237.589	268.04167
2240.164	277.04167
2242.738	263.375
2245.309	256.04167
2247.879	269.04167
2250.448	266.375
2253.014	247.70833
2255.579	241.375
2258.142	260.04167
2260.703	243.70833
2263.262	246.70833
2265.82	237.04167
2268.376	259.04167
2270.93	248.70833
2273.483	237.04167
2276.033	254.04167
2278.583	241.70833
2281.13	229.375
2283.675	225.70833
2286.219	237.04167
2288.761	245.04167
2291.302	244.375
2293.841	252.375
2296.377	219.70833
2298.913	236.375
2301.446	246.04167
2303.978	231.70833
2306.508	236.04167
2309.037	232.04167
2311.563	231.04167
2314.088	234.70833
2316.612	214.04167
2319.133	235.375
2321.653	230.375
2324.171	219.70833
2326.688	235.04167
2329.202	233.375
2331.715	228.70833
2334.227	224.375
2336.736	225.04167
2339.244	217.04167
2341.751	211.04167
2344.255	220.70833
2346.758	221.04167
2349.259	211.70833
2351.759	224.375
2354.257	210.70833
2356.753	206.70833
2359.247	206.375
2361.74	216.04167
2364.231	212.375
2366.721	221.04167
2369.209	215.04167
2371.695	212.04167
2374.179	202.375
2376.662	194.04167
2379.143	222.04167
2381.622	208.375
2384.1	226.04167
2386.576	212.04167
2389.051	223.04167
2391.524	212.375
2393.995	216.04167
2396.464	205.375
2398.932	200.375
2401.398	205.375
2403.863	205.70833
2406.325	202.04167
2408.787	201.375
2411.246	201.04167
2413.704	203.04167
2416.16	194.375
2418.615	193.04167
2421.068	202.375
2423.519	198.04167
2425.969	186.04167
2428.417	208.70833
2430.863	222.04167
2433.308	208.70833
2435.751	203.375
2438.193	198.04167
2440.633	204.375
2443.071	202.375
2445.508	192.375
2447.943	191.70833
2450.376	183.70833
2452.808	194.70833
2455.238	185.70833
2457.667	211.04167
2460.093	188.70833
2462.519	182.04167
2464.942	179.375
2467.365	188.70833
2469.785	192.04167
2472.204	181.04167
2474.621	181.375
2477.037	208.70833
2479.451	173.70833
2481.863	175.70833
2484.274	177.04167
2486.683	182.70833
2489.091	188.04167
2491.497	185.04167
2493.901	184.04167
2496.304	179.375
2498.705	194.375
2501.105	179.04167
2503.503	199.375
2505.899	175.375
2508.294	195.70833
2510.687	172.375
2513.079	173.70833
2515.469	172.04167
2517.858	173.375
2520.245	193.70833
2522.63	184.375
2525.014	172.04167
2527.396	169.70833
2529.776	166.04167
2532.156	183.04167
2534.533	160.70833
2536.909	161.04167
2539.283	156.375
2541.656	167.04167
2544.027	185.04167
2546.397	178.375
2548.765	164.04167
2551.131	172.70833
2553.496	175.70833
2555.86	174.70833
2558.221	174.04167
2560.582	162.375
2562.94	154.04167
2565.298	172.04167
2567.653	172.70833
2570.007	154.375
2572.36	172.70833
2574.711	158.375
2577.06	179.375
2579.408	163.70833
2581.754	165.04167
2584.099	162.04167
2586.442	162.04167
2588.784	172.70833
2591.124	162.375
2593.463	160.375
2595.8	170.375
2598.135	147.375
2600.469	146.70833
2602.802	169.375
2605.133	167.375
2607.462	153.04167
2609.79	142.04167
2612.116	166.375
2614.441	158.04167
2616.764	162.70833
2619.086	154.375
2621.406	150.70833
2623.725	167.04167
2626.042	158.04167
2628.358	151.375
2630.672	159.375
2632.985	169.04167
2635.296	157.375
2637.606	153.375
2639.914	154.70833
2642.22	149.04167
2644.525	153.70833
2646.829	155.375
2649.131	163.70833
2651.432	162.04167
2653.731	151.375
2656.028	165.04167
2658.324	157.04167
2660.619	149.70833
2662.912	162.04167
2665.204	148.70833
2667.494	160.375
2669.782	145.04167
2672.07	165.70833
2674.355	168.04167
2676.639	159.375
2678.922	148.04167
2681.203	153.375
2683.483	146.04167
2685.761	144.375
2688.038	166.70833
2690.313	174.375
2692.587	155.375
2694.859	154.04167
2697.13	155.04167
2699.399	159.04167
2701.667	165.375
2703.933	156.375
2706.198	167.70833
2708.461	165.70833
2710.723	166.70833
2712.984	164.70833
2715.243	168.04167
2717.5	157.04167
2719.757	169.04167
2722.011	159.04167
2724.264	163.375
2726.516	173.04167
2728.766	153.70833
2731.015	157.375
2733.262	160.375
2735.508	156.375
2737.753	167.70833
2739.996	142.375
2742.237	152.04167
2744.477	158.04167
2746.716	169.04167
2748.953	164.70833
2751.189	168.70833
2753.423	157.04167
2755.656	152.04167
2757.887	149.04167
2760.117	149.70833
2762.346	143.04167
2764.573	135.375
2766.798	146.375
2769.022	143.70833
2771.245	141.375
2773.467	145.70833
2775.686	141.375
2777.905	151.04167
2780.122	145.04167
2782.337	155.375
2784.552	147.70833
2786.764	148.375
2788.976	139.70833
2791.186	150.70833
2793.394	153.375
2795.601	163.70833
2797.807	165.375
2800.011	155.04167
2802.214	159.70833
2804.415	155.70833
2806.615	153.375
2808.814	157.375
2811.011	164.70833
2813.206	162.70833
2815.401	170.375
2817.594	168.04167
2819.785	177.04167
2821.975	159.70833
2824.164	164.375
2826.351	167.375
2828.537	172.375
2830.722	178.70833
2832.905	175.04167
2835.086	177.04167
2837.267	196.04167
2839.445	195.04167
2841.623	193.375
2843.799	196.70833
2845.974	204.04167
2848.147	206.70833
2850.319	220.375
2852.489	229.70833
2854.659	230.04167
2856.826	231.04167
2858.993	245.70833
2861.158	227.375
2863.321	226.375
2865.483	249.70833
2867.644	251.375
2869.804	246.70833
2871.962	242.04167
2874.118	255.04167
2876.274	293.375
2878.428	275.70833
2880.58	263.04167
2882.731	245.375
2884.881	248.70833
2887.03	258.375
2889.177	247.70833
2891.322	251.70833
2893.467	236.70833
2895.61	236.04167
2897.751	247.04167
2899.892	239.375
2902.03	246.04167
2904.168	247.04167
2906.304	241.375
2908.439	260.375
2910.572	243.04167
2912.704	247.70833
2914.835	252.04167
2916.965	252.70833
2919.093	264.375
2921.219	235.375
2923.345	263.70833
2925.469	240.70833
2927.591	241.04167
2929.712	225.375
2931.832	241.04167
2933.951	229.375
2936.068	229.375
2938.184	219.04167
2940.299	219.70833
2942.412	213.04167
2944.524	195.04167
2946.634	200.04167
2948.744	178.70833
2950.851	209.70833
2952.958	188.04167
2955.063	189.70833
2957.167	183.04167
2959.269	167.375
2961.371	196.70833
2963.471	169.04167
2965.569	187.375
2967.666	154.04167
2969.762	158.375
2971.857	150.70833
2973.95	147.04167
2976.042	156.04167
2978.133	147.70833
2980.222	143.04167
2982.31	135.375
2984.396	121.375
2986.482	126.70833
2988.566	132.375
2990.648	132.375
2992.73	130.04167
2994.81	120.70833
2996.889	134.04167
2998.966	123.375
3001.042	137.04167
3003.117	123.375
3005.191	127.375
3007.263	130.70833
3009.334	129.04167
3011.403	126.04167
3013.472	119.70833
3015.539	135.04167
3017.604	138.70833
3019.669	110.375
3021.732	121.375
3023.794	117.375
3025.854	112.375
3027.914	108.375
3029.971	108.375
3032.028	111.70833
3034.083	119.70833
3036.137	115.70833
3038.19	102.70833
3040.242	99.70833
3042.292	98.70833
3044.341	105.375
3046.388	117.375
3048.435	92.70833
3050.48	111.70833
3052.524	106.70833
3054.566	88.375
3056.607	101.70833
3058.647	100.70833
3060.686	85.70833
3062.723	83.375
3064.759	85.375
3066.794	0.70833
3068.828	0.04167
3070.86	1.04167
