-0.839	136.625
3.438	157.625
7.711	66.95833
11.981	41.29167
16.247	27.625
20.509	37.625
24.768	30.95833
29.024	39.29167
33.276	27.29167
37.524	41.29167
41.769	29.625
46.01	24.95833
50.247	43.625
54.481	49.95833
58.712	53.625
62.939	37.625
67.162	49.95833
71.382	45.625
75.599	35.29167
79.812	40.29167
84.021	65.95833
88.227	42.625
92.429	52.29167
96.628	37.625
100.823	49.29167
105.015	53.29167
109.204	48.625
113.388	53.29167
117.57	43.95833
121.748	56.29167
125.922	49.29167
130.093	63.29167
134.261	56.625
138.425	56.29167
142.585	79.95833
146.742	60.625
150.896	73.29167
155.046	70.625
159.193	102.95833
163.336	153.625
167.476	252.625
171.613	452.625
175.746	738.625
179.875	1069.625
184.002	1360.29167
188.124	1620.625
192.244	1666.625
196.36	1675.95833
200.472	1663.95833
204.581	1657.625
208.687	1587.625
212.79	1581.29167
216.889	1586.95833
220.984	1622.95833
225.077	1620.95833
229.165	1594.29167
233.251	1612.29167
237.333	1617.625
241.412	1587.29167
245.487	1600.29167
249.559	1575.95833
253.628	1576.625
257.694	1547.625
261.756	1550.95833
265.814	1527.95833
269.87	1479.625
273.922	1447.29167
277.97	1421.625
282.016	1419.29167
286.058	1405.29167
290.097	1433.29167
294.132	1452.625
298.164	1426.95833
302.193	1376.625
306.219	1305.29167
310.241	1223.29167
314.26	1146.29167
318.276	1091.625
322.288	1053.29167
326.297	1031.625
330.303	993.29167
334.305	975.625
338.305	978.95833
342.301	966.625
346.294	967.625
350.283	957.95833
354.269	952.95833
358.252	948.29167
362.232	933.625
366.209	958.29167
370.182	946.29167
374.152	936.29167
378.119	943.29167
382.083	920.95833
386.043	938.625
390	913.29167
393.954	950.625
397.905	919.95833
401.852	952.625
405.797	932.29167
409.738	950.625
413.676	952.29167
417.61	950.95833
421.542	932.95833
425.47	926.625
429.396	924.29167
433.318	907.95833
437.236	917.29167
441.152	937.625
445.065	897.95833
448.974	900.625
452.88	900.29167
456.783	890.625
460.683	890.95833
464.58	900.625
468.473	885.95833
472.364	917.625
476.251	896.625
480.135	901.625
484.016	928.625
487.894	923.625
491.769	926.29167
495.641	919.95833
499.509	924.29167
503.375	913.95833
507.237	918.29167
511.096	922.95833
514.952	940.95833
518.805	944.625
522.655	955.95833
526.502	924.625
530.346	935.95833
534.187	929.625
538.024	925.625
541.859	921.29167
545.69	926.95833
549.519	914.95833
553.344	919.29167
557.166	899.625
560.985	891.625
564.802	896.625
568.615	871.625
572.425	865.625
576.232	872.95833
580.036	880.29167
583.836	881.29167
587.634	880.29167
591.429	883.625
595.221	907.625
599.01	893.625
602.796	882.625
606.578	894.625
610.358	898.95833
614.135	890.29167
617.909	900.95833
621.679	892.625
625.447	881.95833
629.212	887.95833
632.973	886.625
636.732	877.29167
640.488	893.29167
644.241	863.625
647.991	878.95833
651.737	886.95833
655.481	855.95833
659.222	867.625
662.96	858.625
666.695	871.95833
670.427	886.29167
674.156	883.625
677.882	875.625
681.605	877.95833
685.325	855.29167
689.043	889.95833
692.757	866.625
696.468	861.625
700.177	871.625
703.882	850.95833
707.585	842.625
711.284	848.29167
714.981	837.95833
718.675	844.29167
722.366	851.95833
726.054	836.625
729.739	843.625
733.421	846.625
737.1	838.95833
740.777	843.29167
744.45	833.625
748.121	855.625
751.789	875.29167
755.453	862.95833
759.115	868.95833
762.774	866.95833
766.431	864.625
770.084	864.625
773.734	856.95833
777.382	900.625
781.027	902.625
784.669	888.95833
788.308	872.95833
791.944	891.29167
795.577	894.95833
799.208	896.95833
802.835	892.95833
806.46	910.29167
810.082	909.29167
813.701	902.29167
817.317	910.95833
820.931	908.29167
824.542	913.625
828.149	903.29167
831.754	890.625
835.357	884.625
838.956	895.95833
842.553	891.29167
846.146	880.95833
849.737	846.625
853.326	874.29167
856.911	858.29167
860.493	887.29167
864.073	874.29167
867.65	893.29167
871.225	904.625
874.796	893.29167
878.365	877.95833
881.931	887.29167
885.494	904.95833
889.054	892.95833
892.612	898.625
896.166	875.29167
899.719	875.95833
903.268	834.95833
906.814	851.95833
910.358	854.29167
913.899	855.625
917.438	836.95833
920.973	828.625
924.506	834.95833
928.036	852.95833
931.564	872.95833
935.088	883.95833
938.61	864.29167
942.129	866.625
945.646	890.29167
949.16	885.29167
952.671	900.625
956.179	909.95833
959.685	899.625
963.188	908.625
966.688	890.625
970.185	850.625
973.68	844.29167
977.173	844.95833
980.662	828.625
984.149	829.95833
987.633	819.29167
991.114	831.29167
994.593	838.29167
998.069	844.95833
1001.542	874.95833
1005.013	876.29167
1008.481	816.625
1011.947	804.625
1015.409	796.95833
1018.869	823.29167
1022.327	813.95833
1025.782	796.625
1029.234	782.625
1032.683	778.95833
1036.13	764.625
1039.574	742.625
1043.016	724.29167
1046.455	718.95833
1049.891	701.95833
1053.325	714.625
1056.756	701.625
1060.184	716.625
1063.61	704.95833
1067.033	722.29167
1070.454	708.29167
1073.872	735.95833
1077.287	709.29167
1080.7	716.95833
1084.11	712.29167
1087.517	718.625
1090.922	703.29167
1094.325	683.625
1097.724	680.95833
1101.122	694.625
1104.516	696.625
1107.908	677.625
1111.298	693.29167
1114.684	705.625
1118.069	690.625
1121.45	704.95833
1124.83	688.29167
1128.206	710.625
1131.58	712.95833
1134.951	724.625
1138.32	723.29167
1141.687	767.29167
1145.05	763.95833
1148.412	778.29167
1151.77	764.29167
1155.126	765.625
1158.48	748.29167
1161.831	764.95833
1165.18	761.625
1168.525	784.29167
1171.869	787.625
1175.21	782.29167
1178.548	802.625
1181.884	792.625
1185.217	811.625
1188.548	823.625
1191.877	827.625
1195.202	875.95833
1198.526	897.95833
1201.846	874.29167
1205.165	885.625
1208.48	874.625
1211.794	893.95833
1215.104	891.95833
1218.413	871.625
1221.719	872.95833
1225.022	849.29167
1228.323	834.95833
1231.621	858.29167
1234.917	839.95833
1238.21	861.29167
1241.501	835.625
1244.79	819.95833
1248.076	830.625
1251.359	834.95833
1254.64	891.625
1257.919	847.29167
1261.195	867.95833
1264.468	866.29167
1267.74	872.95833
1271.008	893.29167
1274.275	889.95833
1277.538	868.29167
1280.8	872.625
1284.059	873.29167
1287.315	888.625
1290.569	877.95833
1293.821	886.95833
1297.07	892.29167
1300.317	888.625
1303.562	882.95833
1306.803	889.29167
1310.043	895.625
1313.28	887.95833
1316.515	872.95833
1319.747	876.95833
1322.977	873.625
1326.204	862.29167
1329.429	840.95833
1332.652	857.95833
1335.872	849.29167
1339.09	824.29167
1342.306	839.95833
1345.519	825.95833
1348.729	812.625
1351.938	830.29167
1355.144	817.625
1358.347	796.95833
1361.548	808.95833
1364.747	798.625
1367.944	781.625
1371.138	795.29167
1374.329	795.95833
1377.518	791.95833
1380.705	803.625
1383.89	804.29167
1387.072	776.625
1390.252	746.29167
1393.429	737.95833
1396.605	729.625
1399.777	687.625
1402.948	690.95833
1406.116	681.625
1409.282	685.625
1412.445	678.625
1415.606	688.625
1418.765	693.625
1421.921	707.625
1425.075	715.625
1428.227	713.95833
1431.376	756.29167
1434.524	788.625
1437.668	790.29167
1440.811	806.625
1443.951	796.625
1447.089	809.29167
1450.224	808.95833
1453.357	793.625
1456.488	798.29167
1459.617	786.95833
1462.743	767.29167
1465.867	747.95833
1468.989	750.625
1472.108	737.29167
1475.225	721.95833
1478.34	721.95833
1481.453	729.95833
1484.563	713.95833
1487.671	719.625
1490.776	734.95833
1493.88	728.625
1496.981	747.29167
1500.08	749.625
1503.176	738.95833
1506.271	770.625
1509.363	771.625
1512.452	775.625
1515.54	777.625
1518.625	779.95833
1521.708	818.95833
1524.789	824.29167
1527.867	847.95833
1530.944	896.29167
1534.018	923.29167
1537.089	958.29167
1540.159	960.29167
1543.226	970.625
1546.291	947.95833
1549.354	947.29167
1552.415	928.29167
1555.473	899.29167
1558.529	892.29167
1561.583	881.625
1564.634	872.625
1567.684	862.29167
1570.731	869.29167
1573.776	875.625
1576.819	881.29167
1579.859	876.625
1582.898	887.29167
1585.934	919.29167
1588.968	905.95833
1591.999	895.29167
1595.029	897.95833
1598.056	904.29167
1601.081	927.95833
1604.104	930.625
1607.125	905.625
1610.144	878.625
1613.16	852.29167
1616.174	840.29167
1619.186	830.625
1622.196	817.29167
1625.203	782.95833
1628.209	792.95833
1631.212	784.625
1634.213	788.29167
1637.212	795.95833
1640.209	777.95833
1643.203	744.29167
1646.196	731.95833
1649.186	712.625
1652.174	705.625
1655.16	663.625
1658.144	668.29167
1661.125	634.625
1664.105	621.29167
1667.082	585.29167
1670.057	563.625
1673.03	535.29167
1676.001	516.29167
1678.97	473.625
1681.937	465.95833
1684.901	440.95833
1687.863	445.625
1690.824	413.625
1693.782	415.625
1696.738	391.29167
1699.692	398.95833
1702.643	386.29167
1705.593	373.625
1708.54	370.625
1711.486	382.29167
1714.429	367.29167
1717.37	377.29167
1720.309	359.625
1723.246	363.29167
1726.181	351.29167
1729.113	347.95833
1732.044	358.625
1734.972	348.95833
1737.899	372.29167
1740.823	364.95833
1743.745	377.625
1746.665	342.29167
1749.583	338.625
1752.499	331.95833
1755.413	336.29167
1758.325	314.625
1761.235	329.95833
1764.142	309.95833
1767.048	313.95833
1769.951	308.29167
1772.852	309.29167
1775.752	314.625
1778.649	312.625
1781.544	326.625
1784.437	299.29167
1787.328	307.29167
1790.217	303.29167
1793.104	288.95833
1795.989	291.625
1798.872	290.29167
1801.753	304.625
1804.631	296.625
1807.508	305.29167
1810.383	297.29167
1813.255	292.625
1816.126	290.625
1818.994	293.29167
1821.861	285.95833
1824.725	297.95833
1827.587	287.29167
1830.448	286.95833
1833.306	281.29167
1836.162	298.29167
1839.017	288.95833
1841.869	285.625
1844.719	280.625
1847.567	268.95833
1850.414	270.29167
1853.258	265.95833
1856.1	272.29167
1858.94	291.625
1861.778	269.29167
1864.614	263.95833
1867.448	278.625
1870.28	255.625
1873.111	284.95833
1875.939	273.95833
1878.765	285.625
1881.589	268.29167
1884.411	271.625
1887.231	282.29167
1890.049	264.95833
1892.865	274.29167
1895.68	265.625
1898.492	272.625
1901.302	265.29167
1904.11	269.625
1906.916	266.625
1909.721	260.625
1912.523	265.625
1915.323	258.625
1918.122	251.625
1920.918	265.625
1923.712	249.625
1926.505	267.29167
1929.295	240.29167
1932.084	251.29167
1934.87	258.29167
1937.655	256.625
1940.438	249.29167
1943.218	257.95833
1945.997	249.95833
1948.774	255.625
1951.549	261.29167
1954.322	249.29167
1957.093	252.625
1959.862	245.95833
1962.629	250.29167
1965.394	245.625
1968.157	237.625
1970.918	251.29167
1973.678	235.95833
1976.435	249.29167
1979.19	247.95833
1981.944	231.95833
1984.696	241.625
1987.445	229.625
1990.193	246.29167
1992.939	246.95833
1995.683	240.95833
1998.425	222.625
2001.165	252.625
2003.903	219.95833
2006.639	227.95833
2009.374	237.625
2012.106	237.95833
2014.837	217.95833
2017.566	241.625
2020.292	233.95833
2023.017	223.29167
2025.74	227.29167
2028.461	219.95833
2031.18	232.95833
2033.898	218.29167
2036.613	219.95833
2039.327	222.29167
2042.038	221.625
2044.748	230.29167
2047.456	230.29167
2050.162	220.29167
2052.866	217.625
2055.568	230.29167
2058.268	215.625
2060.967	234.625
2063.663	212.95833
2066.358	213.625
2069.051	209.625
2071.742	216.29167
2074.431	225.95833
2077.118	216.29167
2079.804	203.625
2082.487	208.95833
2085.169	225.29167
2087.849	240.29167
2090.527	207.625
2093.203	214.95833
2095.877	210.95833
2098.55	222.625
2101.22	221.29167
2103.889	225.29167
2106.556	218.95833
2109.221	226.95833
2111.884	215.95833
2114.546	241.625
2117.205	236.625
2119.863	270.95833
2122.519	257.95833
2125.173	273.95833
2127.825	296.625
2130.475	301.95833
2133.124	286.95833
2135.771	272.95833
2138.416	284.95833
2141.059	253.625
2143.7	264.95833
2146.339	242.625
2148.977	221.625
2151.613	238.95833
2154.247	232.95833
2156.879	221.625
2159.51	208.625
2162.138	220.625
2164.765	203.625
2167.39	202.625
2170.013	226.625
2172.634	219.625
2175.254	206.625
2177.872	237.95833
2180.488	195.625
2183.102	208.29167
2185.714	202.625
2188.325	196.625
2190.934	202.29167
2193.541	209.625
2196.146	202.625
2198.75	185.29167
2201.351	187.625
2203.951	177.29167
2206.549	201.625
2209.146	188.95833
2211.74	189.95833
2214.333	192.29167
2216.924	176.625
2219.514	185.95833
2222.101	182.625
2224.687	201.95833
2227.271	177.29167
2229.853	180.29167
2232.433	164.625
2235.012	192.95833
2237.589	186.29167
2240.164	200.625
2242.738	172.29167
2245.309	174.29167
2247.879	189.625
2250.448	188.95833
2253.014	169.625
2255.579	165.625
2258.142	169.95833
2260.703	167.95833
2263.262	171.29167
2265.82	159.95833
2268.376	180.29167
2270.93	172.95833
2273.483	164.29167
2276.033	172.29167
2278.583	167.29167
2281.13	166.95833
2283.675	160.29167
2286.219	161.95833
2288.761	175.625
2291.302	168.95833
2293.841	177.625
2296.377	157.625
2298.913	168.95833
2301.446	179.95833
2303.978	167.29167
2306.508	168.625
2309.037	172.625
2311.563	164.29167
2314.088	167.95833
2316.612	158.29167
2319.133	166.95833
2321.653	169.95833
2324.171	155.625
2326.688	174.29167
2329.202	163.625
2331.715	165.625
2334.227	169.625
2336.736	162.625
2339.244	161.29167
2341.751	148.29167
2344.255	166.625
2346.758	160.625
2349.259	151.95833
2351.759	164.29167
2354.257	149.625
2356.753	147.29167
2359.247	151.29167
2361.74	155.625
2364.231	153.29167
2366.721	162.29167
2369.209	152.95833
2371.695	158.29167
2374.179	148.29167
2376.662	143.625
2379.143	166.625
2381.622	152.625
2384.1	163.625
2386.576	153.29167
2389.051	166.95833
2391.524	164.29167
2393.995	160.625
2396.464	148.625
2398.932	150.625
2401.398	160.29167
2403.863	147.95833
2406.325	145.95833
2408.787	155.29167
2411.246	151.625
2413.704	146.29167
2416.16	147.625
2418.615	144.95833
2421.068	151.95833
2423.519	151.29167
2425.969	141.625
2428.417	160.95833
2430.863	175.95833
2433.308	156.29167
2435.751	153.625
2438.193	154.625
2440.633	156.95833
2443.071	163.29167
2445.508	149.95833
2447.943	143.95833
2450.376	142.29167
2452.808	155.95833
2455.238	138.29167
2457.667	169.95833
2460.093	140.625
2462.519	138.29167
2464.942	139.625
2467.365	147.95833
2469.785	153.29167
2472.204	138.29167
2474.621	143.625
2477.037	160.95833
2479.451	134.625
2481.863	133.95833
2484.274	138.29167
2486.683	147.29167
2489.091	152.29167
2491.497	150.29167
2493.901	150.95833
2496.304	141.29167
2498.705	152.625
2501.105	143.625
2503.503	167.95833
2505.899	141.625
2508.294	162.95833
2510.687	138.625
2513.079	143.29167
2515.469	132.95833
2517.858	141.625
2520.245	157.625
2522.63	145.29167
2525.014	140.95833
2527.396	141.95833
2529.776	140.95833
2532.156	148.625
2534.533	134.95833
2536.909	131.95833
2539.283	126.95833
2541.656	136.95833
2544.027	155.95833
2546.397	146.95833
2548.765	139.95833
2551.131	143.95833
2553.496	146.95833
2555.86	139.95833
2558.221	152.29167
2560.582	135.29167
2562.94	128.625
2565.298	142.29167
2567.653	147.29167
2570.007	127.95833
2572.36	146.29167
2574.711	134.625
2577.06	154.29167
2579.408	139.29167
2581.754	138.29167
2584.099	135.95833
2586.442	135.29167
2588.784	147.625
2591.124	139.29167
2593.463	140.29167
2595.8	138.625
2598.135	131.29167
2600.469	133.29167
2602.802	150.625
2605.133	151.625
2607.462	135.95833
2609.79	131.95833
2612.116	150.29167
2614.441	134.95833
2616.764	138.95833
2619.086	139.625
2621.406	136.29167
2623.725	149.95833
2626.042	143.95833
2628.358	130.29167
2630.672	140.29167
2632.985	149.625
2635.296	136.95833
2637.606	141.29167
2639.914	132.95833
2642.22	136.625
2644.525	142.625
2646.829	140.625
2649.131	155.625
2651.432	150.95833
2653.731	142.625
2656.028	148.95833
2658.324	144.29167
2660.619	130.95833
2662.912	148.625
2665.204	129.95833
2667.494	140.95833
2669.782	134.625
2672.07	152.95833
2674.355	150.95833
2676.639	146.625
2678.922	140.625
2681.203	144.29167
2683.483	140.95833
2685.761	133.29167
2688.038	147.95833
2690.313	157.29167
2692.587	144.95833
2694.859	143.29167
2697.13	143.95833
2699.399	143.625
2701.667	149.625
2703.933	145.29167
2706.198	164.29167
2708.461	157.95833
2710.723	150.95833
2712.984	144.29167
2715.243	157.29167
2717.5	150.625
2719.757	159.29167
2722.011	148.625
2724.264	160.29167
2726.516	163.95833
2728.766	144.29167
2731.015	149.95833
2733.262	147.625
2735.508	148.625
2737.753	156.625
2739.996	139.95833
2742.237	140.95833
2744.477	157.95833
2746.716	161.625
2748.953	162.29167
2751.189	157.625
2753.423	148.625
2755.656	145.29167
2757.887	143.95833
2760.117	141.625
2762.346	140.95833
2764.573	133.29167
2766.798	145.625
2769.022	148.29167
2771.245	137.625
2773.467	143.625
2775.686	140.95833
2777.905	152.625
2780.122	146.29167
2782.337	155.95833
2784.552	147.29167
2786.764	149.29167
2788.976	139.29167
2791.186	150.625
2793.394	147.29167
2795.601	151.95833
2797.807	164.625
2800.011	150.95833
2802.214	159.95833
2804.415	151.625
2806.615	157.29167
2808.814	159.29167
2811.011	163.29167
2813.206	164.29167
2815.401	173.29167
2817.594	161.29167
2819.785	170.625
2821.975	162.29167
2824.164	160.29167
2826.351	167.625
2828.537	179.625
2830.722	177.625
2832.905	169.95833
2835.086	176.29167
2837.267	195.625
2839.445	185.95833
2841.623	189.95833
2843.799	186.29167
2845.974	192.625
2848.147	191.95833
2850.319	211.29167
2852.489	214.95833
2854.659	213.625
2856.826	218.625
2858.993	241.625
2861.158	209.95833
2863.321	224.625
2865.483	237.625
2867.644	232.95833
2869.804	230.625
2871.962	221.625
2874.118	226.29167
2876.274	230.95833
2878.428	232.95833
2880.58	232.29167
2882.731	218.29167
2884.881	224.625
2887.03	229.625
2889.177	227.625
2891.322	236.625
2893.467	218.29167
2895.61	224.29167
2897.751	242.95833
2899.892	221.625
2902.03	227.95833
2904.168	232.625
2906.304	232.29167
2908.439	251.95833
2910.572	231.95833
2912.704	239.29167
2914.835	246.29167
2916.965	239.29167
2919.093	257.29167
2921.219	230.625
2923.345	259.95833
2925.469	235.95833
2927.591	233.95833
2929.712	223.29167
2931.832	239.29167
2933.951	231.625
2936.068	218.625
2938.184	215.95833
2940.299	214.625
2942.412	212.625
2944.524	198.625
2946.634	212.95833
2948.744	185.95833
2950.851	222.95833
2952.958	188.29167
2955.063	200.625
2957.167	191.625
2959.269	180.29167
2961.371	208.625
2963.471	183.95833
2965.569	199.29167
2967.666	175.625
2969.762	175.29167
2971.857	163.95833
2973.95	162.29167
2976.042	177.95833
2978.133	168.29167
2980.222	168.95833
2982.31	153.625
2984.396	144.625
2986.482	152.29167
2988.566	155.29167
2990.648	152.625
2992.73	155.95833
2994.81	143.625
2996.889	156.625
2998.966	148.95833
3001.042	162.29167
3003.117	151.625
3005.191	149.625
3007.263	160.625
3009.334	150.95833
3011.403	154.29167
3013.472	149.95833
3015.539	155.29167
3017.604	168.625
3019.669	136.95833
3021.732	138.95833
3023.794	141.625
3025.854	134.95833
3027.914	136.29167
3029.971	135.29167
3032.028	142.95833
3034.083	145.95833
3036.137	139.625
3038.19	131.29167
3040.242	124.29167
3042.292	125.625
3044.341	134.625
3046.388	144.95833
3048.435	125.95833
3050.48	139.95833
3052.524	126.625
3054.566	112.95833
3056.607	131.95833
3058.647	124.29167
3060.686	110.29167
3062.723	103.95833
3064.759	106.625
3066.794	2.29167
3068.828	-0.04167
3070.86	1.625
