-0.839	142.70833
3.438	160.70833
7.711	64.375
11.981	41.04167
16.247	31.04167
20.509	39.04167
24.768	36.70833
29.024	43.70833
33.276	34.375
37.524	41.375
41.769	30.70833
46.01	28.70833
50.247	43.70833
54.481	54.04167
58.712	54.04167
62.939	37.375
67.162	55.70833
71.382	47.04167
75.599	40.04167
79.812	49.70833
84.021	64.375
88.227	42.375
92.429	50.70833
96.628	38.70833
100.823	56.375
105.015	52.04167
109.204	49.04167
113.388	57.375
117.57	50.04167
121.748	59.04167
125.922	52.04167
130.093	66.04167
134.261	67.375
138.425	57.70833
142.585	88.70833
146.742	71.70833
150.896	88.04167
155.046	84.375
159.193	119.70833
163.336	181.375
167.476	311.04167
171.613	562.04167
175.746	904.70833
179.875	1335.70833
184.002	1739.375
188.124	2068.04167
192.244	2192.375
196.36	2225.70833
200.472	2215.70833
204.581	2194.04167
208.687	2139.04167
212.79	2141.04167
216.889	2180.70833
220.984	2213.04167
225.077	2221.04167
229.165	2219.04167
233.251	2212.04167
237.333	2243.70833
241.412	2212.04167
245.487	2209.04167
249.559	2187.04167
253.628	2183.04167
257.694	2163.375
261.756	2162.375
265.814	2141.375
269.87	2079.70833
273.922	2030.04167
277.97	2000.04167
282.016	1989.375
286.058	1977.70833
290.097	2016.04167
294.132	2033.04167
298.164	2016.375
302.193	1940.04167
306.219	1839.04167
310.241	1744.70833
314.26	1654.70833
318.276	1578.04167
322.288	1557.04167
326.297	1514.375
330.303	1485.04167
334.305	1487.375
338.305	1471.375
342.301	1463.375
346.294	1449.04167
350.283	1445.70833
354.269	1440.375
358.252	1444.375
362.232	1430.70833
366.209	1417.04167
370.182	1427.70833
374.152	1417.70833
378.119	1447.375
382.083	1404.04167
386.043	1439.375
390	1433.04167
393.954	1443.375
397.905	1469.375
401.852	1467.70833
405.797	1439.70833
409.738	1453.375
413.676	1514.70833
417.61	1541.04167
421.542	1457.375
425.47	1435.375
429.396	1429.375
433.318	1428.70833
437.236	1416.04167
441.152	1432.70833
445.065	1387.375
448.974	1390.375
452.88	1390.375
456.783	1389.70833
460.683	1385.04167
464.58	1390.375
468.473	1395.375
472.364	1392.70833
476.251	1409.04167
480.135	1415.70833
484.016	1411.04167
487.894	1430.70833
491.769	1432.70833
495.641	1442.375
499.509	1429.70833
503.375	1426.04167
507.237	1413.70833
511.096	1407.04167
514.952	1408.70833
518.805	1391.04167
522.655	1404.04167
526.502	1399.375
530.346	1403.04167
534.187	1410.375
538.024	1401.70833
541.859	1387.375
545.69	1414.70833
549.519	1415.04167
553.344	1417.70833
557.166	1393.04167
560.985	1381.70833
564.802	1375.04167
568.615	1375.375
572.425	1347.375
576.232	1342.375
580.036	1336.04167
583.836	1350.375
587.634	1350.04167
591.429	1343.70833
595.221	1368.04167
599.01	1382.04167
602.796	1380.04167
606.578	1373.375
610.358	1372.375
614.135	1389.04167
617.909	1399.04167
621.679	1371.04167
625.447	1381.70833
629.212	1359.70833
632.973	1365.04167
636.732	1354.04167
640.488	1374.375
644.241	1337.04167
647.991	1334.04167
651.737	1350.04167
655.481	1319.70833
659.222	1344.70833
662.96	1316.04167
666.695	1352.375
670.427	1356.375
674.156	1338.70833
677.882	1333.375
681.605	1351.70833
685.325	1336.375
689.043	1352.04167
692.757	1331.375
696.468	1334.70833
700.177	1325.70833
703.882	1297.04167
707.585	1295.04167
711.284	1287.04167
714.981	1285.375
718.675	1282.375
722.366	1287.375
726.054	1277.70833
729.739	1281.375
733.421	1281.375
737.1	1269.04167
740.777	1298.04167
744.45	1293.70833
748.121	1282.375
751.789	1323.04167
755.453	1303.375
759.115	1310.70833
762.774	1316.375
766.431	1313.04167
770.084	1319.375
773.734	1311.04167
777.382	1329.70833
781.027	1334.375
784.669	1318.70833
788.308	1301.375
791.944	1330.04167
795.577	1331.70833
799.208	1322.375
802.835	1335.70833
806.46	1343.04167
810.082	1345.70833
813.701	1352.70833
817.317	1351.04167
820.931	1350.04167
824.542	1350.70833
828.149	1325.04167
831.754	1317.04167
835.357	1319.04167
838.956	1325.70833
842.553	1324.04167
846.146	1324.375
849.737	1289.70833
853.326	1289.70833
856.911	1262.04167
860.493	1289.04167
864.073	1301.375
867.65	1334.70833
871.225	1349.375
874.796	1322.04167
878.365	1285.375
881.931	1315.375
885.494	1323.04167
889.054	1307.04167
892.612	1292.375
896.166	1294.375
899.719	1274.04167
903.268	1247.04167
906.814	1257.375
910.358	1241.04167
913.899	1238.70833
917.438	1247.70833
920.973	1208.375
924.506	1233.375
928.036	1245.375
931.564	1259.04167
935.088	1289.375
938.61	1273.04167
942.129	1250.04167
945.646	1289.70833
949.16	1290.375
952.671	1297.375
956.179	1318.70833
959.685	1302.04167
963.188	1317.70833
966.688	1305.70833
970.185	1262.375
973.68	1243.70833
977.173	1240.04167
980.662	1229.04167
984.149	1222.70833
987.633	1206.04167
991.114	1219.04167
994.593	1256.375
998.069	1285.375
1001.542	1286.375
1005.013	1278.04167
1008.481	1209.04167
1011.947	1199.375
1015.409	1174.375
1018.869	1195.375
1022.327	1199.70833
1025.782	1164.70833
1029.234	1160.375
1032.683	1144.375
1036.13	1109.70833
1039.574	1092.04167
1043.016	1058.375
1046.455	1059.04167
1049.891	1035.70833
1053.325	1052.375
1056.756	1070.70833
1060.184	1049.70833
1063.61	1046.70833
1067.033	1046.70833
1070.454	1047.375
1073.872	1069.375
1077.287	1043.04167
1080.7	1058.375
1084.11	1043.375
1087.517	1050.04167
1090.922	1040.375
1094.325	1021.04167
1097.724	1020.375
1101.122	994.375
1104.516	1010.04167
1107.908	984.04167
1111.298	1004.04167
1114.684	1013.70833
1118.069	1007.04167
1121.45	1029.375
1124.83	1013.70833
1128.206	1019.70833
1131.58	1022.04167
1134.951	1063.375
1138.32	1065.70833
1141.687	1097.70833
1145.05	1112.04167
1148.412	1098.04167
1151.77	1116.375
1155.126	1108.375
1158.48	1095.04167
1161.831	1101.04167
1165.18	1087.375
1168.525	1103.375
1171.869	1135.04167
1175.21	1104.375
1178.548	1129.375
1181.884	1138.70833
1185.217	1131.70833
1188.548	1167.04167
1191.877	1160.375
1195.202	1224.70833
1198.526	1227.04167
1201.846	1233.70833
1205.165	1234.375
1208.48	1249.375
1211.794	1242.70833
1215.104	1243.04167
1218.413	1229.375
1221.719	1235.04167
1225.022	1202.70833
1228.323	1200.375
1231.621	1189.04167
1234.917	1187.04167
1238.21	1212.04167
1241.501	1189.70833
1244.79	1167.04167
1248.076	1163.375
1251.359	1181.04167
1254.64	1225.04167
1257.919	1204.70833
1261.195	1212.70833
1264.468	1227.04167
1267.74	1243.04167
1271.008	1228.70833
1274.275	1253.375
1277.538	1233.04167
1280.8	1241.375
1284.059	1242.70833
1287.315	1238.70833
1290.569	1241.04167
1293.821	1243.04167
1297.07	1241.04167
1300.317	1239.375
1303.562	1247.375
1306.803	1221.70833
1310.043	1243.04167
1313.28	1230.04167
1316.515	1212.04167
1319.747	1229.70833
1322.977	1209.375
1326.204	1198.04167
1329.429	1179.375
1332.652	1190.375
1335.872	1210.04167
1339.09	1172.375
1342.306	1170.04167
1345.519	1167.70833
1348.729	1153.375
1351.938	1167.04167
1355.144	1152.04167
1358.347	1136.70833
1361.548	1144.04167
1364.747	1134.375
1367.944	1110.375
1371.138	1115.04167
1374.329	1118.375
1377.518	1118.04167
1380.705	1137.70833
1383.89	1116.375
1387.072	1100.375
1390.252	1076.70833
1393.429	1032.375
1396.605	1008.70833
1399.777	985.70833
1402.948	981.375
1406.116	957.70833
1409.282	970.04167
1412.445	963.70833
1415.606	975.04167
1418.765	968.375
1421.921	990.375
1425.075	1001.70833
1428.227	999.04167
1431.376	1046.04167
1434.524	1081.375
1437.668	1095.04167
1440.811	1098.70833
1443.951	1115.04167
1447.089	1118.04167
1450.224	1105.375
1453.357	1115.04167
1456.488	1100.70833
1459.617	1106.70833
1462.743	1068.70833
1465.867	1052.375
1468.989	1057.375
1472.108	1015.04167
1475.225	1011.375
1478.34	993.375
1481.453	999.375
1484.563	988.70833
1487.671	1004.70833
1490.776	1014.70833
1493.88	1017.375
1496.981	1026.70833
1500.08	1046.375
1503.176	1041.70833
1506.271	1045.375
1509.363	1070.04167
1512.452	1072.04167
1515.54	1069.375
1518.625	1095.04167
1521.708	1122.375
1524.789	1155.375
1527.867	1188.375
1530.944	1220.04167
1534.018	1273.04167
1537.089	1324.70833
1540.159	1322.70833
1543.226	1336.375
1546.291	1305.04167
1549.354	1274.70833
1552.415	1262.375
1555.473	1226.04167
1558.529	1204.375
1561.583	1192.375
1564.634	1172.04167
1567.684	1169.375
1570.731	1171.375
1573.776	1184.70833
1576.819	1209.04167
1579.859	1196.375
1582.898	1216.04167
1585.934	1244.375
1588.968	1232.70833
1591.999	1216.375
1595.029	1208.04167
1598.056	1222.04167
1601.081	1242.70833
1604.104	1235.70833
1607.125	1217.375
1610.144	1214.70833
1613.16	1188.375
1616.174	1164.04167
1619.186	1135.70833
1622.196	1130.375
1625.203	1085.375
1628.209	1081.375
1631.212	1082.375
1634.213	1083.04167
1637.212	1084.04167
1640.209	1083.375
1643.203	1056.70833
1646.196	1017.70833
1649.186	992.70833
1652.174	970.70833
1655.16	956.70833
1658.144	943.70833
1661.125	912.04167
1664.105	873.70833
1667.082	843.375
1670.057	790.375
1673.03	756.70833
1676.001	726.70833
1678.97	673.04167
1681.937	663.375
1684.901	620.375
1687.863	614.375
1690.824	586.70833
1693.782	578.375
1696.738	553.04167
1699.692	560.375
1702.643	534.04167
1705.593	531.70833
1708.54	535.375
1711.486	542.375
1714.429	511.04167
1717.37	522.04167
1720.309	508.70833
1723.246	514.04167
1726.181	493.375
1729.113	499.375
1732.044	494.04167
1734.972	491.04167
1737.899	511.70833
1740.823	503.70833
1743.745	520.70833
1746.665	477.04167
1749.583	478.04167
1752.499	468.375
1755.413	468.70833
1758.325	450.375
1761.235	466.04167
1764.142	457.70833
1767.048	455.375
1769.951	453.375
1772.852	452.375
1775.752	473.70833
1778.649	478.70833
1781.544	473.04167
1784.437	433.04167
1787.328	437.375
1790.217	440.70833
1793.104	412.04167
1795.989	433.375
1798.872	422.04167
1801.753	431.70833
1804.631	429.04167
1807.508	429.375
1810.383	417.04167
1813.255	413.375
1816.126	417.04167
1818.994	412.375
1821.861	403.375
1824.725	418.70833
1827.587	416.04167
1830.448	407.70833
1833.306	400.70833
1836.162	419.04167
1839.017	403.375
1841.869	409.375
1844.719	399.375
1847.567	386.70833
1850.414	379.375
1853.258	385.375
1856.1	394.70833
1858.94	402.04167
1861.778	388.70833
1864.614	381.04167
1867.448	395.04167
1870.28	373.375
1873.111	398.70833
1875.939	386.375
1878.765	395.70833
1881.589	386.375
1884.411	380.70833
1887.231	387.70833
1890.049	380.04167
1892.865	395.04167
1895.68	376.70833
1898.492	384.70833
1901.302	380.375
1904.11	373.04167
1906.916	369.70833
1909.721	361.04167
1912.523	380.70833
1915.323	366.375
1918.122	355.375
1920.918	374.04167
1923.712	355.70833
1926.505	370.04167
1929.295	342.375
1932.084	362.70833
1934.87	363.375
1937.655	346.375
1940.438	352.70833
1943.218	350.70833
1945.997	363.375
1948.774	353.375
1951.549	364.375
1954.322	346.375
1957.093	353.375
1959.862	341.70833
1962.629	338.375
1965.394	341.04167
1968.157	331.70833
1970.918	346.70833
1973.678	336.70833
1976.435	350.70833
1979.19	330.375
1981.944	320.375
1984.696	329.70833
1987.445	329.70833
1990.193	333.375
1992.939	343.70833
1995.683	330.375
1998.425	316.04167
2001.165	351.70833
2003.903	316.04167
2006.639	323.70833
2009.374	323.375
2012.106	326.04167
2014.837	302.70833
2017.566	334.70833
2020.292	313.70833
2023.017	312.70833
2025.74	316.04167
2028.461	304.375
2031.18	316.375
2033.898	303.04167
2036.613	309.375
2039.327	318.70833
2042.038	304.04167
2044.748	317.70833
2047.456	313.04167
2050.162	305.70833
2052.866	297.70833
2055.568	318.70833
2058.268	298.70833
2060.967	307.70833
2063.663	295.04167
2066.358	287.375
2069.051	293.70833
2071.742	303.04167
2074.431	310.70833
2077.118	301.04167
2079.804	287.375
2082.487	292.70833
2085.169	311.375
2087.849	320.70833
2090.527	296.04167
2093.203	295.04167
2095.877	300.70833
2098.55	299.70833
2101.22	309.04167
2103.889	318.70833
2106.556	300.375
2109.221	313.04167
2111.884	306.70833
2114.546	323.04167
2117.205	335.04167
2119.863	372.70833
2122.519	372.70833
2125.173	394.04167
2127.825	420.70833
2130.475	426.375
2133.124	410.375
2135.771	394.04167
2138.416	393.375
2141.059	358.70833
2143.7	359.375
2146.339	335.04167
2148.977	315.04167
2151.613	321.70833
2154.247	311.70833
2156.879	312.375
2159.51	281.375
2162.138	290.375
2164.765	278.375
2167.39	280.70833
2170.013	296.04167
2172.634	292.375
2175.254	277.375
2177.872	316.70833
2180.488	268.04167
2183.102	270.04167
2185.714	264.04167
2188.325	256.70833
2190.934	272.70833
2193.541	276.375
2196.146	261.70833
2198.75	258.375
2201.351	261.70833
2203.951	240.70833
2206.549	259.04167
2209.146	243.70833
2211.74	233.70833
2214.333	253.04167
2216.924	240.375
2219.514	247.70833
2222.101	238.70833
2224.687	251.04167
2227.271	237.04167
2229.853	236.70833
2232.433	221.70833
2235.012	245.70833
2237.589	244.375
2240.164	254.70833
2242.738	237.70833
2245.309	231.375
2247.879	249.04167
2250.448	242.70833
2253.014	219.04167
2255.579	222.70833
2258.142	223.375
2260.703	224.04167
2263.262	222.70833
2265.82	217.04167
2268.376	232.375
2270.93	217.70833
2273.483	217.70833
2276.033	230.04167
2278.583	212.375
2281.13	217.375
2283.675	208.70833
2286.219	211.04167
2288.761	223.375
2291.302	225.04167
2293.841	225.04167
2296.377	197.70833
2298.913	216.375
2301.446	225.04167
2303.978	211.04167
2306.508	214.04167
2309.037	212.04167
2311.563	214.375
2314.088	210.375
2316.612	194.70833
2319.133	214.375
2321.653	214.04167
2324.171	197.375
2326.688	217.04167
2329.202	203.70833
2331.715	207.04167
2334.227	202.70833
2336.736	204.375
2339.244	200.04167
2341.751	189.375
2344.255	208.375
2346.758	204.375
2349.259	192.04167
2351.759	208.70833
2354.257	192.04167
2356.753	189.70833
2359.247	184.04167
2361.74	191.375
2364.231	190.04167
2366.721	205.04167
2369.209	189.375
2371.695	191.04167
2374.179	186.375
2376.662	178.70833
2379.143	196.375
2381.622	194.70833
2384.1	200.70833
2386.576	193.375
2389.051	199.70833
2391.524	199.70833
2393.995	192.70833
2396.464	181.04167
2398.932	183.375
2401.398	187.70833
2403.863	183.375
2406.325	180.70833
2408.787	188.04167
2411.246	177.70833
2413.704	181.04167
2416.16	175.375
2418.615	181.70833
2421.068	186.04167
2423.519	176.375
2425.969	170.04167
2428.417	191.375
2430.863	201.375
2433.308	184.04167
2435.751	189.375
2438.193	177.04167
2440.633	181.70833
2443.071	188.70833
2445.508	179.04167
2447.943	179.04167
2450.376	171.70833
2452.808	183.375
2455.238	163.04167
2457.667	196.375
2460.093	166.70833
2462.519	160.04167
2464.942	170.375
2467.365	170.04167
2469.785	171.04167
2472.204	164.375
2474.621	163.04167
2477.037	181.70833
2479.451	159.70833
2481.863	151.70833
2484.274	161.375
2486.683	164.04167
2489.091	175.04167
2491.497	168.70833
2493.901	166.70833
2496.304	169.04167
2498.705	174.70833
2501.105	162.70833
2503.503	185.70833
2505.899	164.375
2508.294	179.04167
2510.687	150.70833
2513.079	159.70833
2515.469	158.375
2517.858	160.70833
2520.245	171.375
2522.63	157.04167
2525.014	152.375
2527.396	152.04167
2529.776	161.04167
2532.156	165.04167
2534.533	146.375
2536.909	152.70833
2539.283	142.04167
2541.656	154.70833
2544.027	168.375
2546.397	154.70833
2548.765	150.04167
2551.131	153.70833
2553.496	159.70833
2555.86	161.04167
2558.221	162.375
2560.582	145.70833
2562.94	141.70833
2565.298	150.04167
2567.653	166.04167
2570.007	141.70833
2572.36	156.70833
2574.711	145.04167
2577.06	165.375
2579.408	152.04167
2581.754	143.04167
2584.099	149.04167
2586.442	147.04167
2588.784	156.375
2591.124	147.70833
2593.463	146.70833
2595.8	153.04167
2598.135	135.375
2600.469	136.70833
2602.802	159.375
2605.133	155.375
2607.462	143.04167
2609.79	135.70833
2612.116	151.04167
2614.441	142.04167
2616.764	145.70833
2619.086	144.70833
2621.406	139.04167
2623.725	152.04167
2626.042	142.70833
2628.358	135.04167
2630.672	147.375
2632.985	156.70833
2635.296	146.375
2637.606	142.375
2639.914	139.375
2642.22	141.70833
2644.525	141.375
2646.829	138.04167
2649.131	154.04167
2651.432	150.70833
2653.731	137.375
2656.028	153.375
2658.324	146.70833
2660.619	133.04167
2662.912	149.04167
2665.204	132.04167
2667.494	145.375
2669.782	137.375
2672.07	151.375
2674.355	155.375
2676.639	143.04167
2678.922	135.04167
2681.203	141.375
2683.483	134.375
2685.761	133.04167
2688.038	149.04167
2690.313	154.375
2692.587	142.04167
2694.859	139.04167
2697.13	144.04167
2699.399	143.70833
2701.667	147.04167
2703.933	145.04167
2706.198	150.375
2708.461	155.04167
2710.723	153.70833
2712.984	146.04167
2715.243	145.70833
2717.5	148.04167
2719.757	156.70833
2722.011	146.70833
2724.264	162.70833
2726.516	160.375
2728.766	135.70833
2731.015	145.375
2733.262	146.04167
2735.508	140.04167
2737.753	144.04167
2739.996	129.04167
2742.237	136.04167
2744.477	144.70833
2746.716	151.04167
2748.953	157.70833
2751.189	153.70833
2753.423	143.70833
2755.656	134.70833
2757.887	135.04167
2760.117	133.70833
2762.346	135.70833
2764.573	128.04167
2766.798	130.375
2769.022	134.70833
2771.245	130.70833
2773.467	136.04167
2775.686	131.70833
2777.905	144.375
2780.122	138.04167
2782.337	141.375
2784.552	133.04167
2786.764	139.04167
2788.976	126.70833
2791.186	139.375
2793.394	141.04167
2795.601	141.375
2797.807	149.04167
2800.011	140.70833
2802.214	153.04167
2804.415	141.375
2806.615	146.70833
2808.814	145.70833
2811.011	150.70833
2813.206	149.04167
2815.401	158.04167
2817.594	156.04167
2819.785	161.375
2821.975	146.04167
2824.164	159.04167
2826.351	153.04167
2828.537	161.70833
2830.722	169.04167
2832.905	165.04167
2835.086	171.04167
2837.267	189.70833
2839.445	184.375
2841.623	184.70833
2843.799	182.375
2845.974	191.375
2848.147	198.70833
2850.319	211.04167
2852.489	224.70833
2854.659	217.375
2856.826	224.04167
2858.993	243.04167
2861.158	212.04167
2863.321	225.70833
2865.483	237.375
2867.644	232.04167
2869.804	238.375
2871.962	228.70833
2874.118	235.70833
2876.274	248.70833
2878.428	247.375
2880.58	241.04167
2882.731	227.375
2884.881	236.375
2887.03	235.375
2889.177	235.04167
2891.322	242.375
2893.467	233.375
2895.61	219.70833
2897.751	243.375
2899.892	226.04167
2902.03	234.04167
2904.168	228.04167
2906.304	236.70833
2908.439	248.04167
2910.572	227.375
2912.704	238.375
2914.835	249.70833
2916.965	238.04167
2919.093	258.70833
2921.219	221.70833
2923.345	251.04167
2925.469	240.04167
2927.591	230.70833
2929.712	219.375
2931.832	226.70833
2933.951	222.04167
2936.068	213.375
2938.184	207.04167
2940.299	209.04167
2942.412	199.70833
2944.524	184.04167
2946.634	194.375
2948.744	174.04167
2950.851	203.375
2952.958	166.04167
2955.063	176.375
2957.167	173.04167
2959.269	158.70833
2961.371	190.04167
2963.471	154.70833
2965.569	172.375
2967.666	149.70833
2969.762	146.04167
2971.857	143.375
2973.95	138.04167
2976.042	145.70833
2978.133	136.70833
2980.222	137.04167
2982.31	124.375
2984.396	112.375
2986.482	119.04167
2988.566	123.70833
2990.648	125.375
2992.73	115.70833
2994.81	109.04167
2996.889	120.04167
2998.966	118.70833
3001.042	127.70833
3003.117	110.70833
3005.191	119.70833
3007.263	120.375
3009.334	115.375
3011.403	119.04167
3013.472	107.04167
3015.539	127.04167
3017.604	128.70833
3019.669	100.375
3021.732	109.04167
3023.794	109.04167
3025.854	101.70833
3027.914	95.04167
3029.971	96.70833
3032.028	98.70833
3034.083	107.04167
3036.137	101.70833
3038.19	90.04167
3040.242	88.04167
3042.292	89.04167
3044.341	93.70833
3046.388	109.04167
3048.435	81.04167
3050.48	103.375
3052.524	90.375
3054.566	80.70833
3056.607	96.70833
3058.647	87.70833
3060.686	79.375
3062.723	69.70833
3064.759	71.375
3066.794	-0.29167
3068.828	0.375
3070.86	2.70833
