-0.839	141.16667
3.438	153.16667
7.711	64.5
11.981	46.16667
16.247	33.83333
20.509	37.16667
24.768	32.16667
29.024	42.16667
33.276	30.16667
37.524	41.5
41.769	29.83333
46.01	28.83333
50.247	43.5
54.481	47.5
58.712	56.83333
62.939	35.16667
67.162	50.83333
71.382	49.5
75.599	37.83333
79.812	41.83333
84.021	63.5
88.227	43.5
92.429	50.83333
96.628	39.83333
100.823	52.5
105.015	54.83333
109.204	45.83333
113.388	57.16667
117.57	40.16667
121.748	59.83333
125.922	46.16667
130.093	60.16667
134.261	60.16667
138.425	53.16667
142.585	81.5
146.742	60.16667
150.896	76.5
155.046	68.83333
159.193	105.16667
163.336	153.5
167.476	259.16667
171.613	466.16667
175.746	743.16667
179.875	1064.83333
184.002	1388.16667
188.124	1629.83333
192.244	1717.16667
196.36	1710.83333
200.472	1691.83333
204.581	1671.5
208.687	1601.83333
212.79	1603.5
216.889	1629.83333
220.984	1647.83333
225.077	1634.5
229.165	1642.16667
233.251	1641.83333
237.333	1644.5
241.412	1633.5
245.487	1631.16667
249.559	1578.16667
253.628	1601.5
257.694	1558.83333
261.756	1588.83333
265.814	1538.83333
269.87	1513.83333
273.922	1476.83333
277.97	1443.83333
282.016	1447.83333
286.058	1429.16667
290.097	1446.16667
294.132	1475.83333
298.164	1465.16667
302.193	1416.5
306.219	1320.83333
310.241	1249.16667
314.26	1172.5
318.276	1125.83333
322.288	1071.16667
326.297	1061.5
330.303	1017.83333
334.305	1018.16667
338.305	1010.5
342.301	996.5
346.294	996.83333
350.283	986.5
354.269	977.83333
358.252	959.83333
362.232	971.16667
366.209	972.5
370.182	959.16667
374.152	949.83333
378.119	960.5
382.083	956.83333
386.043	963.83333
390	948.5
393.954	984.16667
397.905	964.16667
401.852	980.83333
405.797	959.83333
409.738	956.5
413.676	975.16667
417.61	988.16667
421.542	961.5
425.47	956.16667
429.396	949.5
433.318	945.16667
437.236	932.83333
441.152	968.5
445.065	924.83333
448.974	944.83333
452.88	926.16667
456.783	915.83333
460.683	916.16667
464.58	936.5
468.473	940.5
472.364	917.16667
476.251	923.83333
480.135	928.5
484.016	950.16667
487.894	954.16667
491.769	949.16667
495.641	954.5
499.509	956.5
503.375	952.5
507.237	950.83333
511.096	951.83333
514.952	961.83333
518.805	976.16667
522.655	1002.5
526.502	960.16667
530.346	949.5
534.187	943.16667
538.024	946.16667
541.859	939.16667
545.69	950.5
549.519	939.83333
553.344	943.16667
557.166	940.5
560.985	930.83333
564.802	922.83333
568.615	920.5
572.425	900.5
576.232	901.83333
580.036	903.16667
583.836	905.5
587.634	924.16667
591.429	906.83333
595.221	931.5
599.01	916.83333
602.796	924.5
606.578	918.5
610.358	927.16667
614.135	919.5
617.909	924.16667
621.679	910.5
625.447	904.16667
629.212	914.83333
632.973	908.83333
636.732	907.16667
640.488	912.83333
644.241	904.5
647.991	895.16667
651.737	920.83333
655.481	884.83333
659.222	905.16667
662.96	881.5
666.695	894.5
670.427	915.5
674.156	918.5
677.882	921.5
681.605	902.16667
685.325	903.16667
689.043	920.5
692.757	907.16667
696.468	886.16667
700.177	899.83333
703.882	870.16667
707.585	873.5
711.284	875.83333
714.981	858.83333
718.675	875.83333
722.366	875.5
726.054	865.16667
729.739	865.5
733.421	877.5
737.1	866.16667
740.777	880.83333
744.45	883.83333
748.121	885.16667
751.789	915.83333
755.453	891.16667
759.115	892.83333
762.774	899.16667
766.431	891.16667
770.084	899.16667
773.734	890.5
777.382	918.83333
781.027	911.83333
784.669	891.5
788.308	907.83333
791.944	934.83333
795.577	932.83333
799.208	906.83333
802.835	931.5
806.46	936.16667
810.082	930.5
813.701	928.16667
817.317	929.5
820.931	933.5
824.542	936.83333
828.149	917.16667
831.754	915.16667
835.357	918.83333
838.956	936.16667
842.553	919.83333
846.146	908.5
849.737	879.16667
853.326	901.5
856.911	886.83333
860.493	910.83333
864.073	908.5
867.65	914.83333
871.225	932.5
874.796	911.16667
878.365	888.16667
881.931	914.5
885.494	930.83333
889.054	924.5
892.612	908.83333
896.166	910.5
899.719	885.83333
903.268	877.83333
906.814	888.5
910.358	878.5
913.899	872.83333
917.438	861.16667
920.973	837.5
924.506	862.5
928.036	884.5
931.564	893.16667
935.088	905.16667
938.61	885.5
942.129	893.83333
945.646	900.5
949.16	905.16667
952.671	929.16667
956.179	947.16667
959.685	923.5
963.188	932.16667
966.688	905.5
970.185	884.83333
973.68	864.16667
977.173	872.5
980.662	842.5
984.149	863.5
987.633	837.83333
991.114	853.5
994.593	870.83333
998.069	875.5
1001.542	903.5
1005.013	894.5
1008.481	830.16667
1011.947	828.16667
1015.409	822.83333
1018.869	823.83333
1022.327	837.16667
1025.782	809.83333
1029.234	810.83333
1032.683	801.16667
1036.13	793.16667
1039.574	761.16667
1043.016	746.83333
1046.455	734.16667
1049.891	734.83333
1053.325	747.83333
1056.756	721.5
1060.184	732.83333
1063.61	720.16667
1067.033	740.83333
1070.454	727.83333
1073.872	748.83333
1077.287	722.16667
1080.7	726.16667
1084.11	728.16667
1087.517	729.16667
1090.922	711.83333
1094.325	701.16667
1097.724	708.83333
1101.122	709.16667
1104.516	710.16667
1107.908	696.83333
1111.298	694.5
1114.684	710.83333
1118.069	717.5
1121.45	739.83333
1124.83	708.5
1128.206	708.83333
1131.58	725.5
1134.951	742.5
1138.32	764.5
1141.687	784.83333
1145.05	800.5
1148.412	803.16667
1151.77	791.16667
1155.126	782.16667
1158.48	779.83333
1161.831	773.16667
1165.18	774.5
1168.525	800.83333
1171.869	799.5
1175.21	795.16667
1178.548	809.83333
1181.884	822.5
1185.217	819.83333
1188.548	831.83333
1191.877	845.83333
1195.202	897.83333
1198.526	896.83333
1201.846	898.16667
1205.165	890.83333
1208.48	894.83333
1211.794	902.83333
1215.104	902.16667
1218.413	895.5
1221.719	911.5
1225.022	875.83333
1228.323	859.16667
1231.621	862.5
1234.917	859.5
1238.21	877.16667
1241.501	849.83333
1244.79	856.16667
1248.076	848.16667
1251.359	848.83333
1254.64	895.83333
1257.919	872.83333
1261.195	877.16667
1264.468	892.5
1267.74	898.5
1271.008	906.5
1274.275	906.16667
1277.538	900.83333
1280.8	894.5
1284.059	893.16667
1287.315	906.16667
1290.569	906.16667
1293.821	910.83333
1297.07	909.5
1300.317	911.5
1303.562	914.83333
1306.803	901.5
1310.043	893.83333
1313.28	905.5
1316.515	878.83333
1319.747	897.5
1322.977	879.5
1326.204	878.83333
1329.429	857.16667
1332.652	867.16667
1335.872	866.83333
1339.09	850.16667
1342.306	855.5
1345.519	836.16667
1348.729	830.5
1351.938	839.16667
1355.144	822.5
1358.347	829.5
1361.548	838.83333
1364.747	820.16667
1367.944	804.83333
1371.138	812.83333
1374.329	806.83333
1377.518	809.5
1380.705	817.83333
1383.89	811.5
1387.072	790.16667
1390.252	776.16667
1393.429	747.16667
1396.605	739.16667
1399.777	707.16667
1402.948	708.83333
1406.116	699.83333
1409.282	702.83333
1412.445	683.5
1415.606	699.16667
1418.765	706.16667
1421.921	719.5
1425.075	719.16667
1428.227	734.83333
1431.376	763.16667
1434.524	798.83333
1437.668	804.5
1440.811	802.5
1443.951	817.83333
1447.089	813.5
1450.224	816.83333
1453.357	808.5
1456.488	810.5
1459.617	806.16667
1462.743	796.83333
1465.867	763.5
1468.989	762.16667
1472.108	746.83333
1475.225	746.5
1478.34	741.5
1481.453	722.5
1484.563	717.16667
1487.671	739.16667
1490.776	745.5
1493.88	745.16667
1496.981	765.16667
1500.08	758.83333
1503.176	781.5
1506.271	775.16667
1509.363	787.16667
1512.452	785.16667
1515.54	793.83333
1518.625	798.83333
1521.708	827.83333
1524.789	842.5
1527.867	861.16667
1530.944	906.5
1534.018	927.16667
1537.089	970.16667
1540.159	976.5
1543.226	988.16667
1546.291	962.5
1549.354	936.83333
1552.415	923.5
1555.473	923.16667
1558.529	910.83333
1561.583	887.83333
1564.634	875.83333
1567.684	888.16667
1570.731	889.5
1573.776	893.83333
1576.819	893.5
1579.859	900.83333
1582.898	900.83333
1585.934	929.5
1588.968	923.16667
1591.999	903.5
1595.029	910.5
1598.056	925.16667
1601.081	935.83333
1604.104	932.5
1607.125	907.16667
1610.144	901.83333
1613.16	874.83333
1616.174	866.16667
1619.186	848.16667
1622.196	829.83333
1625.203	798.5
1628.209	809.16667
1631.212	796.83333
1634.213	803.83333
1637.212	802.5
1640.209	784.83333
1643.203	755.16667
1646.196	749.5
1649.186	719.16667
1652.174	712.5
1655.16	698.16667
1658.144	679.16667
1661.125	651.83333
1664.105	631.83333
1667.082	605.5
1670.057	581.16667
1673.03	545.16667
1676.001	531.83333
1678.97	497.16667
1681.937	476.5
1684.901	449.16667
1687.863	451.83333
1690.824	417.83333
1693.782	435.5
1696.738	399.83333
1699.692	398.83333
1702.643	386.16667
1705.593	385.5
1708.54	377.83333
1711.486	396.83333
1714.429	374.83333
1717.37	380.16667
1720.309	360.83333
1723.246	378.83333
1726.181	350.5
1729.113	356.5
1732.044	368.5
1734.972	363.5
1737.899	367.83333
1740.823	375.5
1743.745	383.16667
1746.665	352.5
1749.583	341.5
1752.499	341.16667
1755.413	334.83333
1758.325	327.5
1761.235	332.5
1764.142	310.5
1767.048	316.5
1769.951	322.16667
1772.852	311.16667
1775.752	324.83333
1778.649	321.5
1781.544	340.16667
1784.437	311.83333
1787.328	319.83333
1790.217	312.83333
1793.104	292.83333
1795.989	304.83333
1798.872	295.16667
1801.753	314.5
1804.631	294.16667
1807.508	315.16667
1810.383	302.16667
1813.255	303.5
1816.126	298.5
1818.994	298.5
1821.861	300.5
1824.725	303.16667
1827.587	303.83333
1830.448	298.16667
1833.306	285.16667
1836.162	296.5
1839.017	292.5
1841.869	295.5
1844.719	289.16667
1847.567	282.83333
1850.414	270.83333
1853.258	280.16667
1856.1	291.83333
1858.94	298.16667
1861.778	283.5
1864.614	274.16667
1867.448	281.5
1870.28	274.83333
1873.111	285.16667
1875.939	285.16667
1878.765	293.5
1881.589	278.16667
1884.411	281.83333
1887.231	288.5
1890.049	275.5
1892.865	282.16667
1895.68	270.83333
1898.492	280.5
1901.302	269.83333
1904.11	273.83333
1906.916	270.16667
1909.721	269.16667
1912.523	272.5
1915.323	261.83333
1918.122	264.83333
1920.918	275.83333
1923.712	264.16667
1926.505	268.16667
1929.295	250.5
1932.084	268.83333
1934.87	263.5
1937.655	262.16667
1940.438	244.5
1943.218	252.5
1945.997	252.83333
1948.774	262.83333
1951.549	262.16667
1954.322	258.16667
1957.093	262.16667
1959.862	250.83333
1962.629	252.5
1965.394	255.5
1968.157	246.83333
1970.918	255.16667
1973.678	242.83333
1976.435	262.16667
1979.19	242.5
1981.944	241.16667
1984.696	240.16667
1987.445	245.83333
1990.193	244.5
1992.939	251.5
1995.683	248.83333
1998.425	228.5
2001.165	263.5
2003.903	234.16667
2006.639	238.5
2009.374	244.5
2012.106	244.16667
2014.837	219.16667
2017.566	247.83333
2020.292	238.5
2023.017	239.83333
2025.74	232.5
2028.461	229.16667
2031.18	237.16667
2033.898	228.83333
2036.613	233.83333
2039.327	233.16667
2042.038	225.5
2044.748	231.16667
2047.456	241.16667
2050.162	217.16667
2052.866	230.5
2055.568	237.16667
2058.268	222.83333
2060.967	234.5
2063.663	218.16667
2066.358	222.16667
2069.051	215.16667
2071.742	227.16667
2074.431	233.16667
2077.118	221.16667
2079.804	211.83333
2082.487	220.16667
2085.169	233.83333
2087.849	245.83333
2090.527	213.16667
2093.203	221.83333
2095.877	217.5
2098.55	223.83333
2101.22	232.83333
2103.889	234.83333
2106.556	226.83333
2109.221	232.16667
2111.884	229.83333
2114.546	249.16667
2117.205	249.16667
2119.863	272.16667
2122.519	263.5
2125.173	284.83333
2127.825	317.5
2130.475	304.16667
2133.124	285.83333
2135.771	285.16667
2138.416	298.5
2141.059	259.16667
2143.7	272.83333
2146.339	249.83333
2148.977	229.16667
2151.613	236.16667
2154.247	230.5
2156.879	222.16667
2159.51	214.5
2162.138	219.5
2164.765	211.83333
2167.39	204.16667
2170.013	229.83333
2172.634	220.83333
2175.254	214.83333
2177.872	246.83333
2180.488	203.83333
2183.102	209.5
2185.714	208.16667
2188.325	199.16667
2190.934	205.5
2193.541	207.16667
2196.146	205.16667
2198.75	192.5
2201.351	190.16667
2203.951	179.5
2206.549	200.16667
2209.146	195.16667
2211.74	192.16667
2214.333	194.83333
2216.924	184.5
2219.514	193.5
2222.101	189.16667
2224.687	207.83333
2227.271	183.16667
2229.853	180.83333
2232.433	172.16667
2235.012	192.83333
2237.589	191.5
2240.164	197.16667
2242.738	184.16667
2245.309	177.5
2247.879	194.5
2250.448	193.16667
2253.014	172.83333
2255.579	172.16667
2258.142	176.5
2260.703	177.5
2263.262	177.16667
2265.82	165.5
2268.376	183.5
2270.93	169.83333
2273.483	165.16667
2276.033	181.5
2278.583	167.83333
2281.13	173.16667
2283.675	162.5
2286.219	172.5
2288.761	180.16667
2291.302	180.5
2293.841	183.5
2296.377	160.5
2298.913	169.83333
2301.446	180.16667
2303.978	170.5
2306.508	165.5
2309.037	163.83333
2311.563	166.5
2314.088	167.5
2316.612	160.5
2319.133	168.83333
2321.653	169.5
2324.171	157.5
2326.688	179.5
2329.202	166.5
2331.715	170.83333
2334.227	167.83333
2336.736	166.16667
2339.244	162.83333
2341.751	154.5
2344.255	169.83333
2346.758	162.83333
2349.259	153.5
2351.759	164.5
2354.257	152.16667
2356.753	149.83333
2359.247	154.5
2361.74	160.16667
2364.231	157.16667
2366.721	168.16667
2369.209	161.83333
2371.695	151.83333
2374.179	154.83333
2376.662	144.5
2379.143	172.5
2381.622	155.83333
2384.1	158.83333
2386.576	153.5
2389.051	171.83333
2391.524	167.16667
2393.995	168.16667
2396.464	154.83333
2398.932	154.83333
2401.398	155.83333
2403.863	152.5
2406.325	150.16667
2408.787	160.16667
2411.246	159.5
2413.704	150.5
2416.16	148.5
2418.615	150.83333
2421.068	154.83333
2423.519	148.5
2425.969	143.16667
2428.417	166.16667
2430.863	172.16667
2433.308	158.5
2435.751	162.5
2438.193	159.83333
2440.633	164.16667
2443.071	160.83333
2445.508	150.83333
2447.943	145.83333
2450.376	146.83333
2452.808	154.83333
2455.238	141.83333
2457.667	174.83333
2460.093	145.16667
2462.519	143.83333
2464.942	142.83333
2467.365	151.83333
2469.785	157.16667
2472.204	145.16667
2474.621	142.5
2477.037	166.5
2479.451	140.83333
2481.863	139.16667
2484.274	140.5
2486.683	149.16667
2489.091	160.16667
2491.497	152.16667
2493.901	151.16667
2496.304	144.83333
2498.705	157.5
2501.105	149.16667
2503.503	167.5
2505.899	145.16667
2508.294	164.16667
2510.687	141.83333
2513.079	144.16667
2515.469	138.5
2517.858	141.16667
2520.245	158.16667
2522.63	146.5
2525.014	142.5
2527.396	140.83333
2529.776	136.83333
2532.156	149.16667
2534.533	140.5
2536.909	137.16667
2539.283	126.5
2541.656	143.5
2544.027	152.83333
2546.397	146.16667
2548.765	137.5
2551.131	140.83333
2553.496	155.16667
2555.86	150.5
2558.221	151.5
2560.582	135.16667
2562.94	128.83333
2565.298	143.5
2567.653	153.5
2570.007	129.83333
2572.36	149.5
2574.711	137.83333
2577.06	152.5
2579.408	144.16667
2581.754	137.16667
2584.099	141.16667
2586.442	136.83333
2588.784	149.83333
2591.124	144.16667
2593.463	139.16667
2595.8	145.16667
2598.135	133.83333
2600.469	134.83333
2602.802	152.83333
2605.133	155.16667
2607.462	138.5
2609.79	130.16667
2612.116	145.83333
2614.441	140.83333
2616.764	146.16667
2619.086	138.5
2621.406	144.83333
2623.725	156.5
2626.042	142.16667
2628.358	138.5
2630.672	142.5
2632.985	150.83333
2635.296	143.83333
2637.606	141.83333
2639.914	131.16667
2642.22	140.16667
2644.525	138.83333
2646.829	137.5
2649.131	157.16667
2651.432	148.83333
2653.731	141.16667
2656.028	155.5
2658.324	146.5
2660.619	139.16667
2662.912	153.16667
2665.204	132.16667
2667.494	151.16667
2669.782	132.83333
2672.07	152.5
2674.355	159.5
2676.639	150.83333
2678.922	140.83333
2681.203	151.16667
2683.483	141.83333
2685.761	131.83333
2688.038	152.16667
2690.313	154.5
2692.587	146.83333
2694.859	148.5
2697.13	139.5
2699.399	148.5
2701.667	156.16667
2703.933	144.83333
2706.198	152.83333
2708.461	158.5
2710.723	155.16667
2712.984	151.16667
2715.243	160.5
2717.5	145.16667
2719.757	162.5
2722.011	149.5
2724.264	160.83333
2726.516	165.16667
2728.766	143.83333
2731.015	155.83333
2733.262	147.5
2735.508	150.83333
2737.753	158.16667
2739.996	139.5
2742.237	142.83333
2744.477	156.83333
2746.716	166.16667
2748.953	159.5
2751.189	171.5
2753.423	157.5
2755.656	144.5
2757.887	139.5
2760.117	150.16667
2762.346	137.83333
2764.573	129.83333
2766.798	142.16667
2769.022	146.16667
2771.245	141.83333
2773.467	148.83333
2775.686	144.16667
2777.905	154.16667
2780.122	148.5
2782.337	156.16667
2784.552	145.5
2786.764	150.5
2788.976	145.5
2791.186	148.5
2793.394	149.83333
2795.601	153.16667
2797.807	160.5
2800.011	160.16667
2802.214	162.5
2804.415	158.83333
2806.615	158.83333
2808.814	160.5
2811.011	161.83333
2813.206	164.83333
2815.401	167.83333
2817.594	167.16667
2819.785	171.16667
2821.975	160.16667
2824.164	167.83333
2826.351	164.16667
2828.537	178.5
2830.722	173.5
2832.905	168.83333
2835.086	180.83333
2837.267	200.16667
2839.445	192.83333
2841.623	194.16667
2843.799	195.16667
2845.974	196.83333
2848.147	198.5
2850.319	211.16667
2852.489	216.83333
2854.659	223.83333
2856.826	223.5
2858.993	235.83333
2861.158	219.5
2863.321	226.5
2865.483	239.16667
2867.644	229.5
2869.804	232.83333
2871.962	223.5
2874.118	227.5
2876.274	229.83333
2878.428	230.83333
2880.58	235.16667
2882.731	221.5
2884.881	234.16667
2887.03	229.5
2889.177	232.16667
2891.322	236.83333
2893.467	229.83333
2895.61	227.83333
2897.751	244.16667
2899.892	228.5
2902.03	235.83333
2904.168	235.83333
2906.304	234.83333
2908.439	251.83333
2910.572	228.5
2912.704	239.5
2914.835	236.83333
2916.965	240.5
2919.093	261.83333
2921.219	227.5
2923.345	257.83333
2925.469	242.16667
2927.591	239.83333
2929.712	226.83333
2931.832	237.5
2933.951	233.5
2936.068	219.16667
2938.184	225.83333
2940.299	217.83333
2942.412	217.83333
2944.524	202.16667
2946.634	215.83333
2948.744	186.5
2950.851	223.5
2952.958	194.83333
2955.063	201.5
2957.167	187.16667
2959.269	181.83333
2961.371	211.83333
2963.471	185.16667
2965.569	197.16667
2967.666	175.5
2969.762	175.5
2971.857	170.5
2973.95	162.83333
2976.042	177.16667
2978.133	167.5
2980.222	168.16667
2982.31	156.16667
2984.396	147.83333
2986.482	149.5
2988.566	157.5
2990.648	154.83333
2992.73	156.5
2994.81	142.83333
2996.889	159.16667
2998.966	153.16667
3001.042	164.83333
3003.117	149.83333
3005.191	153.16667
3007.263	161.16667
3009.334	152.5
3011.403	151.83333
3013.472	149.5
3015.539	161.5
3017.604	166.83333
3019.669	134.83333
3021.732	146.83333
3023.794	149.83333
3025.854	140.16667
3027.914	138.83333
3029.971	133.83333
3032.028	137.16667
3034.083	150.16667
3036.137	137.5
3038.19	129.83333
3040.242	122.5
3042.292	128.83333
3044.341	134.5
3046.388	147.5
3048.435	125.16667
3050.48	143.16667
3052.524	132.16667
3054.566	117.5
3056.607	128.5
3058.647	124.5
3060.686	112.5
3062.723	103.16667
3064.759	113.83333
3066.794	0.83333
3068.828	1.16667
3070.86	2.16667
