-0.839	138.29167
3.438	152.95833
7.711	63.29167
11.981	45.29167
16.247	29.625
20.509	38.625
24.768	33.95833
29.024	43.625
33.276	31.625
37.524	36.625
41.769	31.29167
46.01	27.95833
50.247	43.625
54.481	49.95833
58.712	54.625
62.939	34.625
67.162	53.29167
71.382	46.29167
75.599	38.29167
79.812	42.625
84.021	62.625
88.227	39.29167
92.429	52.625
96.628	38.95833
100.823	52.95833
105.015	50.95833
109.204	46.29167
113.388	57.625
117.57	43.29167
121.748	58.95833
125.922	45.29167
130.093	61.625
134.261	60.95833
138.425	53.95833
142.585	83.95833
146.742	64.95833
150.896	73.29167
155.046	71.625
159.193	111.29167
163.336	152.29167
167.476	260.625
171.613	468.29167
175.746	767.95833
179.875	1098.625
184.002	1425.95833
188.124	1680.29167
192.244	1765.95833
196.36	1772.625
200.472	1753.95833
204.581	1740.95833
208.687	1698.625
212.79	1671.29167
216.889	1705.95833
220.984	1728.29167
225.077	1731.29167
229.165	1746.29167
233.251	1766.625
237.333	1763.95833
241.412	1718.29167
245.487	1716.29167
249.559	1689.625
253.628	1693.95833
257.694	1675.625
261.756	1687.95833
265.814	1667.625
269.87	1600.95833
273.922	1558.95833
277.97	1544.95833
282.016	1548.625
286.058	1510.29167
290.097	1556.29167
294.132	1546.95833
298.164	1537.625
302.193	1501.95833
306.219	1412.95833
310.241	1331.95833
314.26	1259.625
318.276	1186.95833
322.288	1146.95833
326.297	1131.29167
330.303	1105.29167
334.305	1089.625
338.305	1075.29167
342.301	1067.95833
346.294	1048.95833
350.283	1041.625
354.269	1051.625
358.252	1038.625
362.232	1035.29167
366.209	1031.95833
370.182	1025.29167
374.152	1024.625
378.119	1043.29167
382.083	1027.625
386.043	1040.625
390	1037.625
393.954	1046.95833
397.905	1046.29167
401.852	1043.625
405.797	1034.625
409.738	1050.29167
413.676	1057.625
417.61	1089.95833
421.542	1043.95833
425.47	1012.625
429.396	1003.29167
433.318	986.29167
437.236	1005.625
441.152	1040.95833
445.065	985.29167
448.974	999.625
452.88	983.625
456.783	987.625
460.683	989.29167
464.58	990.625
468.473	986.95833
472.364	999.625
476.251	986.625
480.135	997.95833
484.016	995.625
487.894	1019.29167
491.769	1004.625
495.641	1008.625
499.509	1030.29167
503.375	1009.29167
507.237	1002.95833
511.096	997.625
514.952	993.95833
518.805	1016.625
522.655	1012.29167
526.502	1010.29167
530.346	1017.95833
534.187	1016.95833
538.024	1010.29167
541.859	988.95833
545.69	1016.625
549.519	1013.29167
553.344	1003.625
557.166	983.95833
560.985	978.29167
564.802	990.29167
568.615	974.625
572.425	951.29167
576.232	954.29167
580.036	960.29167
583.836	968.625
587.634	965.29167
591.429	959.625
595.221	1007.95833
599.01	994.29167
602.796	987.29167
606.578	987.625
610.358	997.29167
614.135	971.95833
617.909	987.29167
621.679	974.625
625.447	968.95833
629.212	979.95833
632.973	988.95833
636.732	966.625
640.488	981.29167
644.241	945.29167
647.991	956.29167
651.737	983.625
655.481	942.95833
659.222	955.95833
662.96	954.625
666.695	965.29167
670.427	975.95833
674.156	981.29167
677.882	970.625
681.605	966.29167
685.325	937.625
689.043	983.29167
692.757	943.95833
696.468	950.625
700.177	953.625
703.882	942.95833
707.585	937.625
711.284	934.625
714.981	922.625
718.675	931.625
722.366	946.625
726.054	916.95833
729.739	935.29167
733.421	948.625
737.1	929.95833
740.777	934.95833
744.45	941.29167
748.121	922.625
751.789	966.29167
755.453	945.95833
759.115	964.95833
762.774	943.625
766.431	941.29167
770.084	968.625
773.734	953.95833
777.382	978.29167
781.027	968.29167
784.669	964.29167
788.308	960.29167
791.944	983.625
795.577	982.29167
799.208	982.95833
802.835	981.95833
806.46	993.95833
810.082	999.95833
813.701	983.95833
817.317	1009.29167
820.931	1000.95833
824.542	999.29167
828.149	985.29167
831.754	976.29167
835.357	973.625
838.956	987.625
842.553	983.95833
846.146	968.29167
849.737	948.29167
853.326	965.95833
856.911	933.29167
860.493	970.95833
864.073	978.29167
867.65	994.625
871.225	1009.29167
874.796	977.625
878.365	967.29167
881.931	980.29167
885.494	999.625
889.054	982.95833
892.612	988.29167
896.166	963.29167
899.719	950.95833
903.268	932.95833
906.814	932.29167
910.358	931.95833
913.899	932.625
917.438	936.625
920.973	907.625
924.506	921.625
928.036	934.625
931.564	938.95833
935.088	964.625
938.61	952.95833
942.129	938.29167
945.646	966.29167
949.16	979.95833
952.671	975.29167
956.179	989.95833
959.685	984.29167
963.188	991.625
966.688	979.95833
970.185	939.625
973.68	926.29167
977.173	923.95833
980.662	900.95833
984.149	913.29167
987.633	887.29167
991.114	902.625
994.593	916.29167
998.069	936.95833
1001.542	961.625
1005.013	945.625
1008.481	888.625
1011.947	884.625
1015.409	854.29167
1018.869	879.95833
1022.327	893.625
1025.782	866.95833
1029.234	863.95833
1032.683	857.625
1036.13	833.29167
1039.574	808.95833
1043.016	799.29167
1046.455	797.29167
1049.891	774.625
1053.325	785.95833
1056.756	774.29167
1060.184	778.625
1063.61	769.625
1067.033	778.95833
1070.454	775.625
1073.872	805.95833
1077.287	764.95833
1080.7	772.625
1084.11	780.95833
1087.517	775.29167
1090.922	773.29167
1094.325	755.625
1097.724	743.625
1101.122	744.29167
1104.516	751.625
1107.908	727.29167
1111.298	742.95833
1114.684	752.625
1118.069	749.95833
1121.45	772.625
1124.83	746.625
1128.206	763.95833
1131.58	770.625
1134.951	788.29167
1138.32	796.625
1141.687	819.625
1145.05	850.29167
1148.412	839.625
1151.77	834.625
1155.126	828.625
1158.48	833.625
1161.831	820.29167
1165.18	836.625
1168.525	841.625
1171.869	846.95833
1175.21	850.29167
1178.548	855.29167
1181.884	861.625
1185.217	866.95833
1188.548	890.625
1191.877	915.95833
1195.202	944.29167
1198.526	962.29167
1201.846	960.625
1205.165	969.95833
1208.48	974.625
1211.794	965.29167
1215.104	969.29167
1218.413	948.625
1221.719	956.29167
1225.022	937.95833
1228.323	919.625
1231.621	919.95833
1234.917	910.625
1238.21	922.95833
1241.501	912.625
1244.79	899.625
1248.076	896.29167
1251.359	904.95833
1254.64	936.95833
1257.919	918.625
1261.195	941.95833
1264.468	939.625
1267.74	955.625
1271.008	965.625
1274.275	960.95833
1277.538	949.625
1280.8	957.29167
1284.059	971.625
1287.315	1084.625
1290.569	965.625
1293.821	967.95833
1297.07	978.95833
1300.317	963.625
1303.562	968.29167
1306.803	968.29167
1310.043	960.95833
1313.28	961.625
1316.515	952.29167
1319.747	958.95833
1322.977	953.29167
1326.204	932.95833
1329.429	939.625
1332.652	937.95833
1335.872	914.625
1339.09	924.625
1342.306	914.625
1345.519	895.29167
1348.729	900.625
1351.938	902.29167
1355.144	884.29167
1358.347	867.625
1361.548	880.29167
1364.747	880.29167
1367.944	857.95833
1371.138	866.29167
1374.329	856.95833
1377.518	864.625
1380.705	867.95833
1383.89	867.29167
1387.072	840.625
1390.252	821.95833
1393.429	801.625
1396.605	777.625
1399.777	752.29167
1402.948	755.95833
1406.116	736.625
1409.282	742.29167
1412.445	747.29167
1415.606	751.29167
1418.765	746.625
1421.921	763.95833
1425.075	770.625
1428.227	782.95833
1431.376	812.29167
1434.524	839.95833
1437.668	858.625
1440.811	867.29167
1443.951	872.29167
1447.089	869.625
1450.224	873.29167
1453.357	872.625
1456.488	858.29167
1459.617	850.625
1462.743	848.95833
1465.867	807.29167
1468.989	805.625
1472.108	798.29167
1475.225	803.625
1478.34	780.625
1481.453	779.29167
1484.563	772.29167
1487.671	778.625
1490.776	795.29167
1493.88	798.29167
1496.981	808.95833
1500.08	812.29167
1503.176	818.625
1506.271	827.29167
1509.363	850.95833
1512.452	849.29167
1515.54	844.625
1518.625	864.95833
1521.708	881.29167
1524.789	894.625
1527.867	929.625
1530.944	970.29167
1534.018	1004.29167
1537.089	1039.29167
1540.159	1043.625
1543.226	1043.95833
1546.291	1019.95833
1549.354	998.29167
1552.415	998.29167
1555.473	972.95833
1558.529	957.625
1561.583	953.29167
1564.634	937.29167
1567.684	948.29167
1570.731	948.95833
1573.776	952.95833
1576.819	953.29167
1579.859	964.29167
1582.898	976.625
1585.934	983.625
1588.968	1004.625
1591.999	985.625
1595.029	977.625
1598.056	1002.95833
1601.081	1017.29167
1604.104	1009.625
1607.125	989.29167
1610.144	967.95833
1613.16	944.95833
1616.174	921.29167
1619.186	912.95833
1622.196	897.625
1625.203	867.95833
1628.209	862.95833
1631.212	856.95833
1634.213	864.29167
1637.212	851.29167
1640.209	847.29167
1643.203	828.95833
1646.196	802.625
1649.186	771.625
1652.174	768.29167
1655.16	739.95833
1658.144	734.95833
1661.125	702.95833
1664.105	666.29167
1667.082	653.625
1670.057	620.95833
1673.03	583.29167
1676.001	557.29167
1678.97	517.29167
1681.937	507.625
1684.901	478.95833
1687.863	472.625
1690.824	451.29167
1693.782	455.95833
1696.738	427.95833
1699.692	424.625
1702.643	408.625
1705.593	415.95833
1708.54	412.625
1711.486	424.95833
1714.429	386.29167
1717.37	402.95833
1720.309	382.29167
1723.246	394.29167
1726.181	379.95833
1729.113	382.29167
1732.044	382.29167
1734.972	381.95833
1737.899	391.95833
1740.823	394.29167
1743.745	410.29167
1746.665	360.625
1749.583	360.29167
1752.499	357.29167
1755.413	358.625
1758.325	351.29167
1761.235	351.95833
1764.142	335.625
1767.048	338.95833
1769.951	334.95833
1772.852	342.625
1775.752	351.95833
1778.649	358.95833
1781.544	357.95833
1784.437	327.625
1787.328	339.95833
1790.217	340.29167
1793.104	314.625
1795.989	310.95833
1798.872	320.29167
1801.753	330.95833
1804.631	320.95833
1807.508	326.625
1810.383	316.95833
1813.255	309.29167
1816.126	316.29167
1818.994	310.95833
1821.861	308.29167
1824.725	312.95833
1827.587	321.625
1830.448	317.95833
1833.306	294.625
1836.162	321.625
1839.017	304.625
1841.869	308.625
1844.719	302.95833
1847.567	295.625
1850.414	292.95833
1853.258	285.29167
1856.1	304.29167
1858.94	303.29167
1861.778	305.29167
1864.614	286.625
1867.448	293.625
1870.28	274.625
1873.111	306.95833
1875.939	287.95833
1878.765	306.95833
1881.589	291.625
1884.411	295.625
1887.231	299.625
1890.049	288.625
1892.865	306.625
1895.68	283.625
1898.492	294.625
1901.302	281.29167
1904.11	280.29167
1906.916	284.29167
1909.721	276.625
1912.523	284.95833
1915.323	267.625
1918.122	274.29167
1920.918	290.95833
1923.712	274.95833
1926.505	286.95833
1929.295	260.29167
1932.084	287.29167
1934.87	283.95833
1937.655	266.625
1940.438	261.95833
1943.218	270.625
1945.997	281.95833
1948.774	279.29167
1951.549	273.29167
1954.322	263.95833
1957.093	265.95833
1959.862	266.29167
1962.629	266.29167
1965.394	260.625
1968.157	253.29167
1970.918	270.625
1973.678	256.625
1976.435	265.29167
1979.19	261.625
1981.944	258.29167
1984.696	253.95833
1987.445	244.95833
1990.193	254.29167
1992.939	269.625
1995.683	256.625
1998.425	234.625
2001.165	267.95833
2003.903	239.625
2006.639	251.95833
2009.374	251.95833
2012.106	257.29167
2014.837	231.625
2017.566	255.95833
2020.292	244.95833
2023.017	245.625
2025.74	241.625
2028.461	236.95833
2031.18	248.95833
2033.898	232.29167
2036.613	244.625
2039.327	245.95833
2042.038	233.625
2044.748	244.95833
2047.456	247.29167
2050.162	231.625
2052.866	236.29167
2055.568	251.29167
2058.268	237.625
2060.967	243.625
2063.663	225.625
2066.358	224.625
2069.051	221.95833
2071.742	227.95833
2074.431	239.29167
2077.118	229.29167
2079.804	224.95833
2082.487	231.95833
2085.169	238.625
2087.849	254.29167
2090.527	224.625
2093.203	227.625
2095.877	235.95833
2098.55	227.95833
2101.22	235.95833
2103.889	240.29167
2106.556	230.625
2109.221	244.95833
2111.884	235.625
2114.546	261.29167
2117.205	257.625
2119.863	295.95833
2122.519	286.29167
2125.173	303.625
2127.825	328.625
2130.475	331.29167
2133.124	311.29167
2135.771	306.29167
2138.416	309.95833
2141.059	277.625
2143.7	287.625
2146.339	260.95833
2148.977	234.29167
2151.613	249.29167
2154.247	246.625
2156.879	237.95833
2159.51	223.625
2162.138	230.625
2164.765	223.625
2167.39	213.29167
2170.013	237.29167
2172.634	235.625
2175.254	216.29167
2177.872	250.95833
2180.488	207.625
2183.102	215.95833
2185.714	207.625
2188.325	200.29167
2190.934	215.95833
2193.541	214.95833
2196.146	204.625
2198.75	192.95833
2201.351	197.625
2203.951	191.625
2206.549	209.29167
2209.146	196.95833
2211.74	192.95833
2214.333	209.29167
2216.924	192.625
2219.514	197.625
2222.101	192.29167
2224.687	205.95833
2227.271	184.625
2229.853	189.29167
2232.433	167.625
2235.012	194.29167
2237.589	194.625
2240.164	206.95833
2242.738	188.95833
2245.309	182.29167
2247.879	199.29167
2250.448	191.29167
2253.014	183.29167
2255.579	172.29167
2258.142	181.95833
2260.703	177.95833
2263.262	173.625
2265.82	166.29167
2268.376	187.29167
2270.93	179.29167
2273.483	169.625
2276.033	180.95833
2278.583	171.625
2281.13	178.625
2283.675	165.625
2286.219	168.625
2288.761	173.625
2291.302	179.625
2293.841	182.29167
2296.377	161.29167
2298.913	174.95833
2301.446	186.95833
2303.978	170.95833
2306.508	167.29167
2309.037	177.625
2311.563	167.625
2314.088	170.29167
2316.612	153.625
2319.133	165.95833
2321.653	174.95833
2324.171	158.625
2326.688	180.29167
2329.202	170.95833
2331.715	169.95833
2334.227	167.29167
2336.736	163.625
2339.244	159.625
2341.751	151.95833
2344.255	162.29167
2346.758	162.29167
2349.259	150.29167
2351.759	160.95833
2354.257	152.625
2356.753	151.95833
2359.247	151.625
2361.74	161.29167
2364.231	160.95833
2366.721	160.625
2369.209	155.95833
2371.695	155.95833
2374.179	149.625
2376.662	139.95833
2379.143	167.625
2381.622	151.625
2384.1	165.29167
2386.576	149.625
2389.051	164.95833
2391.524	163.625
2393.995	161.95833
2396.464	151.29167
2398.932	148.29167
2401.398	155.29167
2403.863	151.625
2406.325	145.625
2408.787	152.29167
2411.246	146.95833
2413.704	149.95833
2416.16	144.95833
2418.615	174.625
2421.068	421.29167
2423.519	187.95833
2425.969	147.625
2428.417	159.95833
2430.863	166.29167
2433.308	154.625
2435.751	155.95833
2438.193	144.625
2440.633	151.95833
2443.071	152.625
2445.508	141.95833
2447.943	144.29167
2450.376	145.29167
2452.808	154.29167
2455.238	138.29167
2457.667	167.29167
2460.093	136.95833
2462.519	131.625
2464.942	134.625
2467.365	144.625
2469.785	145.625
2472.204	135.625
2474.621	139.625
2477.037	159.625
2479.451	133.29167
2481.863	129.29167
2484.274	137.625
2486.683	139.29167
2489.091	150.29167
2491.497	140.29167
2493.901	144.625
2496.304	141.29167
2498.705	146.625
2501.105	141.95833
2503.503	157.29167
2505.899	130.95833
2508.294	151.95833
2510.687	128.29167
2513.079	135.95833
2515.469	131.625
2517.858	134.625
2520.245	153.625
2522.63	138.625
2525.014	129.29167
2527.396	128.95833
2529.776	131.95833
2532.156	139.95833
2534.533	121.95833
2536.909	124.625
2539.283	119.29167
2541.656	130.95833
2544.027	139.95833
2546.397	133.95833
2548.765	128.625
2551.131	134.625
2553.496	132.29167
2555.86	140.625
2558.221	134.95833
2560.582	125.625
2562.94	117.29167
2565.298	133.625
2567.653	138.625
2570.007	120.29167
2572.36	138.29167
2574.711	120.95833
2577.06	140.625
2579.408	129.95833
2581.754	126.95833
2584.099	127.95833
2586.442	127.625
2588.784	137.29167
2591.124	128.29167
2593.463	126.625
2595.8	130.95833
2598.135	117.625
2600.469	117.29167
2602.802	133.625
2605.133	137.625
2607.462	124.29167
2609.79	117.95833
2612.116	130.625
2614.441	124.95833
2616.764	124.95833
2619.086	124.95833
2621.406	115.29167
2623.725	130.625
2626.042	123.625
2628.358	116.95833
2630.672	125.625
2632.985	133.95833
2635.296	127.95833
2637.606	126.29167
2639.914	116.95833
2642.22	119.95833
2644.525	124.29167
2646.829	127.625
2649.131	137.29167
2651.432	130.625
2653.731	124.29167
2656.028	136.625
2658.324	129.625
2660.619	114.625
2662.912	129.29167
2665.204	111.625
2667.494	127.625
2669.782	115.29167
2672.07	135.29167
2674.355	138.29167
2676.639	125.625
2678.922	118.625
2681.203	129.625
2683.483	120.95833
2685.761	111.29167
2688.038	133.29167
2690.313	138.95833
2692.587	123.95833
2694.859	120.625
2697.13	125.95833
2699.399	125.95833
2701.667	125.95833
2703.933	127.625
2706.198	137.625
2708.461	133.625
2710.723	131.625
2712.984	130.625
2715.243	134.95833
2717.5	128.95833
2719.757	132.625
2722.011	127.29167
2724.264	134.29167
2726.516	141.625
2728.766	121.95833
2731.015	132.29167
2733.262	126.29167
2735.508	127.29167
2737.753	139.29167
2739.996	120.625
2742.237	121.95833
2744.477	128.625
2746.716	139.95833
2748.953	138.29167
2751.189	143.625
2753.423	133.625
2755.656	119.625
2757.887	115.625
2760.117	124.29167
2762.346	120.29167
2764.573	107.95833
2766.798	116.29167
2769.022	121.95833
2771.245	116.95833
2773.467	122.29167
2775.686	118.95833
2777.905	119.95833
2780.122	116.29167
2782.337	126.95833
2784.552	115.95833
2786.764	120.29167
2788.976	120.625
2791.186	122.29167
2793.394	123.29167
2795.601	130.95833
2797.807	136.29167
2800.011	122.625
2802.214	129.625
2804.415	132.29167
2806.615	127.95833
2808.814	133.95833
2811.011	139.29167
2813.206	136.625
2815.401	142.95833
2817.594	140.95833
2819.785	143.625
2821.975	131.625
2824.164	136.29167
2826.351	141.95833
2828.537	148.625
2830.722	151.29167
2832.905	142.29167
2835.086	144.29167
2837.267	167.29167
2839.445	169.95833
2841.623	167.625
2843.799	164.625
2845.974	171.625
2848.147	173.29167
2850.319	183.95833
2852.489	192.95833
2854.659	200.95833
2856.826	190.95833
2858.993	212.625
2861.158	191.29167
2863.321	197.625
2865.483	210.29167
2867.644	207.95833
2869.804	205.95833
2871.962	200.95833
2874.118	204.95833
2876.274	213.95833
2878.428	209.95833
2880.58	215.95833
2882.731	196.95833
2884.881	203.95833
2887.03	208.29167
2889.177	204.95833
2891.322	212.625
2893.467	200.29167
2895.61	198.95833
2897.751	217.95833
2899.892	204.625
2902.03	207.29167
2904.168	209.29167
2906.304	203.95833
2908.439	221.625
2910.572	208.95833
2912.704	206.29167
2914.835	217.625
2916.965	214.29167
2919.093	226.625
2921.219	195.625
2923.345	227.95833
2925.469	212.95833
2927.591	203.29167
2929.712	191.95833
2931.832	203.625
2933.951	199.29167
2936.068	190.95833
2938.184	185.95833
2940.299	188.29167
2942.412	183.95833
2944.524	167.625
2946.634	177.95833
2948.744	154.625
2950.851	189.29167
2952.958	156.29167
2955.063	164.29167
2957.167	154.625
2959.269	143.29167
2961.371	172.95833
2963.471	144.29167
2965.569	157.95833
2967.666	136.95833
2969.762	138.29167
2971.857	132.95833
2973.95	128.625
2976.042	139.95833
2978.133	129.625
2980.222	128.625
2982.31	118.29167
2984.396	106.625
2986.482	111.625
2988.566	117.29167
2990.648	117.29167
2992.73	118.29167
2994.81	103.95833
2996.889	118.625
2998.966	113.95833
3001.042	124.29167
3003.117	108.95833
3005.191	111.95833
3007.263	119.29167
3009.334	109.95833
3011.403	114.95833
3013.472	104.625
3015.539	120.625
3017.604	131.29167
3019.669	101.95833
3021.732	107.29167
3023.794	102.29167
3025.854	97.29167
3027.914	95.95833
3029.971	91.95833
3032.028	99.29167
3034.083	108.95833
3036.137	102.95833
3038.19	92.625
3040.242	85.625
3042.292	87.95833
3044.341	92.625
3046.388	106.625
3048.435	85.95833
3050.48	106.95833
3052.524	92.29167
3054.566	79.625
3056.607	92.95833
3058.647	87.95833
3060.686	77.95833
3062.723	71.625
3064.759	75.625
3066.794	-1.70833
3068.828	0.625
3070.86	4.625
