-0.839	143.83333
3.438	158.83333
7.711	65.5
11.981	47.5
16.247	30.5
20.509	37.83333
24.768	34.5
29.024	47.16667
33.276	29.83333
37.524	40.5
41.769	30.16667
46.01	24.5
50.247	43.83333
54.481	48.16667
58.712	57.5
62.939	37.5
67.162	53.16667
71.382	45.83333
75.599	36.16667
79.812	45.5
84.021	67.16667
88.227	44.5
92.429	51.16667
96.628	38.83333
100.823	54.83333
105.015	55.16667
109.204	44.83333
113.388	60.5
117.57	44.83333
121.748	65.16667
125.922	50.16667
130.093	63.83333
134.261	65.16667
138.425	55.83333
142.585	84.83333
146.742	65.16667
150.896	84.83333
155.046	79.5
159.193	118.5
163.336	171.83333
167.476	295.16667
171.613	531.5
175.746	874.83333
179.875	1300.5
184.002	1673.5
188.124	1973.5
192.244	2081.16667
196.36	2115.5
200.472	2102.16667
204.581	2074.5
208.687	2007.16667
212.79	2018.16667
216.889	2048.5
220.984	2093.83333
225.077	2117.16667
229.165	2108.16667
233.251	2114.5
237.333	2119.83333
241.412	2103.16667
245.487	2107.83333
249.559	2084.83333
253.628	2053.83333
257.694	2042.5
261.756	2056.83333
265.814	2014.5
269.87	1945.5
273.922	1907.16667
277.97	1895.16667
282.016	1861.83333
286.058	1866.83333
290.097	1906.83333
294.132	1908.16667
298.164	1893.16667
302.193	1806.16667
306.219	1731.16667
310.241	1623.83333
314.26	1535.16667
318.276	1461.5
322.288	1423.5
326.297	1392.5
330.303	1354.5
334.305	1347.83333
338.305	1333.5
342.301	1334.16667
346.294	1324.16667
350.283	1321.5
354.269	1317.16667
358.252	1302.5
362.232	1307.83333
366.209	1309.5
370.182	1305.5
374.152	1283.83333
378.119	1308.5
382.083	1295.83333
386.043	1319.5
390	1303.83333
393.954	1319.16667
397.905	1317.83333
401.852	1328.16667
405.797	1303.16667
409.738	1354.83333
413.676	1385.5
417.61	1405.5
421.542	1329.83333
425.47	1294.16667
429.396	1275.16667
433.318	1275.83333
437.236	1275.5
441.152	1301.16667
445.065	1249.16667
448.974	1258.5
452.88	1243.5
456.783	1259.16667
460.683	1248.16667
464.58	1272.83333
468.473	1266.83333
472.364	1261.83333
476.251	1272.16667
480.135	1271.16667
484.016	1294.83333
487.894	1293.16667
491.769	1280.16667
495.641	1289.5
499.509	1296.5
503.375	1293.83333
507.237	1280.16667
511.096	1278.5
514.952	1278.16667
518.805	1268.16667
522.655	1267.5
526.502	1280.5
530.346	1280.16667
534.187	1290.16667
538.024	1272.83333
541.859	1270.83333
545.69	1303.83333
549.519	1292.16667
553.344	1276.5
557.166	1250.16667
560.985	1255.16667
564.802	1252.5
568.615	1241.5
572.425	1212.16667
576.232	1215.83333
580.036	1215.5
583.836	1222.83333
587.634	1219.83333
591.429	1217.16667
595.221	1245.83333
599.01	1239.5
602.796	1247.16667
606.578	1255.16667
610.358	1249.5
614.135	1239.83333
617.909	1248.16667
621.679	1235.16667
625.447	1228.5
629.212	1233.83333
632.973	1238.83333
636.732	1218.83333
640.488	1228.83333
644.241	1206.5
647.991	1195.5
651.737	1232.5
655.481	1199.16667
659.222	1208.83333
662.96	1200.83333
666.695	1215.83333
670.427	1211.5
674.156	1235.5
677.882	1211.83333
681.605	1217.83333
685.325	1200.16667
689.043	1231.83333
692.757	1199.16667
696.468	1200.83333
700.177	1194.16667
703.882	1174.83333
707.585	1181.5
711.284	1182.5
714.981	1156.83333
718.675	1159.5
722.366	1193.16667
726.054	1155.83333
729.739	1151.16667
733.421	1168.5
737.1	1167.5
740.777	1180.16667
744.45	1165.5
748.121	1169.83333
751.789	1207.5
755.453	1169.5
759.115	1191.16667
762.774	1193.16667
766.431	1178.5
770.084	1191.5
773.734	1181.83333
777.382	1210.83333
781.027	1196.83333
784.669	1214.5
788.308	1197.5
791.944	1213.5
795.577	1228.5
799.208	1228.5
802.835	1240.16667
806.46	1225.16667
810.082	1244.5
813.701	1227.5
817.317	1257.16667
820.931	1241.16667
824.542	1246.16667
828.149	1229.83333
831.754	1205.16667
835.357	1196.5
838.956	1229.5
842.553	1226.5
846.146	1218.16667
849.737	1190.16667
853.326	1183.5
856.911	1178.5
860.493	1194.5
864.073	1203.5
867.65	1260.5
871.225	1264.16667
874.796	1191.16667
878.365	1194.83333
881.931	1214.16667
885.494	1219.5
889.054	1221.16667
892.612	1208.16667
896.166	1192.5
899.719	1189.16667
903.268	1157.83333
906.814	1172.83333
910.358	1151.5
913.899	1159.83333
917.438	1143.5
920.973	1132.83333
924.506	1154.83333
928.036	1170.5
931.564	1185.83333
935.088	1188.16667
938.61	1189.5
942.129	1178.5
945.646	1185.5
949.16	1209.83333
952.671	1205.16667
956.179	1238.83333
959.685	1223.5
963.188	1223.5
966.688	1202.5
970.185	1163.83333
973.68	1153.5
977.173	1144.83333
980.662	1133.5
984.149	1141.16667
987.633	1121.16667
991.114	1138.83333
994.593	1167.16667
998.069	1166.5
1001.542	1196.16667
1005.013	1195.5
1008.481	1121.5
1011.947	1115.16667
1015.409	1091.83333
1018.869	1102.83333
1022.327	1104.16667
1025.782	1084.16667
1029.234	1073.5
1032.683	1062.5
1036.13	1041.5
1039.574	1008.16667
1043.016	999.83333
1046.455	990.83333
1049.891	957.5
1053.325	980.5
1056.756	963.5
1060.184	985.83333
1063.61	964.5
1067.033	978.5
1070.454	970.16667
1073.872	986.83333
1077.287	966.16667
1080.7	985.16667
1084.11	983.16667
1087.517	966.83333
1090.922	961.83333
1094.325	933.16667
1097.724	936.5
1101.122	937.16667
1104.516	938.16667
1107.908	903.5
1111.298	933.83333
1114.684	939.16667
1118.069	943.5
1121.45	958.83333
1124.83	937.16667
1128.206	961.16667
1131.58	965.16667
1134.951	981.83333
1138.32	1001.16667
1141.687	1027.83333
1145.05	1048.5
1148.412	1037.5
1151.77	1022.83333
1155.126	1032.16667
1158.48	1014.16667
1161.831	1022.16667
1165.18	1039.16667
1168.525	1044.5
1171.869	1061.5
1175.21	1043.5
1178.548	1069.16667
1181.884	1061.16667
1185.217	1069.5
1188.548	1092.5
1191.877	1123.5
1195.202	1146.83333
1198.526	1177.16667
1201.846	1157.16667
1205.165	1177.5
1208.48	1177.83333
1211.794	1174.16667
1215.104	1171.83333
1218.413	1161.16667
1221.719	1152.5
1225.022	1146.16667
1228.323	1123.16667
1231.621	1130.83333
1234.917	1127.83333
1238.21	1139.83333
1241.501	1124.83333
1244.79	1105.83333
1248.076	1105.16667
1251.359	1117.83333
1254.64	1150.83333
1257.919	1145.83333
1261.195	1152.16667
1264.468	1171.83333
1267.74	1180.83333
1271.008	1180.5
1274.275	1177.16667
1277.538	1172.16667
1280.8	1170.5
1284.059	1158.16667
1287.315	1184.16667
1290.569	1172.16667
1293.821	1193.5
1297.07	1201.83333
1300.317	1209.16667
1303.562	1191.16667
1306.803	1181.5
1310.043	1178.83333
1313.28	1166.83333
1316.515	1142.83333
1319.747	1148.16667
1322.977	1139.5
1326.204	1146.5
1329.429	1128.16667
1332.652	1133.83333
1335.872	1125.5
1339.09	1120.16667
1342.306	1106.16667
1345.519	1114.16667
1348.729	1103.5
1351.938	1111.83333
1355.144	1101.5
1358.347	1077.5
1361.548	1071.5
1364.747	1076.5
1367.944	1051.16667
1371.138	1067.16667
1374.329	1062.83333
1377.518	1070.5
1380.705	1060.5
1383.89	1074.5
1387.072	1041.83333
1390.252	1004.16667
1393.429	988.83333
1396.605	967.83333
1399.777	931.83333
1402.948	932.5
1406.116	909.16667
1409.282	926.83333
1412.445	918.5
1415.606	912.83333
1418.765	931.5
1421.921	936.83333
1425.075	943.16667
1428.227	970.83333
1431.376	1017.16667
1434.524	1029.5
1437.668	1050.83333
1440.811	1055.16667
1443.951	1073.16667
1447.089	1069.5
1450.224	1071.5
1453.357	1058.16667
1456.488	1048.16667
1459.617	1049.16667
1462.743	1033.16667
1465.867	991.16667
1468.989	998.5
1472.108	977.83333
1475.225	962.5
1478.34	937.83333
1481.453	940.83333
1484.563	939.83333
1487.671	941.5
1490.776	960.5
1493.88	959.16667
1496.981	981.5
1500.08	995.5
1503.176	994.5
1506.271	1010.16667
1509.363	1025.16667
1512.452	1008.83333
1515.54	1026.83333
1518.625	1036.5
1521.708	1068.83333
1524.789	1095.5
1527.867	1138.5
1530.944	1191.83333
1534.018	1223.83333
1537.089	1274.83333
1540.159	1286.16667
1543.226	1295.16667
1546.291	1260.83333
1549.354	1238.5
1552.415	1208.16667
1555.473	1176.83333
1558.529	1169.16667
1561.583	1143.16667
1564.634	1122.5
1567.684	1133.16667
1570.731	1129.16667
1573.776	1141.83333
1576.819	1150.16667
1579.859	1150.16667
1582.898	1177.5
1585.934	1178.83333
1588.968	1192.16667
1591.999	1181.83333
1595.029	1178.16667
1598.056	1177.5
1601.081	1209.83333
1604.104	1199.83333
1607.125	1178.83333
1610.144	1164.83333
1613.16	1132.83333
1616.174	1107.83333
1619.186	1088.5
1622.196	1071.5
1625.203	1030.83333
1628.209	1046.5
1631.212	1030.16667
1634.213	1043.5
1637.212	1049.16667
1640.209	1030.16667
1643.203	1009.83333
1646.196	975.83333
1649.186	944.83333
1652.174	944.5
1655.16	902.16667
1658.144	910.83333
1661.125	853.83333
1664.105	829.83333
1667.082	808.83333
1670.057	760.83333
1673.03	722.16667
1676.001	686.16667
1678.97	644.5
1681.937	612.16667
1684.901	586.16667
1687.863	579.83333
1690.824	540.83333
1693.782	554.5
1696.738	519.83333
1699.692	518.16667
1702.643	502.16667
1705.593	514.16667
1708.54	501.83333
1711.486	509.5
1714.429	473.5
1717.37	495.83333
1720.309	474.83333
1723.246	487.16667
1726.181	481.83333
1729.113	464.83333
1732.044	473.83333
1734.972	457.16667
1737.899	478.83333
1740.823	475.16667
1743.745	488.5
1746.665	441.5
1749.583	439.5
1752.499	438.16667
1755.413	448.5
1758.325	420.5
1761.235	435.16667
1764.142	413.83333
1767.048	415.5
1769.951	427.16667
1772.852	413.83333
1775.752	435.16667
1778.649	452.83333
1781.544	436.16667
1784.437	404.83333
1787.328	411.83333
1790.217	409.16667
1793.104	387.83333
1795.989	395.16667
1798.872	388.83333
1801.753	404.16667
1804.631	393.5
1807.508	402.16667
1810.383	398.83333
1813.255	394.5
1816.126	384.16667
1818.994	388.83333
1821.861	385.83333
1824.725	386.16667
1827.587	391.83333
1830.448	384.83333
1833.306	363.83333
1836.162	387.83333
1839.017	372.5
1841.869	376.5
1844.719	365.5
1847.567	359.5
1850.414	360.83333
1853.258	352.83333
1856.1	371.83333
1858.94	376.83333
1861.778	358.5
1864.614	353.5
1867.448	360.5
1870.28	346.5
1873.111	378.83333
1875.939	365.16667
1878.765	372.5
1881.589	359.83333
1884.411	356.5
1887.231	364.16667
1890.049	353.5
1892.865	362.5
1895.68	345.83333
1898.492	360.16667
1901.302	350.83333
1904.11	349.83333
1906.916	344.16667
1909.721	340.5
1912.523	355.16667
1915.323	342.5
1918.122	338.16667
1920.918	357.5
1923.712	331.16667
1926.505	339.5
1929.295	319.5
1932.084	340.83333
1934.87	338.83333
1937.655	330.16667
1940.438	323.83333
1943.218	330.83333
1945.997	335.5
1948.774	338.16667
1951.549	342.5
1954.322	324.5
1957.093	327.16667
1959.862	320.5
1962.629	320.5
1965.394	319.5
1968.157	311.5
1970.918	328.83333
1973.678	311.16667
1976.435	322.16667
1979.19	313.16667
1981.944	299.83333
1984.696	316.83333
1987.445	309.83333
1990.193	311.83333
1992.939	318.83333
1995.683	309.16667
1998.425	284.5
2001.165	328.16667
2003.903	290.83333
2006.639	301.83333
2009.374	307.5
2012.106	308.83333
2014.837	285.5
2017.566	312.5
2020.292	304.83333
2023.017	288.16667
2025.74	292.83333
2028.461	286.83333
2031.18	294.83333
2033.898	289.16667
2036.613	294.83333
2039.327	296.83333
2042.038	286.83333
2044.748	288.83333
2047.456	294.5
2050.162	278.5
2052.866	285.5
2055.568	294.83333
2058.268	276.16667
2060.967	291.5
2063.663	272.5
2066.358	277.83333
2069.051	273.83333
2071.742	283.83333
2074.431	290.5
2077.118	282.5
2079.804	267.5
2082.487	272.83333
2085.169	287.5
2087.849	298.16667
2090.527	273.16667
2093.203	283.16667
2095.877	284.5
2098.55	276.5
2101.22	289.16667
2103.889	292.16667
2106.556	286.5
2109.221	299.5
2111.884	298.5
2114.546	316.5
2117.205	321.5
2119.863	365.83333
2122.519	353.5
2125.173	379.16667
2127.825	404.83333
2130.475	414.5
2133.124	395.83333
2135.771	374.83333
2138.416	388.83333
2141.059	352.83333
2143.7	352.5
2146.339	328.83333
2148.977	299.5
2151.613	313.83333
2154.247	308.83333
2156.879	290.16667
2159.51	283.5
2162.138	275.83333
2164.765	272.5
2167.39	264.16667
2170.013	286.83333
2172.634	278.83333
2175.254	265.83333
2177.872	300.83333
2180.488	252.5
2183.102	264.83333
2185.714	264.5
2188.325	246.16667
2190.934	256.16667
2193.541	260.5
2196.146	244.16667
2198.75	234.16667
2201.351	241.83333
2203.951	221.5
2206.549	248.83333
2209.146	238.83333
2211.74	229.16667
2214.333	241.5
2216.924	225.16667
2219.514	230.16667
2222.101	228.83333
2224.687	240.83333
2227.271	221.5
2229.853	223.16667
2232.433	215.83333
2235.012	236.5
2237.589	225.16667
2240.164	238.5
2242.738	223.5
2245.309	215.5
2247.879	234.5
2250.448	224.5
2253.014	210.83333
2255.579	201.5
2258.142	211.83333
2260.703	218.5
2263.262	217.16667
2265.82	206.16667
2268.376	214.83333
2270.93	205.5
2273.483	200.83333
2276.033	216.16667
2278.583	207.16667
2281.13	205.5
2283.675	197.83333
2286.219	203.5
2288.761	207.5
2291.302	212.5
2293.841	218.16667
2296.377	197.83333
2298.913	206.5
2301.446	212.5
2303.978	203.5
2306.508	203.5
2309.037	201.83333
2311.563	197.16667
2314.088	204.16667
2316.612	188.5
2319.133	202.5
2321.653	201.83333
2324.171	188.5
2326.688	203.83333
2329.202	199.16667
2331.715	194.5
2334.227	186.5
2336.736	191.5
2339.244	186.16667
2341.751	184.83333
2344.255	196.16667
2346.758	190.5
2349.259	180.16667
2351.759	198.5
2354.257	179.5
2356.753	180.16667
2359.247	181.16667
2361.74	186.83333
2364.231	184.83333
2366.721	193.5
2369.209	177.16667
2371.695	183.5
2374.179	176.5
2376.662	167.5
2379.143	193.83333
2381.622	179.16667
2384.1	187.16667
2386.576	177.5
2389.051	194.83333
2391.524	191.5
2393.995	189.5
2396.464	175.83333
2398.932	174.16667
2401.398	178.83333
2403.863	169.16667
2406.325	175.5
2408.787	178.83333
2411.246	170.16667
2413.704	175.16667
2416.16	167.83333
2418.615	169.16667
2421.068	177.16667
2423.519	170.83333
2425.969	161.83333
2428.417	184.83333
2430.863	192.16667
2433.308	178.5
2435.751	177.16667
2438.193	170.83333
2440.633	172.5
2443.071	178.16667
2445.508	164.83333
2447.943	165.83333
2450.376	163.16667
2452.808	169.16667
2455.238	157.83333
2457.667	188.83333
2460.093	155.16667
2462.519	150.5
2464.942	158.83333
2467.365	165.16667
2469.785	168.16667
2472.204	158.5
2474.621	156.16667
2477.037	178.83333
2479.451	154.16667
2481.863	154.5
2484.274	155.5
2486.683	159.16667
2489.091	171.16667
2491.497	163.5
2493.901	163.5
2496.304	159.5
2498.705	167.83333
2501.105	161.83333
2503.503	180.16667
2505.899	147.83333
2508.294	177.83333
2510.687	151.5
2513.079	153.83333
2515.469	150.5
2517.858	154.5
2520.245	164.83333
2522.63	155.5
2525.014	153.83333
2527.396	145.16667
2529.776	153.5
2532.156	155.16667
2534.533	142.83333
2536.909	145.5
2539.283	128.5
2541.656	143.5
2544.027	163.83333
2546.397	151.16667
2548.765	149.83333
2551.131	145.83333
2553.496	152.16667
2555.86	151.83333
2558.221	151.83333
2560.582	140.5
2562.94	137.5
2565.298	142.83333
2567.653	156.5
2570.007	138.16667
2572.36	154.16667
2574.711	141.5
2577.06	156.83333
2579.408	145.5
2581.754	139.83333
2584.099	143.83333
2586.442	135.5
2588.784	150.16667
2591.124	145.83333
2593.463	141.16667
2595.8	151.16667
2598.135	131.83333
2600.469	134.83333
2602.802	149.5
2605.133	152.5
2607.462	135.83333
2609.79	130.83333
2612.116	145.83333
2614.441	133.83333
2616.764	143.83333
2619.086	141.5
2621.406	130.83333
2623.725	147.16667
2626.042	136.83333
2628.358	129.5
2630.672	138.16667
2632.985	146.16667
2635.296	137.16667
2637.606	138.16667
2639.914	132.83333
2642.22	129.83333
2644.525	134.16667
2646.829	140.16667
2649.131	151.16667
2651.432	144.5
2653.731	131.16667
2656.028	144.5
2658.324	139.83333
2660.619	124.16667
2662.912	143.83333
2665.204	124.5
2667.494	140.5
2669.782	130.16667
2672.07	148.83333
2674.355	150.83333
2676.639	139.5
2678.922	130.83333
2681.203	142.16667
2683.483	128.83333
2685.761	123.5
2688.038	145.16667
2690.313	148.83333
2692.587	138.16667
2694.859	133.5
2697.13	137.16667
2699.399	136.5
2701.667	146.16667
2703.933	141.16667
2706.198	143.5
2708.461	142.83333
2710.723	145.5
2712.984	137.5
2715.243	148.83333
2717.5	141.83333
2719.757	151.5
2722.011	138.83333
2724.264	143.83333
2726.516	152.5
2728.766	141.83333
2731.015	142.16667
2733.262	141.16667
2735.508	134.16667
2737.753	140.5
2739.996	126.83333
2742.237	130.83333
2744.477	146.16667
2746.716	153.83333
2748.953	148.16667
2751.189	145.5
2753.423	142.5
2755.656	133.16667
2757.887	128.5
2760.117	130.16667
2762.346	128.5
2764.573	122.16667
2766.798	121.83333
2769.022	133.83333
2771.245	118.16667
2773.467	128.16667
2775.686	124.16667
2777.905	130.5
2780.122	128.5
2782.337	136.5
2784.552	127.16667
2786.764	126.83333
2788.976	124.83333
2791.186	137.16667
2793.394	134.83333
2795.601	139.83333
2797.807	148.5
2800.011	136.16667
2802.214	143.16667
2804.415	139.83333
2806.615	142.83333
2808.814	140.5
2811.011	152.16667
2813.206	148.5
2815.401	155.83333
2817.594	152.83333
2819.785	160.5
2821.975	145.16667
2824.164	153.16667
2826.351	150.16667
2828.537	160.5
2830.722	165.16667
2832.905	158.16667
2835.086	165.16667
2837.267	185.5
2839.445	180.83333
2841.623	182.5
2843.799	182.16667
2845.974	197.16667
2848.147	194.16667
2850.319	204.16667
2852.489	217.5
2854.659	216.5
2856.826	214.83333
2858.993	232.5
2861.158	213.16667
2863.321	219.83333
2865.483	236.5
2867.644	229.83333
2869.804	232.83333
2871.962	224.83333
2874.118	231.16667
2876.274	243.16667
2878.428	242.83333
2880.58	243.16667
2882.731	221.5
2884.881	234.5
2887.03	233.5
2889.177	228.5
2891.322	237.83333
2893.467	226.83333
2895.61	226.16667
2897.751	240.16667
2899.892	233.5
2902.03	234.83333
2904.168	228.83333
2906.304	229.5
2908.439	248.5
2910.572	219.83333
2912.704	239.16667
2914.835	238.83333
2916.965	242.5
2919.093	249.5
2921.219	222.83333
2923.345	250.5
2925.469	230.83333
2927.591	226.16667
2929.712	217.83333
2931.832	227.83333
2933.951	225.16667
2936.068	211.5
2938.184	210.16667
2940.299	207.16667
2942.412	202.16667
2944.524	184.83333
2946.634	199.83333
2948.744	172.83333
2950.851	197.5
2952.958	172.16667
2955.063	175.83333
2957.167	168.83333
2959.269	154.5
2961.371	182.16667
2963.471	155.83333
2965.569	168.83333
2967.666	142.16667
2969.762	141.16667
2971.857	133.16667
2973.95	134.5
2976.042	140.83333
2978.133	132.16667
2980.222	128.5
2982.31	121.5
2984.396	111.5
2986.482	114.16667
2988.566	122.5
2990.648	116.83333
2992.73	117.16667
2994.81	103.16667
2996.889	122.16667
2998.966	112.16667
3001.042	126.83333
3003.117	110.83333
3005.191	118.16667
3007.263	117.16667
3009.334	112.83333
3011.403	116.5
3013.472	106.5
3015.539	117.5
3017.604	126.83333
3019.669	99.5
3021.732	105.83333
3023.794	103.5
3025.854	94.83333
3027.914	96.83333
3029.971	95.5
3032.028	96.5
3034.083	107.16667
3036.137	107.5
3038.19	89.5
3040.242	88.83333
3042.292	86.83333
3044.341	92.5
3046.388	109.16667
3048.435	86.5
3050.48	101.5
3052.524	91.83333
3054.566	77.5
3056.607	90.16667
3058.647	85.83333
3060.686	74.16667
3062.723	71.5
3064.759	71.16667
3066.794	-0.5
3068.828	-0.16667
3070.86	1.83333
