-0.839	130.33333
3.438	150
7.711	61.33333
11.981	41.66667
16.247	28.66667
20.509	39
24.768	36
29.024	44
33.276	32
37.524	40.33333
41.769	29.66667
46.01	30.33333
50.247	40.66667
54.481	50.66667
58.712	53.66667
62.939	39.66667
67.162	54
71.382	45
75.599	37.66667
79.812	42.66667
84.021	63.33333
88.227	38.66667
92.429	50.33333
96.628	37.66667
100.823	54
105.015	51.66667
109.204	47
113.388	57.33333
117.57	38.33333
121.748	55.33333
125.922	46
130.093	60.66667
134.261	60.33333
138.425	54
142.585	81
146.742	58.66667
150.896	72.66667
155.046	74.33333
159.193	102
163.336	143.66667
167.476	248.33333
171.613	447
175.746	728
179.875	1035
184.002	1359.33333
188.124	1594
192.244	1651.33333
196.36	1664
200.472	1646.33333
204.581	1636
208.687	1587
212.79	1557
216.889	1595
220.984	1609
225.077	1620.66667
229.165	1632.33333
233.251	1629.66667
237.333	1637.66667
241.412	1628
245.487	1621.33333
249.559	1603.66667
253.628	1571.33333
257.694	1584.33333
261.756	1572
265.814	1553.33333
269.87	1496.33333
273.922	1454.66667
277.97	1442.66667
282.016	1437
286.058	1417.66667
290.097	1458.33333
294.132	1475
298.164	1439.33333
302.193	1381.66667
306.219	1305.66667
310.241	1219.66667
314.26	1155.33333
318.276	1087.66667
322.288	1061.33333
326.297	1014.66667
330.303	998.66667
334.305	987
338.305	961
342.301	966.33333
346.294	968
350.283	959
354.269	944
358.252	949.33333
362.232	949.33333
366.209	948.33333
370.182	932.33333
374.152	932.66667
378.119	947.66667
382.083	939.66667
386.043	945.33333
390	936
393.954	939
397.905	952.33333
401.852	958.66667
405.797	939
409.738	935
413.676	963
417.61	990.66667
421.542	936
425.47	911.33333
429.396	905
433.318	907
437.236	908
441.152	942
445.065	900.33333
448.974	907
452.88	895.33333
456.783	889
460.683	883.66667
464.58	887
468.473	896
472.364	899.66667
476.251	891
480.135	890.33333
484.016	916.66667
487.894	915.66667
491.769	917.66667
495.641	915.66667
499.509	903
503.375	922.33333
507.237	916.66667
511.096	913.33333
514.952	912.33333
518.805	924
522.655	911.33333
526.502	903.33333
530.346	911.66667
534.187	923
538.024	920
541.859	908.33333
545.69	934.33333
549.519	910.66667
553.344	911.33333
557.166	889
560.985	891.33333
564.802	883.66667
568.615	878.66667
572.425	862.33333
576.232	857.66667
580.036	870
583.836	865
587.634	868
591.429	863.66667
595.221	907.66667
599.01	886.33333
602.796	893.66667
606.578	896
610.358	904.33333
614.135	877.66667
617.909	886
621.679	876
625.447	870.33333
629.212	870.33333
632.973	878.33333
636.732	873.33333
640.488	876.33333
644.241	863.66667
647.991	860.66667
651.737	885.66667
655.481	848.66667
659.222	857.66667
662.96	858
666.695	868.33333
670.427	864
674.156	874.66667
677.882	871.33333
681.605	883.66667
685.325	860
689.043	868.33333
692.757	866
696.468	865
700.177	860.66667
703.882	845.66667
707.585	834
711.284	865
714.981	838
718.675	834.33333
722.366	852
726.054	830.66667
729.739	845
733.421	843.33333
737.1	823.66667
740.777	852
744.45	852.66667
748.121	850.33333
751.789	877.66667
755.453	854
759.115	873.66667
762.774	867.66667
766.431	861.66667
770.084	874
773.734	872.66667
777.382	883
781.027	879.33333
784.669	885
788.308	887
791.944	889.33333
795.577	898.33333
799.208	896.33333
802.835	896
806.46	911.66667
810.082	906
813.701	902.33333
817.317	921.33333
820.931	906.66667
824.542	910.66667
828.149	898.33333
831.754	887.66667
835.357	898
838.956	904
842.553	909.33333
846.146	888
849.737	863.66667
853.326	875
856.911	855
860.493	885.33333
864.073	885
867.65	918
871.225	923.66667
874.796	894
878.365	879.66667
881.931	906
885.494	900.66667
889.054	890
892.612	906
896.166	893
899.719	876.66667
903.268	844.33333
906.814	858.33333
910.358	854.33333
913.899	849.66667
917.438	841.66667
920.973	827
924.506	844
928.036	860.66667
931.564	873.33333
935.088	898.33333
938.61	871.66667
942.129	871.66667
945.646	890.33333
949.16	903.33333
952.671	901.66667
956.179	922.66667
959.685	914.66667
963.188	920
966.688	891.33333
970.185	869.33333
973.68	857.33333
977.173	845
980.662	838.33333
984.149	837
987.633	804.33333
991.114	841.66667
994.593	845.66667
998.069	851
1001.542	891
1005.013	878.66667
1008.481	815.33333
1011.947	829.33333
1015.409	810
1018.869	812
1022.327	812.66667
1025.782	796.66667
1029.234	783
1032.683	785.33333
1036.13	770.66667
1039.574	734.66667
1043.016	733.66667
1046.455	713.66667
1049.891	713.33333
1053.325	727
1056.756	719
1060.184	720.33333
1063.61	698
1067.033	721.66667
1070.454	714.33333
1073.872	732.33333
1077.287	715.33333
1080.7	711
1084.11	711
1087.517	699.66667
1090.922	705.33333
1094.325	696
1097.724	688
1101.122	690.66667
1104.516	699
1107.908	673.66667
1111.298	689.33333
1114.684	693.66667
1118.069	685
1121.45	710.66667
1124.83	692.33333
1128.206	699.33333
1131.58	711.33333
1134.951	739
1138.32	745
1141.687	777.66667
1145.05	775.66667
1148.412	774.66667
1151.77	776
1155.126	771.66667
1158.48	763
1161.831	777
1165.18	757
1168.525	784.33333
1171.869	786.66667
1175.21	790
1178.548	811.66667
1181.884	799.33333
1185.217	810
1188.548	837
1191.877	846
1195.202	891.66667
1198.526	902.33333
1201.846	892.33333
1205.165	896
1208.48	903.33333
1211.794	902
1215.104	894.33333
1218.413	889
1221.719	885.66667
1225.022	863
1228.323	855.66667
1231.621	867.66667
1234.917	860.66667
1238.21	878.33333
1241.501	850
1244.79	832.33333
1248.076	834.33333
1251.359	849.33333
1254.64	902.33333
1257.919	863.66667
1261.195	862.66667
1264.468	893.33333
1267.74	904
1271.008	898
1274.275	902.66667
1277.538	884.33333
1280.8	904.33333
1284.059	880.33333
1287.315	898.66667
1290.569	890.66667
1293.821	910
1297.07	904.66667
1300.317	919.66667
1303.562	924
1306.803	910.33333
1310.043	907
1313.28	895.33333
1316.515	883.66667
1319.747	898.66667
1322.977	891.33333
1326.204	877.33333
1329.429	865
1332.652	868.66667
1335.872	860.33333
1339.09	847.33333
1342.306	859
1345.519	847
1348.729	824.33333
1351.938	836.33333
1355.144	805
1358.347	815.66667
1361.548	831
1364.747	832.33333
1367.944	802
1371.138	809.33333
1374.329	813
1377.518	806.33333
1380.705	817.66667
1383.89	808.33333
1387.072	786
1390.252	772.66667
1393.429	745.33333
1396.605	729.66667
1399.777	694.66667
1402.948	688.66667
1406.116	680.66667
1409.282	694
1412.445	694.66667
1415.606	699.33333
1418.765	700.66667
1421.921	716.66667
1425.075	725
1428.227	744
1431.376	763.66667
1434.524	799.66667
1437.668	809
1440.811	811.66667
1443.951	819.66667
1447.089	813
1450.224	811.33333
1453.357	806.66667
1456.488	811
1459.617	799.33333
1462.743	801.33333
1465.867	769.33333
1468.989	761.66667
1472.108	752.33333
1475.225	736.66667
1478.34	737
1481.453	727.66667
1484.563	715.33333
1487.671	729.66667
1490.776	750.33333
1493.88	756.66667
1496.981	763.33333
1500.08	769.33333
1503.176	778.33333
1506.271	782.33333
1509.363	792.33333
1512.452	791
1515.54	794.66667
1518.625	798.66667
1521.708	837
1524.789	860.66667
1527.867	872.66667
1530.944	905.66667
1534.018	934.33333
1537.089	984.33333
1540.159	988.66667
1543.226	994.66667
1546.291	975
1549.354	963.33333
1552.415	947.33333
1555.473	923.33333
1558.529	914.66667
1561.583	901.66667
1564.634	893.66667
1567.684	903.33333
1570.731	893.33333
1573.776	909.33333
1576.819	906.33333
1579.859	903.66667
1582.898	925.66667
1585.934	942.66667
1588.968	956.66667
1591.999	941.66667
1595.029	928
1598.056	953.33333
1601.081	955.66667
1604.104	952.33333
1607.125	939.66667
1610.144	927.33333
1613.16	889.66667
1616.174	868.66667
1619.186	864.33333
1622.196	838.66667
1625.203	816.66667
1628.209	810.66667
1631.212	807.66667
1634.213	821.33333
1637.212	812.66667
1640.209	810.33333
1643.203	775.33333
1646.196	751
1649.186	733.66667
1652.174	726.33333
1655.16	695.66667
1658.144	684
1661.125	661.33333
1664.105	624.33333
1667.082	604.66667
1670.057	577.66667
1673.03	543.33333
1676.001	531
1678.97	488.66667
1681.937	471
1684.901	449.33333
1687.863	448
1690.824	419
1693.782	437
1696.738	389
1699.692	406.66667
1702.643	386
1705.593	383.66667
1708.54	382
1711.486	388.33333
1714.429	362.66667
1717.37	376
1720.309	366.33333
1723.246	369.66667
1726.181	350
1729.113	353.33333
1732.044	355.66667
1734.972	348.66667
1737.899	358.33333
1740.823	369
1743.745	378
1746.665	343.66667
1749.583	333.33333
1752.499	332.66667
1755.413	326
1758.325	316
1761.235	333.33333
1764.142	314.33333
1767.048	306.66667
1769.951	316
1772.852	310
1775.752	327.66667
1778.649	326
1781.544	338
1784.437	304.66667
1787.328	318
1790.217	306.66667
1793.104	285.33333
1795.989	297
1798.872	291
1801.753	307
1804.631	298.33333
1807.508	297.66667
1810.383	292.33333
1813.255	299
1816.126	288.66667
1818.994	283
1821.861	288.66667
1824.725	296
1827.587	290.66667
1830.448	286.66667
1833.306	275.33333
1836.162	293.33333
1839.017	279.66667
1841.869	277
1844.719	285.33333
1847.567	265.33333
1850.414	262
1853.258	267.66667
1856.1	289.33333
1858.94	291.33333
1861.778	275.33333
1864.614	267
1867.448	272
1870.28	255.66667
1873.111	285.66667
1875.939	272.66667
1878.765	289.33333
1881.589	266.33333
1884.411	269
1887.231	277.33333
1890.049	265.66667
1892.865	278.33333
1895.68	268.66667
1898.492	270.33333
1901.302	267
1904.11	264.33333
1906.916	266
1909.721	256
1912.523	267
1915.323	258.66667
1918.122	250
1920.918	263.33333
1923.712	249
1926.505	259.66667
1929.295	240.66667
1932.084	255
1934.87	259.33333
1937.655	248
1940.438	242.33333
1943.218	248.33333
1945.997	255.66667
1948.774	262.66667
1951.549	256
1954.322	248
1957.093	253.33333
1959.862	241.33333
1962.629	252.66667
1965.394	243.66667
1968.157	235.66667
1970.918	251.66667
1973.678	233.33333
1976.435	248
1979.19	238.33333
1981.944	231.66667
1984.696	236.33333
1987.445	234.33333
1990.193	236.66667
1992.939	252.66667
1995.683	238
1998.425	225.66667
2001.165	248
2003.903	229.66667
2006.639	234.66667
2009.374	239
2012.106	244.66667
2014.837	214.33333
2017.566	236
2020.292	229.66667
2023.017	225.66667
2025.74	228.66667
2028.461	221.33333
2031.18	228.66667
2033.898	212.33333
2036.613	224.66667
2039.327	226.33333
2042.038	221.66667
2044.748	219
2047.456	234.33333
2050.162	214.33333
2052.866	223
2055.568	234.33333
2058.268	213.66667
2060.967	220.33333
2063.663	212.33333
2066.358	213.66667
2069.051	205
2071.742	214
2074.431	227
2077.118	210.66667
2079.804	203
2082.487	212.33333
2085.169	224.33333
2087.849	235
2090.527	212.33333
2093.203	215.33333
2095.877	214.33333
2098.55	215.66667
2101.22	226
2103.889	229.33333
2106.556	216.33333
2109.221	235.33333
2111.884	220.66667
2114.546	243
2117.205	244.33333
2119.863	273.66667
2122.519	263
2125.173	285.33333
2127.825	312.33333
2130.475	307.33333
2133.124	295
2135.771	280.66667
2138.416	290.66667
2141.059	265
2143.7	264.33333
2146.339	243
2148.977	220.66667
2151.613	234.33333
2154.247	228.33333
2156.879	219
2159.51	217.66667
2162.138	217.33333
2164.765	209
2167.39	196.66667
2170.013	220
2172.634	213.33333
2175.254	205
2177.872	240
2180.488	197.33333
2183.102	200.33333
2185.714	198.33333
2188.325	186.66667
2190.934	200.66667
2193.541	204
2196.146	194
2198.75	187
2201.351	186
2203.951	170.33333
2206.549	189.66667
2209.146	188.33333
2211.74	185.33333
2214.333	184.66667
2216.924	177.33333
2219.514	183
2222.101	179
2224.687	193.33333
2227.271	175.66667
2229.853	177.33333
2232.433	167.66667
2235.012	186
2237.589	180.66667
2240.164	193.66667
2242.738	179.66667
2245.309	167.66667
2247.879	189.33333
2250.448	185
2253.014	170
2255.579	165
2258.142	171.66667
2260.703	166.33333
2263.262	166.33333
2265.82	157
2268.376	172.66667
2270.93	166
2273.483	155
2276.033	171.66667
2278.583	163.33333
2281.13	156.66667
2283.675	152.66667
2286.219	161.33333
2288.761	168.33333
2291.302	170
2293.841	171.66667
2296.377	152.66667
2298.913	170.33333
2301.446	170
2303.978	160.66667
2306.508	166
2309.037	168
2311.563	156.33333
2314.088	166
2316.612	145.66667
2319.133	159.33333
2321.653	159
2324.171	153.33333
2326.688	166.33333
2329.202	157.66667
2331.715	156.33333
2334.227	158.33333
2336.736	153
2339.244	151
2341.751	138.33333
2344.255	163.33333
2346.758	154
2349.259	146
2351.759	151
2354.257	144
2356.753	146
2359.247	145.33333
2361.74	146.66667
2364.231	145
2366.721	151.66667
2369.209	146.66667
2371.695	148.33333
2374.179	143
2376.662	132.66667
2379.143	154
2381.622	139.33333
2384.1	153.66667
2386.576	142
2389.051	156
2391.524	155.33333
2393.995	148.33333
2396.464	145.33333
2398.932	134.33333
2401.398	145.66667
2403.863	146.33333
2406.325	140
2408.787	144
2411.246	144.66667
2413.704	137.33333
2416.16	140.33333
2418.615	138.66667
2421.068	140.33333
2423.519	138.33333
2425.969	133.66667
2428.417	151.66667
2430.863	156.66667
2433.308	143.33333
2435.751	148
2438.193	139.66667
2440.633	141.33333
2443.071	148.33333
2445.508	135.66667
2447.943	135.66667
2450.376	135.33333
2452.808	146.33333
2455.238	130.66667
2457.667	161.33333
2460.093	130.33333
2462.519	122.66667
2464.942	130.66667
2467.365	138.66667
2469.785	143.33333
2472.204	127
2474.621	130.33333
2477.037	150.33333
2479.451	121.66667
2481.863	122
2484.274	125.33333
2486.683	134
2489.091	144.66667
2491.497	144.33333
2493.901	134.33333
2496.304	132
2498.705	139.66667
2501.105	134.33333
2503.503	150.66667
2505.899	121.33333
2508.294	151
2510.687	121.33333
2513.079	129.33333
2515.469	125
2517.858	124.66667
2520.245	139.66667
2522.63	124
2525.014	121.33333
2527.396	125.66667
2529.776	125.66667
2532.156	133.33333
2534.533	115
2536.909	122.66667
2539.283	106.33333
2541.656	119.66667
2544.027	132
2546.397	128
2548.765	126
2551.131	125
2553.496	129.33333
2555.86	130
2558.221	129.33333
2560.582	120
2562.94	113
2565.298	122.66667
2567.653	131.66667
2570.007	112.66667
2572.36	133.66667
2574.711	120
2577.06	136.66667
2579.408	121.33333
2581.754	117
2584.099	118
2586.442	123.33333
2588.784	127
2591.124	123
2593.463	116.33333
2595.8	116
2598.135	109
2600.469	108.33333
2602.802	130.33333
2605.133	128.66667
2607.462	109.66667
2609.79	109
2612.116	126.66667
2614.441	115.66667
2616.764	123
2619.086	118
2621.406	115
2623.725	128
2626.042	117.33333
2628.358	110.66667
2630.672	119.33333
2632.985	129.33333
2635.296	122
2637.606	116.33333
2639.914	113.33333
2642.22	112.66667
2644.525	120.33333
2646.829	118.66667
2649.131	132.66667
2651.432	125.33333
2653.731	112.33333
2656.028	129
2658.324	122.66667
2660.619	107.33333
2662.912	121.66667
2665.204	105.66667
2667.494	122
2669.782	112.33333
2672.07	128.33333
2674.355	130.66667
2676.639	120.33333
2678.922	116.66667
2681.203	117.66667
2683.483	114.66667
2685.761	105.66667
2688.038	125.66667
2690.313	133.66667
2692.587	122.33333
2694.859	115.66667
2697.13	124.66667
2699.399	122.66667
2701.667	123.66667
2703.933	124.33333
2706.198	127.66667
2708.461	131.33333
2710.723	124.33333
2712.984	122.66667
2715.243	131.66667
2717.5	122
2719.757	128
2722.011	117
2724.264	123.33333
2726.516	134.66667
2728.766	116
2731.015	122.33333
2733.262	122
2735.508	121.33333
2737.753	126.33333
2739.996	113
2742.237	115
2744.477	128.33333
2746.716	132.33333
2748.953	127
2751.189	134
2753.423	124.66667
2755.656	116.66667
2757.887	116
2760.117	118
2762.346	108.33333
2764.573	106.33333
2766.798	112
2769.022	113.33333
2771.245	112
2773.467	119.33333
2775.686	115
2777.905	117
2780.122	116.66667
2782.337	123.66667
2784.552	106.66667
2786.764	115
2788.976	113.33333
2791.186	123.33333
2793.394	119
2795.601	127.66667
2797.807	128.66667
2800.011	127.66667
2802.214	134.66667
2804.415	125.66667
2806.615	128
2808.814	129.66667
2811.011	133.33333
2813.206	131.33333
2815.401	135.66667
2817.594	135
2819.785	138
2821.975	122.66667
2824.164	132.66667
2826.351	127.66667
2828.537	145
2830.722	149.66667
2832.905	138.33333
2835.086	143.66667
2837.267	164.66667
2839.445	154
2841.623	157.66667
2843.799	160.33333
2845.974	165.33333
2848.147	166.33333
2850.319	179.66667
2852.489	179.33333
2854.659	186
2856.826	182.33333
2858.993	206.66667
2861.158	178.33333
2863.321	189.33333
2865.483	208
2867.644	201.33333
2869.804	202
2871.962	194.66667
2874.118	199.66667
2876.274	211.66667
2878.428	198.33333
2880.58	201.66667
2882.731	191.66667
2884.881	192.33333
2887.03	200
2889.177	199
2891.322	204
2893.467	192.66667
2895.61	189.66667
2897.751	211.66667
2899.892	194
2902.03	201.66667
2904.168	200
2906.304	195.66667
2908.439	212.33333
2910.572	189
2912.704	206.66667
2914.835	206.66667
2916.965	206.66667
2919.093	222.66667
2921.219	195
2923.345	228.33333
2925.469	203
2927.591	196.66667
2929.712	186.66667
2931.832	195.33333
2933.951	192.33333
2936.068	190
2938.184	183.33333
2940.299	176
2942.412	180
2944.524	162.66667
2946.634	172.33333
2948.744	145
2950.851	183
2952.958	154
2955.063	161.66667
2957.167	154.66667
2959.269	136
2961.371	170.66667
2963.471	142
2965.569	158
2967.666	126.66667
2969.762	130.33333
2971.857	127.66667
2973.95	123
2976.042	138
2978.133	126
2980.222	123
2982.31	118
2984.396	101
2986.482	103
2988.566	114.33333
2990.648	114
2992.73	113
2994.81	101
2996.889	119
2998.966	108
3001.042	121.66667
3003.117	103.66667
3005.191	118.33333
3007.263	116.33333
3009.334	110
3011.403	107.33333
3013.472	105.33333
3015.539	119
3017.604	130.33333
3019.669	97
3021.732	102.66667
3023.794	104.33333
3025.854	94.33333
3027.914	90.66667
3029.971	90
3032.028	98.66667
3034.083	106.33333
3036.137	102
3038.19	90.66667
3040.242	87.33333
3042.292	83.66667
3044.341	91.33333
3046.388	106.33333
3048.435	84
3050.48	101
3052.524	92
3054.566	77.66667
3056.607	93
3058.647	88.66667
3060.686	74
3062.723	67.66667
3064.759	73
3066.794	0
3068.828	1
3070.86	3.66667
