-0.839	145.5
3.438	157.5
7.711	67.16667
11.981	44.16667
16.247	32.83333
20.509	35.5
24.768	37.16667
29.024	42.83333
33.276	33.5
37.524	44.5
41.769	31.5
46.01	28.83333
50.247	44.16667
54.481	54.83333
58.712	53.5
62.939	42.83333
67.162	55.83333
71.382	48.16667
75.599	38.5
79.812	44.5
84.021	62.5
88.227	43.5
92.429	56.83333
96.628	40.16667
100.823	53.5
105.015	51.16667
109.204	47.5
113.388	61.83333
117.57	46.83333
121.748	60.83333
125.922	50.16667
130.093	69.16667
134.261	68.16667
138.425	58.5
142.585	83.83333
146.742	68.83333
150.896	83.83333
155.046	83.83333
159.193	125.16667
163.336	183.5
167.476	327.5
171.613	590.5
175.746	954.5
179.875	1406.5
184.002	1854.83333
188.124	2194.16667
192.244	2331.83333
196.36	2355.5
200.472	2343.16667
204.581	2339.5
208.687	2275.16667
212.79	2288.83333
216.889	2328.83333
220.984	2329.83333
225.077	2341.83333
229.165	2343.83333
233.251	2354.5
237.333	2373.83333
241.412	2366.16667
245.487	2345.16667
249.559	2305.5
253.628	2322.16667
257.694	2309.16667
261.756	2322.5
265.814	2272.16667
269.87	2227.5
273.922	2168.16667
277.97	2157.5
282.016	2169.16667
286.058	2139.83333
290.097	2178.5
294.132	2187.16667
298.164	2182.16667
302.193	2103.16667
306.219	2016.83333
310.241	1908.5
314.26	1827.83333
318.276	1755.83333
322.288	1717.5
326.297	1683.5
330.303	1646.16667
334.305	1611.5
338.305	1629.16667
342.301	1622.5
346.294	1615.5
350.283	1618.83333
354.269	1594.5
358.252	1603.16667
362.232	1613.5
366.209	1607.16667
370.182	1591.16667
374.152	1598.5
378.119	1606.5
382.083	1588.5
386.043	1592.16667
390	1608.5
393.954	1620.5
397.905	1622.83333
401.852	1649.5
405.797	1616.16667
409.738	1632.16667
413.676	1681.5
417.61	1726.16667
421.542	1660.83333
425.47	1586.16667
429.396	1596.16667
433.318	1572.16667
437.236	1563.83333
441.152	1634.83333
445.065	1575.16667
448.974	1574.83333
452.88	1544.16667
456.783	1565.5
460.683	1547.5
464.58	1561.83333
468.473	1574.16667
472.364	1568.83333
476.251	1579.83333
480.135	1589.83333
484.016	1614.5
487.894	1601.16667
491.769	1613.5
495.641	1602.5
499.509	1614.83333
503.375	1601.83333
507.237	1590.16667
511.096	1573.16667
514.952	1584.83333
518.805	1587.5
522.655	1567.83333
526.502	1579.16667
530.346	1584.16667
534.187	1596.83333
538.024	1579.5
541.859	1564.5
545.69	1620.83333
549.519	1593.16667
553.344	1569.16667
557.166	1562.83333
560.985	1551.16667
564.802	1555.83333
568.615	1531.83333
572.425	1510.16667
576.232	1517.16667
580.036	1515.5
583.836	1520.5
587.634	1530.5
591.429	1520.83333
595.221	1559.5
599.01	1543.5
602.796	1546.83333
606.578	1545.83333
610.358	1549.5
614.135	1554.5
617.909	1562.5
621.679	1540.83333
625.447	1546.16667
629.212	1538.16667
632.973	1533.5
636.732	1534.83333
640.488	1523.5
644.241	1500.83333
647.991	1496.5
651.737	1509.83333
655.481	1493.16667
659.222	1494.16667
662.96	1488.5
666.695	1493.16667
670.427	1506.5
674.156	1514.83333
677.882	1515.16667
681.605	1500.5
685.325	1491.83333
689.043	1526.83333
692.757	1507.16667
696.468	1488.83333
700.177	1490.16667
703.882	1451.83333
707.585	1450.83333
711.284	1454.83333
714.981	1440.5
718.675	1443.83333
722.366	1441.5
726.054	1440.16667
729.739	1450.16667
733.421	1422.83333
737.1	1433.83333
740.777	1440.5
744.45	1433.83333
748.121	1439.5
751.789	1476.16667
755.453	1443.16667
759.115	1470.5
762.774	1452.16667
766.431	1443.5
770.084	1449.83333
773.734	1433.16667
777.382	1464.5
781.027	1457.16667
784.669	1459.5
788.308	1460.16667
791.944	1476.16667
795.577	1478.5
799.208	1470.5
802.835	1485.5
806.46	1489.16667
810.082	1482.16667
813.701	1490.5
817.317	1505.16667
820.931	1506.5
824.542	1490.16667
828.149	1483.16667
831.754	1449.83333
835.357	1462.16667
838.956	1475.83333
842.553	1495.16667
846.146	1471.16667
849.737	1423.5
853.326	1411.16667
856.911	1401.16667
860.493	1432.5
864.073	1438.16667
867.65	1471.16667
871.225	1482.16667
874.796	1437.5
878.365	1424.5
881.931	1454.16667
885.494	1456.5
889.054	1419.83333
892.612	1420.5
896.166	1420.83333
899.719	1389.16667
903.268	1378.5
906.814	1373.5
910.358	1372.5
913.899	1351.5
917.438	1360.83333
920.973	1322.16667
924.506	1341.83333
928.036	1378.5
931.564	1389.83333
935.088	1406.16667
938.61	1387.83333
942.129	1383.83333
945.646	1400.16667
949.16	1422.83333
952.671	1426.83333
956.179	1424.5
959.685	1419.16667
963.188	1433.5
966.688	1399.16667
970.185	1377.83333
973.68	1333.83333
977.173	1357.83333
980.662	1332.83333
984.149	1341.5
987.633	1322.16667
991.114	1336.16667
994.593	1345.5
998.069	1368.83333
1001.542	1412.83333
1005.013	1399.83333
1008.481	1324.83333
1011.947	1314.16667
1015.409	1284.16667
1018.869	1293.5
1022.327	1286.16667
1025.782	1284.16667
1029.234	1260.16667
1032.683	1247.5
1036.13	1220.16667
1039.574	1189.83333
1043.016	1161.16667
1046.455	1165.83333
1049.891	1135.16667
1053.325	1141.5
1056.756	1141.5
1060.184	1157.16667
1063.61	1145.5
1067.033	1155.83333
1070.454	1142.16667
1073.872	1161.5
1077.287	1130.5
1080.7	1132.83333
1084.11	1141.16667
1087.517	1150.83333
1090.922	1124.5
1094.325	1101.16667
1097.724	1096.16667
1101.122	1097.83333
1104.516	1093.5
1107.908	1076.5
1111.298	1089.5
1114.684	1100.5
1118.069	1103.83333
1121.45	1126.5
1124.83	1101.5
1128.206	1117.5
1131.58	1124.83333
1134.951	1140.16667
1138.32	1147.83333
1141.687	1190.5
1145.05	1209.5
1148.412	1191.16667
1151.77	1192.83333
1155.126	1195.83333
1158.48	1169.83333
1161.831	1169.5
1165.18	1168.5
1168.525	1199.5
1171.869	1195.16667
1175.21	1208.83333
1178.548	1218.83333
1181.884	1227.83333
1185.217	1225.16667
1188.548	1237.16667
1191.877	1251.16667
1195.202	1290.16667
1198.526	1311.83333
1201.846	1315.5
1205.165	1314.5
1208.48	1320.83333
1211.794	1317.83333
1215.104	1320.5
1218.413	1311.5
1221.719	1291.5
1225.022	1291.83333
1228.323	1266.16667
1231.621	1288.16667
1234.917	1265.16667
1238.21	1292.16667
1241.501	1260.16667
1244.79	1261.83333
1248.076	1243.5
1251.359	1251.5
1254.64	1306.5
1257.919	1279.5
1261.195	1304.83333
1264.468	1310.83333
1267.74	1321.16667
1271.008	1323.83333
1274.275	1331.5
1277.538	1316.16667
1280.8	1315.16667
1284.059	1321.83333
1287.315	1313.5
1290.569	1314.5
1293.821	1320.5
1297.07	1316.16667
1300.317	1322.16667
1303.562	1319.16667
1306.803	1314.83333
1310.043	1297.5
1313.28	1296.83333
1316.515	1289.16667
1319.747	1300.5
1322.977	1272.16667
1326.204	1276.83333
1329.429	1259.83333
1332.652	1264.16667
1335.872	1257.16667
1339.09	1238.5
1342.306	1242.5
1345.519	1249.83333
1348.729	1237.5
1351.938	1240.83333
1355.144	1224.83333
1358.347	1213.5
1361.548	1210.5
1364.747	1221.83333
1367.944	1186.83333
1371.138	1188.83333
1374.329	1190.5
1377.518	1193.83333
1380.705	1200.5
1383.89	1178.83333
1387.072	1151.5
1390.252	1120.16667
1393.429	1102.83333
1396.605	1082.16667
1399.777	1046.16667
1402.948	1053.16667
1406.116	1032.83333
1409.282	1029.83333
1412.445	1033.83333
1415.606	1036.5
1418.765	1038.16667
1421.921	1043.16667
1425.075	1062.16667
1428.227	1081.16667
1431.376	1103.83333
1434.524	1146.16667
1437.668	1165.5
1440.811	1170.83333
1443.951	1174.5
1447.089	1191.16667
1450.224	1190.16667
1453.357	1167.16667
1456.488	1153.16667
1459.617	1153.83333
1462.743	1137.5
1465.867	1110.16667
1468.989	1110.83333
1472.108	1087.83333
1475.225	1071.5
1478.34	1048.5
1481.453	1061.16667
1484.563	1049.16667
1487.671	1058.83333
1490.776	1051.83333
1493.88	1058.5
1496.981	1083.16667
1500.08	1094.5
1503.176	1088.16667
1506.271	1106.16667
1509.363	1118.16667
1512.452	1128.5
1515.54	1130.16667
1518.625	1130.83333
1521.708	1162.5
1524.789	1219.16667
1527.867	1227.83333
1530.944	1274.5
1534.018	1304.5
1537.089	1380.5
1540.159	1379.83333
1543.226	1376.16667
1546.291	1351.16667
1549.354	1338.5
1552.415	1306.16667
1555.473	1278.5
1558.529	1256.83333
1561.583	1241.16667
1564.634	1223.5
1567.684	1218.83333
1570.731	1234.5
1573.776	1217.5
1576.819	1239.83333
1579.859	1244.83333
1582.898	1272.5
1585.934	1269.16667
1588.968	1301.5
1591.999	1249.5
1595.029	1262.5
1598.056	1275.83333
1601.081	1283.83333
1604.104	1271.5
1607.125	1277.16667
1610.144	1253.16667
1613.16	1226.5
1616.174	1216.5
1619.186	1196.16667
1622.196	1173.5
1625.203	1128.16667
1628.209	1122.16667
1631.212	1126.5
1634.213	1143.5
1637.212	1142.16667
1640.209	1135.5
1643.203	1111.16667
1646.196	1079.83333
1649.186	1041.83333
1652.174	1034.83333
1655.16	994.83333
1658.144	996.5
1661.125	938.16667
1664.105	927.5
1667.082	898.16667
1670.057	843.16667
1673.03	805.5
1676.001	770.83333
1678.97	714.5
1681.937	700.16667
1684.901	653.16667
1687.863	643.5
1690.824	621.16667
1693.782	627.83333
1696.738	594.16667
1699.692	600.83333
1702.643	574.5
1705.593	579.83333
1708.54	570.5
1711.486	583.16667
1714.429	559.5
1717.37	560.16667
1720.309	544.16667
1723.246	553.16667
1726.181	530.16667
1729.113	537.16667
1732.044	542.83333
1734.972	528.16667
1737.899	549.16667
1740.823	545.83333
1743.745	566.5
1746.665	518.5
1749.583	515.5
1752.499	504.83333
1755.413	508.5
1758.325	495.83333
1761.235	501.83333
1764.142	488.16667
1767.048	485.5
1769.951	483.83333
1772.852	484.5
1775.752	515.83333
1778.649	519.5
1781.544	508.5
1784.437	476.16667
1787.328	486.5
1790.217	476.16667
1793.104	456.83333
1795.989	451.16667
1798.872	454.5
1801.753	461.5
1804.631	458.83333
1807.508	467.16667
1810.383	452.83333
1813.255	447.83333
1816.126	454.5
1818.994	444.83333
1821.861	449.83333
1824.725	452.5
1827.587	453.83333
1830.448	437.5
1833.306	436.16667
1836.162	448.16667
1839.017	435.83333
1841.869	435.5
1844.719	429.16667
1847.567	417.16667
1850.414	410.16667
1853.258	424.5
1856.1	430.5
1858.94	434.5
1861.778	415.16667
1864.614	417.5
1867.448	432.16667
1870.28	406.16667
1873.111	427.83333
1875.939	419.5
1878.765	429.16667
1881.589	417.16667
1884.411	418.83333
1887.231	420.83333
1890.049	410.16667
1892.865	421.5
1895.68	407.83333
1898.492	414.16667
1901.302	410.16667
1904.11	408.16667
1906.916	401.83333
1909.721	395.83333
1912.523	404.5
1915.323	392.5
1918.122	388.5
1920.918	396.16667
1923.712	389.83333
1926.505	390.5
1929.295	381.16667
1932.084	394.5
1934.87	386.5
1937.655	368.5
1940.438	378.5
1943.218	384.5
1945.997	383.16667
1948.774	390.5
1951.549	389.5
1954.322	376.5
1957.093	387.16667
1959.862	374.83333
1962.629	370.5
1965.394	376.83333
1968.157	366.83333
1970.918	380.5
1973.678	356.5
1976.435	368.83333
1979.19	360.83333
1981.944	351.16667
1984.696	357.16667
1987.445	346.16667
1990.193	357.83333
1992.939	372.5
1995.683	355.16667
1998.425	347.5
2001.165	374.83333
2003.903	339.16667
2006.639	355.5
2009.374	358.5
2012.106	355.16667
2014.837	335.16667
2017.566	353.5
2020.292	345.16667
2023.017	340.83333
2025.74	332.5
2028.461	338.5
2031.18	339.83333
2033.898	328.5
2036.613	344.16667
2039.327	342.83333
2042.038	329.16667
2044.748	334.83333
2047.456	338.5
2050.162	328.5
2052.866	325.16667
2055.568	339.16667
2058.268	328.5
2060.967	332.5
2063.663	317.83333
2066.358	317.5
2069.051	320.16667
2071.742	315.5
2074.431	334.5
2077.118	310.16667
2079.804	309.5
2082.487	310.83333
2085.169	323.5
2087.849	345.5
2090.527	316.16667
2093.203	317.5
2095.877	317.5
2098.55	319.5
2101.22	328.83333
2103.889	321.16667
2106.556	313.5
2109.221	335.5
2111.884	323.16667
2114.546	350.5
2117.205	358.83333
2119.863	389.83333
2122.519	381.5
2125.173	408.16667
2127.825	441.5
2130.475	439.5
2133.124	423.83333
2135.771	408.5
2138.416	414.83333
2141.059	390.83333
2143.7	389.16667
2146.339	360.5
2148.977	328.16667
2151.613	343.16667
2154.247	341.83333
2156.879	327.16667
2159.51	317.5
2162.138	314.16667
2164.765	309.16667
2167.39	289.16667
2170.013	313.5
2172.634	306.16667
2175.254	290.16667
2177.872	331.5
2180.488	284.16667
2183.102	293.83333
2185.714	290.83333
2188.325	274.5
2190.934	284.16667
2193.541	289.83333
2196.146	278.5
2198.75	265.83333
2201.351	266.16667
2203.951	253.16667
2206.549	275.5
2209.146	272.5
2211.74	263.5
2214.333	270.16667
2216.924	256.5
2219.514	267.5
2222.101	257.83333
2224.687	274.5
2227.271	248.16667
2229.853	253.83333
2232.433	232.16667
2235.012	261.16667
2237.589	257.83333
2240.164	266.5
2242.738	252.16667
2245.309	248.16667
2247.879	264.83333
2250.448	255.83333
2253.014	243.83333
2255.579	231.16667
2258.142	239.5
2260.703	237.5
2263.262	240.16667
2265.82	231.5
2268.376	246.16667
2270.93	238.16667
2273.483	227.83333
2276.033	242.5
2278.583	236.16667
2281.13	232.5
2283.675	215.16667
2286.219	229.5
2288.761	230.5
2291.302	236.16667
2293.841	240.83333
2296.377	218.16667
2298.913	237.16667
2301.446	238.5
2303.978	226.5
2306.508	225.5
2309.037	223.5
2311.563	231.16667
2314.088	227.83333
2316.612	207.83333
2319.133	223.5
2321.653	221.5
2324.171	209.16667
2326.688	230.16667
2329.202	222.16667
2331.715	221.83333
2334.227	219.16667
2336.736	218.16667
2339.244	206.16667
2341.751	199.5
2344.255	221.16667
2346.758	217.5
2349.259	202.83333
2351.759	212.5
2354.257	201.16667
2356.753	198.5
2359.247	198.16667
2361.74	205.5
2364.231	202.16667
2366.721	212.83333
2369.209	200.5
2371.695	198.83333
2374.179	195.83333
2376.662	195.5
2379.143	213.83333
2381.622	198.16667
2384.1	212.16667
2386.576	204.83333
2389.051	213.83333
2391.524	208.5
2393.995	201.83333
2396.464	195.5
2398.932	196.83333
2401.398	201.16667
2403.863	192.83333
2406.325	184.83333
2408.787	193.16667
2411.246	198.83333
2413.704	195.5
2416.16	182.5
2418.615	188.16667
2421.068	196.5
2423.519	186.5
2425.969	179.83333
2428.417	199.16667
2430.863	210.83333
2433.308	190.5
2435.751	186.16667
2438.193	189.5
2440.633	190.5
2443.071	195.83333
2445.508	180.5
2447.943	191.5
2450.376	178.83333
2452.808	191.16667
2455.238	177.5
2457.667	211.83333
2460.093	177.83333
2462.519	165.83333
2464.942	181.5
2467.365	186.5
2469.785	182.5
2472.204	179.16667
2474.621	176.16667
2477.037	199.83333
2479.451	167.16667
2481.863	167.16667
2484.274	168.5
2486.683	172.16667
2489.091	185.5
2491.497	176.5
2493.901	171.16667
2496.304	180.5
2498.705	186.5
2501.105	173.16667
2503.503	188.5
2505.899	171.5
2508.294	190.16667
2510.687	168.16667
2513.079	171.16667
2515.469	167.5
2517.858	167.16667
2520.245	186.5
2522.63	165.5
2525.014	163.16667
2527.396	159.83333
2529.776	162.83333
2532.156	171.5
2534.533	156.5
2536.909	161.5
2539.283	147.5
2541.656	160.16667
2544.027	179.5
2546.397	166.5
2548.765	161.16667
2551.131	158.16667
2553.496	165.83333
2555.86	164.83333
2558.221	167.16667
2560.582	155.16667
2562.94	153.16667
2565.298	161.16667
2567.653	170.5
2570.007	152.5
2572.36	163.5
2574.711	156.16667
2577.06	171.5
2579.408	158.16667
2581.754	156.83333
2584.099	150.83333
2586.442	156.16667
2588.784	163.83333
2591.124	159.83333
2593.463	153.83333
2595.8	158.83333
2598.135	141.83333
2600.469	147.16667
2602.802	161.5
2605.133	162.16667
2607.462	145.16667
2609.79	143.16667
2612.116	156.83333
2614.441	147.83333
2616.764	154.83333
2619.086	150.16667
2621.406	145.5
2623.725	153.83333
2626.042	148.16667
2628.358	147.16667
2630.672	152.16667
2632.985	161.16667
2635.296	151.5
2637.606	152.83333
2639.914	149.5
2642.22	143.16667
2644.525	150.5
2646.829	150.83333
2649.131	161.83333
2651.432	154.5
2653.731	144.16667
2656.028	159.16667
2658.324	150.16667
2660.619	144.16667
2662.912	158.83333
2665.204	133.5
2667.494	148.5
2669.782	140.16667
2672.07	155.5
2674.355	158.16667
2676.639	150.83333
2678.922	143.5
2681.203	149.16667
2683.483	141.83333
2685.761	135.5
2688.038	153.16667
2690.313	165.83333
2692.587	145.83333
2694.859	140.83333
2697.13	143.5
2699.399	154.83333
2701.667	162.83333
2703.933	150.83333
2706.198	156.83333
2708.461	154.83333
2710.723	152.83333
2712.984	148.5
2715.243	155.5
2717.5	154.16667
2719.757	162.5
2722.011	148.83333
2724.264	152.83333
2726.516	171.16667
2728.766	143.83333
2731.015	150.83333
2733.262	151.16667
2735.508	147.5
2737.753	153.83333
2739.996	137.83333
2742.237	141.5
2744.477	154.83333
2746.716	162.5
2748.953	150.16667
2751.189	153.83333
2753.423	144.5
2755.656	139.16667
2757.887	136.83333
2760.117	141.16667
2762.346	135.83333
2764.573	128.5
2766.798	139.16667
2769.022	136.5
2771.245	134.83333
2773.467	143.5
2775.686	139.83333
2777.905	145.16667
2780.122	141.83333
2782.337	142.5
2784.552	138.16667
2786.764	142.16667
2788.976	139.83333
2791.186	143.5
2793.394	143.16667
2795.601	146.16667
2797.807	153.16667
2800.011	145.83333
2802.214	147.16667
2804.415	150.16667
2806.615	150.5
2808.814	146.16667
2811.011	157.5
2813.206	153.83333
2815.401	161.16667
2817.594	165.5
2819.785	162.83333
2821.975	148.5
2824.164	160.83333
2826.351	153.83333
2828.537	175.16667
2830.722	169.16667
2832.905	163.83333
2835.086	174.16667
2837.267	190.5
2839.445	185.16667
2841.623	185.16667
2843.799	197.5
2845.974	202.83333
2848.147	195.83333
2850.319	215.16667
2852.489	225.16667
2854.659	214.83333
2856.826	221.16667
2858.993	239.83333
2861.158	222.83333
2863.321	230.5
2865.483	249.83333
2867.644	246.83333
2869.804	236.83333
2871.962	234.16667
2874.118	246.16667
2876.274	259.83333
2878.428	253.16667
2880.58	245.5
2882.731	230.83333
2884.881	237.83333
2887.03	242.83333
2889.177	234.83333
2891.322	241.83333
2893.467	227.83333
2895.61	228.16667
2897.751	249.83333
2899.892	235.16667
2902.03	240.83333
2904.168	236.16667
2906.304	241.83333
2908.439	257.83333
2910.572	237.83333
2912.704	240.5
2914.835	244.83333
2916.965	247.83333
2919.093	261.16667
2921.219	225.83333
2923.345	252.16667
2925.469	239.16667
2927.591	235.83333
2929.712	217.83333
2931.832	236.83333
2933.951	225.16667
2936.068	222.16667
2938.184	216.5
2940.299	209.5
2942.412	202.83333
2944.524	180.5
2946.634	197.5
2948.744	173.16667
2950.851	210.16667
2952.958	172.16667
2955.063	183.83333
2957.167	176.16667
2959.269	160.5
2961.371	190.16667
2963.471	164.16667
2965.569	180.5
2967.666	145.83333
2969.762	144.16667
2971.857	145.83333
2973.95	134.5
2976.042	144.16667
2978.133	137.5
2980.222	132.83333
2982.31	128.83333
2984.396	114.16667
2986.482	122.16667
2988.566	125.16667
2990.648	121.83333
2992.73	121.83333
2994.81	112.5
2996.889	122.16667
2998.966	115.83333
3001.042	128.16667
3003.117	111.16667
3005.191	125.16667
3007.263	119.83333
3009.334	115.16667
3011.403	116.83333
3013.472	109.5
3015.539	127.16667
3017.604	133.83333
3019.669	97.16667
3021.732	106.83333
3023.794	111.16667
3025.854	99.5
3027.914	102.83333
3029.971	98.5
3032.028	104.16667
3034.083	112.5
3036.137	110.5
3038.19	96.16667
3040.242	85.5
3042.292	92.16667
3044.341	96.16667
3046.388	109.5
3048.435	87.16667
3050.48	107.83333
3052.524	97.83333
3054.566	79.5
3056.607	95.5
3058.647	91.5
3060.686	75.83333
3062.723	74.16667
3064.759	80.5
3066.794	1.83333
3068.828	0.83333
3070.86	2.16667
