-0.839	147.95833
3.438	170.29167
7.711	69.29167
11.981	48.29167
16.247	31.625
20.509	38.95833
24.768	40.625
29.024	46.95833
33.276	33.29167
37.524	45.29167
41.769	30.625
46.01	27.625
50.247	44.95833
54.481	51.29167
58.712	57.95833
62.939	35.95833
67.162	54.29167
71.382	46.625
75.599	41.29167
79.812	46.95833
84.021	61.625
88.227	42.29167
92.429	56.29167
96.628	38.95833
100.823	51.625
105.015	52.95833
109.204	48.625
113.388	57.95833
117.57	46.29167
121.748	61.95833
125.922	49.625
130.093	68.29167
134.261	66.29167
138.425	61.95833
142.585	83.625
146.742	67.95833
150.896	84.29167
155.046	80.95833
159.193	123.625
163.336	178.29167
167.476	312.29167
171.613	569.625
175.746	913.625
179.875	1352.29167
184.002	1752.95833
188.124	2056.29167
192.244	2191.29167
196.36	2194.95833
200.472	2191.625
204.581	2167.29167
208.687	2121.95833
212.79	2121.625
216.889	2125.29167
220.984	2142.29167
225.077	2181.625
229.165	2197.625
233.251	2179.625
237.333	2209.625
241.412	2183.625
245.487	2175.625
249.559	2137.29167
253.628	2133.625
257.694	2118.29167
261.756	2120.625
265.814	2070.625
269.87	2017.29167
273.922	1978.29167
277.97	1938.95833
282.016	1927.29167
286.058	1898.29167
290.097	1939.29167
294.132	1960.95833
298.164	1940.625
302.193	1880.29167
306.219	1769.95833
310.241	1672.29167
314.26	1578.95833
318.276	1514.95833
322.288	1482.625
326.297	1432.625
330.303	1400.625
334.305	1387.29167
338.305	1380.29167
342.301	1357.29167
346.294	1367.625
350.283	1362.625
354.269	1354.29167
358.252	1351.95833
362.232	1325.625
366.209	1341.625
370.182	1325.625
374.152	1330.95833
378.119	1334.95833
382.083	1324.95833
386.043	1353.625
390	1327.625
393.954	1331.95833
397.905	1343.625
401.852	1372.29167
405.797	1340.625
409.738	1333.29167
413.676	1341.29167
417.61	1358.625
421.542	1343.625
425.47	1326.95833
429.396	1333.95833
433.318	1308.625
437.236	1311.95833
441.152	1348.95833
445.065	1297.29167
448.974	1320.29167
452.88	1282.29167
456.783	1299.95833
460.683	1298.625
464.58	1301.625
468.473	1299.625
472.364	1307.625
476.251	1302.625
480.135	1312.29167
484.016	1321.29167
487.894	1328.625
491.769	1334.625
495.641	1322.95833
499.509	1334.625
503.375	1327.625
507.237	1324.95833
511.096	1315.95833
514.952	1312.29167
518.805	1321.29167
522.655	1311.95833
526.502	1297.625
530.346	1320.625
534.187	1333.625
538.024	1306.95833
541.859	1312.29167
545.69	1327.29167
549.519	1319.29167
553.344	1317.29167
557.166	1299.29167
560.985	1288.625
564.802	1292.29167
568.615	1279.29167
572.425	1255.29167
576.232	1257.625
580.036	1267.625
583.836	1272.95833
587.634	1270.29167
591.429	1269.625
595.221	1294.95833
599.01	1277.625
602.796	1288.29167
606.578	1299.625
610.358	1302.29167
614.135	1283.95833
617.909	1297.625
621.679	1293.625
625.447	1269.29167
629.212	1274.95833
632.973	1286.625
636.732	1274.95833
640.488	1260.95833
644.241	1259.95833
647.991	1261.95833
651.737	1292.95833
655.481	1251.29167
659.222	1246.625
662.96	1255.95833
666.695	1265.29167
670.427	1277.625
674.156	1277.29167
677.882	1269.29167
681.605	1248.29167
685.325	1248.29167
689.043	1272.95833
692.757	1256.625
696.468	1253.625
700.177	1248.95833
703.882	1217.625
707.585	1219.95833
711.284	1230.95833
714.981	1200.625
718.675	1214.625
722.366	1224.625
726.054	1205.95833
729.739	1201.625
733.421	1214.625
737.1	1203.29167
740.777	1221.625
744.45	1216.29167
748.121	1218.95833
751.789	1256.95833
755.453	1224.625
759.115	1253.95833
762.774	1230.29167
766.431	1233.95833
770.084	1247.29167
773.734	1244.29167
777.382	1278.29167
781.027	1258.29167
784.669	1268.29167
788.308	1258.29167
791.944	1274.625
795.577	1284.95833
799.208	1279.95833
802.835	1296.625
806.46	1283.29167
810.082	1308.29167
813.701	1285.95833
817.317	1308.95833
820.931	1313.95833
824.542	1316.95833
828.149	1288.95833
831.754	1266.625
835.357	1259.625
838.956	1270.95833
842.553	1258.625
846.146	1247.95833
849.737	1219.95833
853.326	1238.625
856.911	1201.29167
860.493	1237.29167
864.073	1237.95833
867.65	1260.95833
871.225	1271.95833
874.796	1252.625
878.365	1242.95833
881.931	1257.625
885.494	1277.29167
889.054	1251.625
892.612	1252.95833
896.166	1255.29167
899.719	1231.95833
903.268	1216.625
906.814	1218.95833
910.358	1206.29167
913.899	1204.625
917.438	1198.625
920.973	1178.29167
924.506	1203.625
928.036	1220.95833
931.564	1243.29167
935.088	1238.95833
938.61	1233.29167
942.129	1230.95833
945.646	1243.29167
949.16	1261.95833
952.671	1278.95833
956.179	1280.625
959.685	1272.95833
963.188	1294.625
966.688	1273.95833
970.185	1233.625
973.68	1208.625
977.173	1210.29167
980.662	1188.95833
984.149	1197.625
987.633	1177.625
991.114	1191.29167
994.593	1209.625
998.069	1216.29167
1001.542	1259.95833
1005.013	1247.95833
1008.481	1176.625
1011.947	1170.29167
1015.409	1157.29167
1018.869	1162.625
1022.327	1162.625
1025.782	1131.625
1029.234	1140.625
1032.683	1104.625
1036.13	1109.95833
1039.574	1066.625
1043.016	1030.95833
1046.455	1036.625
1049.891	1023.95833
1053.325	1023.625
1056.756	1013.625
1060.184	1021.625
1063.61	1008.29167
1067.033	1029.625
1070.454	1021.29167
1073.872	1036.625
1077.287	1008.625
1080.7	1020.95833
1084.11	1021.95833
1087.517	1013.625
1090.922	997.29167
1094.325	981.29167
1097.724	978.29167
1101.122	983.29167
1104.516	984.625
1107.908	959.29167
1111.298	979.29167
1114.684	980.625
1118.069	996.29167
1121.45	1009.95833
1124.83	988.625
1128.206	1007.29167
1131.58	1007.625
1134.951	1053.29167
1138.32	1060.95833
1141.687	1087.625
1145.05	1087.95833
1148.412	1096.29167
1151.77	1096.625
1155.126	1081.29167
1158.48	1085.625
1161.831	1074.625
1165.18	1084.625
1168.525	1100.625
1171.869	1116.625
1175.21	1100.625
1178.548	1120.625
1181.884	1133.625
1185.217	1134.625
1188.548	1159.625
1191.877	1169.625
1195.202	1217.625
1198.526	1248.29167
1201.846	1240.625
1205.165	1238.95833
1208.48	1238.29167
1211.794	1234.95833
1215.104	1257.95833
1218.413	1246.29167
1221.719	1238.625
1225.022	1216.95833
1228.323	1194.29167
1231.621	1195.625
1234.917	1182.29167
1238.21	1209.625
1241.501	1179.625
1244.79	1167.29167
1248.076	1148.625
1251.359	1187.625
1254.64	1232.29167
1257.919	1203.95833
1261.195	1211.625
1264.468	1238.95833
1267.74	1234.95833
1271.008	1265.95833
1274.275	1253.29167
1277.538	1229.29167
1280.8	1251.29167
1284.059	1235.95833
1287.315	1239.95833
1290.569	1257.95833
1293.821	1245.29167
1297.07	1269.29167
1300.317	1251.95833
1303.562	1254.29167
1306.803	1249.625
1310.043	1232.625
1313.28	1244.29167
1316.515	1228.95833
1319.747	1238.625
1322.977	1215.95833
1326.204	1217.625
1329.429	1192.95833
1332.652	1196.95833
1335.872	1200.95833
1339.09	1189.625
1342.306	1186.625
1345.519	1170.29167
1348.729	1155.29167
1351.938	1184.625
1355.144	1158.625
1358.347	1138.625
1361.548	1150.29167
1364.747	1149.95833
1367.944	1135.95833
1371.138	1139.625
1374.329	1126.95833
1377.518	1132.625
1380.705	1141.95833
1383.89	1137.625
1387.072	1093.625
1390.252	1074.625
1393.429	1039.95833
1396.605	1022.625
1399.777	995.29167
1402.948	993.29167
1406.116	972.29167
1409.282	973.95833
1412.445	969.29167
1415.606	979.29167
1418.765	957.95833
1421.921	987.95833
1425.075	992.625
1428.227	1020.29167
1431.376	1074.95833
1434.524	1092.625
1437.668	1125.625
1440.811	1122.625
1443.951	1123.95833
1447.089	1120.29167
1450.224	1129.29167
1453.357	1134.625
1456.488	1114.625
1459.617	1113.95833
1462.743	1103.29167
1465.867	1065.625
1468.989	1044.625
1472.108	1039.95833
1475.225	1032.29167
1478.34	1003.29167
1481.453	1011.29167
1484.563	1008.625
1487.671	1012.625
1490.776	1031.29167
1493.88	1032.29167
1496.981	1055.29167
1500.08	1056.625
1503.176	1065.625
1506.271	1074.625
1509.363	1101.29167
1512.452	1099.625
1515.54	1104.625
1518.625	1122.95833
1521.708	1157.625
1524.789	1170.95833
1527.867	1202.95833
1530.944	1258.29167
1534.018	1281.95833
1537.089	1345.95833
1540.159	1363.625
1543.226	1376.95833
1546.291	1331.625
1549.354	1309.29167
1552.415	1300.625
1555.473	1262.95833
1558.529	1254.95833
1561.583	1242.29167
1564.634	1215.625
1567.684	1224.95833
1570.731	1223.95833
1573.776	1236.29167
1576.819	1242.29167
1579.859	1254.29167
1582.898	1262.95833
1585.934	1284.29167
1588.968	1281.29167
1591.999	1255.95833
1595.029	1255.29167
1598.056	1266.625
1601.081	1277.95833
1604.104	1280.625
1607.125	1279.29167
1610.144	1243.29167
1613.16	1217.95833
1616.174	1182.29167
1619.186	1178.95833
1622.196	1159.95833
1625.203	1119.29167
1628.209	1124.625
1631.212	1094.95833
1634.213	1125.625
1637.212	1138.95833
1640.209	1129.625
1643.203	1111.95833
1646.196	1056.29167
1649.186	1018.625
1652.174	1011.95833
1655.16	977.29167
1658.144	955.95833
1661.125	910.29167
1664.105	882.95833
1667.082	849.29167
1670.057	786.29167
1673.03	751.95833
1676.001	726.625
1678.97	680.29167
1681.937	651.625
1684.901	620.95833
1687.863	604.95833
1690.824	578.29167
1693.782	590.95833
1696.738	541.95833
1699.692	540.95833
1702.643	538.29167
1705.593	526.95833
1708.54	526.625
1711.486	523.95833
1714.429	503.95833
1717.37	514.625
1720.309	504.625
1723.246	515.95833
1726.181	487.29167
1729.113	497.29167
1732.044	495.29167
1734.972	490.29167
1737.899	507.95833
1740.823	492.29167
1743.745	520.29167
1746.665	475.95833
1749.583	470.29167
1752.499	456.29167
1755.413	452.29167
1758.325	442.625
1761.235	461.95833
1764.142	437.625
1767.048	440.625
1769.951	435.625
1772.852	444.95833
1775.752	449.95833
1778.649	438.29167
1781.544	451.625
1784.437	405.95833
1787.328	423.95833
1790.217	435.625
1793.104	401.625
1795.989	414.95833
1798.872	411.29167
1801.753	424.625
1804.631	408.95833
1807.508	422.95833
1810.383	412.29167
1813.255	413.95833
1816.126	406.95833
1818.994	403.29167
1821.861	392.29167
1824.725	405.29167
1827.587	410.625
1830.448	397.29167
1833.306	389.29167
1836.162	407.29167
1839.017	387.625
1841.869	393.95833
1844.719	389.95833
1847.567	374.29167
1850.414	372.95833
1853.258	375.95833
1856.1	382.29167
1858.94	391.29167
1861.778	389.95833
1864.614	370.95833
1867.448	387.95833
1870.28	367.95833
1873.111	389.95833
1875.939	380.625
1878.765	391.625
1881.589	367.95833
1884.411	379.95833
1887.231	381.95833
1890.049	372.29167
1892.865	385.625
1895.68	362.625
1898.492	374.625
1901.302	365.29167
1904.11	361.29167
1906.916	359.625
1909.721	362.95833
1912.523	364.625
1915.323	350.625
1918.122	355.95833
1920.918	364.29167
1923.712	350.95833
1926.505	356.29167
1929.295	339.29167
1932.084	356.625
1934.87	351.625
1937.655	348.29167
1940.438	339.29167
1943.218	338.625
1945.997	348.625
1948.774	357.625
1951.549	358.625
1954.322	341.29167
1957.093	347.625
1959.862	330.625
1962.629	339.95833
1965.394	332.95833
1968.157	327.95833
1970.918	347.29167
1973.678	329.29167
1976.435	338.95833
1979.19	337.29167
1981.944	318.29167
1984.696	322.29167
1987.445	327.29167
1990.193	336.95833
1992.939	343.29167
1995.683	339.29167
1998.425	314.95833
2001.165	337.95833
2003.903	304.29167
2006.639	314.95833
2009.374	326.95833
2012.106	329.29167
2014.837	297.625
2017.566	328.625
2020.292	316.29167
2023.017	309.29167
2025.74	307.625
2028.461	305.29167
2031.18	314.95833
2033.898	302.625
2036.613	305.625
2039.327	309.625
2042.038	296.625
2044.748	312.625
2047.456	308.625
2050.162	296.29167
2052.866	294.95833
2055.568	317.29167
2058.268	296.95833
2060.967	305.95833
2063.663	288.95833
2066.358	294.625
2069.051	294.95833
2071.742	299.625
2074.431	304.95833
2077.118	297.625
2079.804	281.95833
2082.487	295.95833
2085.169	303.95833
2087.849	311.95833
2090.527	289.95833
2093.203	291.29167
2095.877	293.625
2098.55	295.29167
2101.22	305.29167
2103.889	306.29167
2106.556	298.625
2109.221	313.95833
2111.884	303.95833
2114.546	328.95833
2117.205	340.95833
2119.863	376.95833
2122.519	368.29167
2125.173	398.29167
2127.825	436.29167
2130.475	428.29167
2133.124	412.625
2135.771	393.29167
2138.416	402.625
2141.059	366.95833
2143.7	368.29167
2146.339	343.29167
2148.977	317.625
2151.613	320.29167
2154.247	314.95833
2156.879	309.95833
2159.51	289.29167
2162.138	289.29167
2164.765	292.95833
2167.39	278.95833
2170.013	299.95833
2172.634	291.29167
2175.254	283.625
2177.872	316.625
2180.488	268.29167
2183.102	269.29167
2185.714	273.95833
2188.325	262.625
2190.934	269.95833
2193.541	270.29167
2196.146	263.625
2198.75	253.625
2201.351	259.625
2203.951	234.95833
2206.549	265.29167
2209.146	245.625
2211.74	239.29167
2214.333	251.95833
2216.924	238.29167
2219.514	244.29167
2222.101	239.625
2224.687	251.29167
2227.271	229.625
2229.853	238.625
2232.433	226.29167
2235.012	242.95833
2237.589	239.95833
2240.164	259.29167
2242.738	234.29167
2245.309	228.29167
2247.879	247.29167
2250.448	239.29167
2253.014	222.625
2255.579	226.95833
2258.142	225.625
2260.703	220.95833
2263.262	221.625
2265.82	212.29167
2268.376	229.625
2270.93	224.625
2273.483	214.29167
2276.033	231.625
2278.583	213.29167
2281.13	215.625
2283.675	206.29167
2286.219	216.29167
2288.761	221.95833
2291.302	219.625
2293.841	224.29167
2296.377	210.95833
2298.913	216.95833
2301.446	223.625
2303.978	210.29167
2306.508	210.95833
2309.037	215.625
2311.563	208.29167
2314.088	209.95833
2316.612	199.95833
2319.133	211.625
2321.653	204.95833
2324.171	197.625
2326.688	216.29167
2329.202	210.29167
2331.715	208.625
2334.227	204.95833
2336.736	200.95833
2339.244	190.625
2341.751	185.29167
2344.255	206.29167
2346.758	207.95833
2349.259	187.95833
2351.759	202.29167
2354.257	192.29167
2356.753	192.625
2359.247	193.29167
2361.74	194.95833
2364.231	191.625
2366.721	198.625
2369.209	188.95833
2371.695	188.29167
2374.179	182.29167
2376.662	177.625
2379.143	208.95833
2381.622	185.625
2384.1	187.29167
2386.576	187.29167
2389.051	206.29167
2391.524	205.29167
2393.995	195.95833
2396.464	179.625
2398.932	180.95833
2401.398	191.29167
2403.863	183.29167
2406.325	177.625
2408.787	190.625
2411.246	182.29167
2413.704	184.95833
2416.16	181.29167
2418.615	177.95833
2421.068	188.95833
2423.519	172.95833
2425.969	172.625
2428.417	188.29167
2430.863	200.95833
2433.308	184.625
2435.751	179.95833
2438.193	179.95833
2440.633	181.95833
2443.071	189.29167
2445.508	175.625
2447.943	179.625
2450.376	174.625
2452.808	181.625
2455.238	168.95833
2457.667	202.95833
2460.093	166.625
2462.519	160.95833
2464.942	162.29167
2467.365	168.625
2469.785	182.625
2472.204	169.95833
2474.621	172.29167
2477.037	182.95833
2479.451	156.95833
2481.863	161.29167
2484.274	165.95833
2486.683	169.95833
2489.091	172.625
2491.497	168.29167
2493.901	168.95833
2496.304	164.95833
2498.705	173.29167
2501.105	171.29167
2503.503	184.95833
2505.899	160.625
2508.294	174.95833
2510.687	160.29167
2513.079	163.95833
2515.469	155.625
2517.858	155.625
2520.245	178.625
2522.63	159.95833
2525.014	157.95833
2527.396	151.95833
2529.776	155.29167
2532.156	162.29167
2534.533	150.95833
2536.909	152.95833
2539.283	144.95833
2541.656	151.625
2544.027	170.29167
2546.397	160.625
2548.765	150.625
2551.131	156.29167
2553.496	158.625
2555.86	161.29167
2558.221	164.29167
2560.582	154.625
2562.94	148.29167
2565.298	157.95833
2567.653	163.29167
2570.007	142.95833
2572.36	159.29167
2574.711	148.625
2577.06	159.95833
2579.408	156.29167
2581.754	148.95833
2584.099	148.95833
2586.442	149.625
2588.784	154.29167
2591.124	150.29167
2593.463	148.29167
2595.8	156.625
2598.135	135.95833
2600.469	142.95833
2602.802	157.29167
2605.133	156.625
2607.462	141.29167
2609.79	134.625
2612.116	159.95833
2614.441	144.625
2616.764	152.29167
2619.086	145.625
2621.406	141.95833
2623.725	159.29167
2626.042	143.625
2628.358	144.29167
2630.672	144.625
2632.985	151.29167
2635.296	150.95833
2637.606	146.625
2639.914	145.625
2642.22	137.625
2644.525	144.95833
2646.829	146.625
2649.131	156.625
2651.432	150.29167
2653.731	140.29167
2656.028	150.95833
2658.324	150.625
2660.619	132.625
2662.912	146.95833
2665.204	131.95833
2667.494	151.29167
2669.782	137.29167
2672.07	150.95833
2674.355	161.95833
2676.639	147.625
2678.922	136.625
2681.203	148.29167
2683.483	135.95833
2685.761	136.95833
2688.038	151.625
2690.313	155.29167
2692.587	145.625
2694.859	138.95833
2697.13	143.625
2699.399	152.625
2701.667	153.95833
2703.933	147.29167
2706.198	154.625
2708.461	148.625
2710.723	152.29167
2712.984	151.95833
2715.243	153.29167
2717.5	144.29167
2719.757	152.95833
2722.011	151.29167
2724.264	156.29167
2726.516	165.625
2728.766	141.95833
2731.015	144.625
2733.262	149.625
2735.508	148.29167
2737.753	149.625
2739.996	133.29167
2742.237	139.625
2744.477	153.95833
2746.716	153.95833
2748.953	156.95833
2751.189	151.625
2753.423	149.625
2755.656	144.29167
2757.887	134.95833
2760.117	144.29167
2762.346	132.625
2764.573	126.625
2766.798	134.625
2769.022	136.29167
2771.245	135.29167
2773.467	145.95833
2775.686	134.95833
2777.905	142.625
2780.122	141.95833
2782.337	145.625
2784.552	134.625
2786.764	139.625
2788.976	135.95833
2791.186	138.29167
2793.394	138.95833
2795.601	145.95833
2797.807	153.29167
2800.011	147.625
2802.214	152.625
2804.415	149.625
2806.615	149.95833
2808.814	152.625
2811.011	156.95833
2813.206	157.95833
2815.401	166.625
2817.594	161.29167
2819.785	162.29167
2821.975	154.95833
2824.164	158.625
2826.351	153.95833
2828.537	171.95833
2830.722	169.29167
2832.905	166.29167
2835.086	173.29167
2837.267	188.29167
2839.445	190.29167
2841.623	193.625
2843.799	190.625
2845.974	201.625
2848.147	207.29167
2850.319	219.625
2852.489	224.95833
2854.659	227.29167
2856.826	227.29167
2858.993	250.29167
2861.158	234.29167
2863.321	233.625
2865.483	251.625
2867.644	250.29167
2869.804	237.625
2871.962	239.625
2874.118	244.625
2876.274	241.625
2878.428	241.29167
2880.58	242.625
2882.731	222.625
2884.881	234.625
2887.03	247.95833
2889.177	236.29167
2891.322	251.95833
2893.467	229.95833
2895.61	238.625
2897.751	255.95833
2899.892	239.29167
2902.03	245.625
2904.168	239.29167
2906.304	240.625
2908.439	263.95833
2910.572	239.29167
2912.704	254.29167
2914.835	257.95833
2916.965	251.95833
2919.093	260.29167
2921.219	240.95833
2923.345	265.95833
2925.469	246.625
2927.591	239.95833
2929.712	229.625
2931.832	241.95833
2933.951	235.625
2936.068	226.95833
2938.184	220.95833
2940.299	209.95833
2942.412	210.625
2944.524	198.625
2946.634	202.625
2948.744	169.95833
2950.851	210.29167
2952.958	177.29167
2955.063	184.625
2957.167	178.95833
2959.269	162.95833
2961.371	194.625
2963.471	164.95833
2965.569	179.95833
2967.666	155.95833
2969.762	153.625
2971.857	146.29167
2973.95	141.625
2976.042	155.625
2978.133	142.29167
2980.222	137.95833
2982.31	131.29167
2984.396	120.625
2986.482	120.29167
2988.566	136.625
2990.648	121.29167
2992.73	128.29167
2994.81	110.95833
2996.889	127.29167
2998.966	119.625
3001.042	137.29167
3003.117	118.29167
3005.191	121.625
3007.263	130.29167
3009.334	119.29167
3011.403	120.29167
3013.472	112.95833
3015.539	129.625
3017.604	133.625
3019.669	102.625
3021.732	114.625
3023.794	116.29167
3025.854	102.95833
3027.914	101.95833
3029.971	102.29167
3032.028	105.29167
3034.083	114.29167
3036.137	107.625
3038.19	96.95833
3040.242	91.95833
3042.292	94.29167
3044.341	94.95833
3046.388	114.625
3048.435	89.625
3050.48	111.29167
3052.524	99.29167
3054.566	81.625
3056.607	96.625
3058.647	88.95833
3060.686	81.29167
3062.723	77.95833
3064.759	79.625
3066.794	0.29167
3068.828	0.29167
3070.86	2.29167
