-0.839	135.20833
3.438	159.20833
7.711	66.54167
11.981	41.875
16.247	34.875
20.509	40.20833
24.768	36.875
29.024	41.20833
33.276	33.20833
37.524	42.20833
41.769	26.875
46.01	24.20833
50.247	42.20833
54.481	50.875
58.712	52.54167
62.939	33.54167
67.162	53.54167
71.382	44.20833
75.599	37.20833
79.812	40.20833
84.021	57.54167
88.227	37.54167
92.429	49.54167
96.628	39.875
100.823	51.875
105.015	48.20833
109.204	44.20833
113.388	57.20833
117.57	44.20833
121.748	59.54167
125.922	45.875
130.093	59.54167
134.261	62.875
138.425	51.875
142.585	86.20833
146.742	59.20833
150.896	74.54167
155.046	65.54167
159.193	102.54167
163.336	144.20833
167.476	251.54167
171.613	448.875
175.746	715.20833
179.875	1046.20833
184.002	1345.875
188.124	1585.20833
192.244	1647.875
196.36	1630.54167
200.472	1622.54167
204.581	1605.54167
208.687	1561.875
212.79	1549.875
216.889	1577.54167
220.984	1571.875
225.077	1590.875
229.165	1579.20833
233.251	1588.54167
237.333	1575.875
241.412	1569.875
245.487	1565.54167
249.559	1541.54167
253.628	1560.20833
257.694	1537.54167
261.756	1517.20833
265.814	1495.54167
269.87	1448.54167
273.922	1406.20833
277.97	1392.54167
282.016	1378.875
286.058	1379.875
290.097	1396.875
294.132	1423.54167
298.164	1398.875
302.193	1354.20833
306.219	1274.54167
310.241	1191.875
314.26	1119.20833
318.276	1060.875
322.288	1034.875
326.297	1000.20833
330.303	982.20833
334.305	963.54167
338.305	955.54167
342.301	936.875
346.294	947.20833
350.283	924.875
354.269	933.875
358.252	926.54167
362.232	915.20833
366.209	930.54167
370.182	900.20833
374.152	910.20833
378.119	919.20833
382.083	898.20833
386.043	929.875
390	892.875
393.954	924.20833
397.905	911.20833
401.852	918.54167
405.797	917.875
409.738	898.54167
413.676	917.875
417.61	924.54167
421.542	913.875
425.47	884.20833
429.396	881.20833
433.318	886.20833
437.236	886.54167
441.152	906.54167
445.065	870.20833
448.974	874.875
452.88	871.875
456.783	860.54167
460.683	862.54167
464.58	873.20833
468.473	883.54167
472.364	875.875
476.251	867.54167
480.135	887.875
484.016	878.54167
487.894	889.54167
491.769	884.54167
495.641	880.875
499.509	903.54167
503.375	903.875
507.237	881.875
511.096	888.54167
514.952	903.875
518.805	927.54167
522.655	926.875
526.502	922.54167
530.346	896.54167
534.187	899.54167
538.024	894.20833
541.859	893.54167
545.69	911.20833
549.519	903.54167
553.344	898.20833
557.166	871.875
560.985	867.20833
564.802	869.54167
568.615	867.20833
572.425	858.875
576.232	848.54167
580.036	845.20833
583.836	856.20833
587.634	858.875
591.429	840.54167
595.221	885.54167
599.01	868.54167
602.796	864.54167
606.578	874.54167
610.358	885.875
614.135	865.20833
617.909	877.54167
621.679	861.20833
625.447	846.875
629.212	871.20833
632.973	858.54167
636.732	851.20833
640.488	867.20833
644.241	846.20833
647.991	835.875
651.737	867.875
655.481	837.54167
659.222	839.875
662.96	841.20833
666.695	836.20833
670.427	845.54167
674.156	860.20833
677.882	851.54167
681.605	845.20833
685.325	841.20833
689.043	867.20833
692.757	840.20833
696.468	825.20833
700.177	840.20833
703.882	821.875
707.585	827.54167
711.284	841.54167
714.981	820.54167
718.675	818.875
722.366	820.20833
726.054	810.20833
729.739	828.875
733.421	823.20833
737.1	820.875
740.777	834.20833
744.45	825.54167
748.121	819.54167
751.789	867.875
755.453	830.875
759.115	851.875
762.774	846.20833
766.431	847.875
770.084	856.875
773.734	846.20833
777.382	868.20833
781.027	869.20833
784.669	856.54167
788.308	848.20833
791.944	880.20833
795.577	878.20833
799.208	867.54167
802.835	874.875
806.46	887.875
810.082	890.875
813.701	880.54167
817.317	890.54167
820.931	884.20833
824.542	904.20833
828.149	872.20833
831.754	863.875
835.357	862.20833
838.956	880.875
842.553	866.20833
846.146	866.54167
849.737	847.875
853.326	844.20833
856.911	834.20833
860.493	867.54167
864.073	857.875
867.65	868.20833
871.225	889.20833
874.796	869.875
878.365	864.875
881.931	884.54167
885.494	883.875
889.054	869.20833
892.612	887.20833
896.166	857.20833
899.719	844.875
903.268	825.20833
906.814	851.875
910.358	833.54167
913.899	827.20833
917.438	816.54167
920.973	801.20833
924.506	820.54167
928.036	825.875
931.564	850.875
935.088	862.20833
938.61	835.875
942.129	851.54167
945.646	858.875
949.16	875.20833
952.671	879.54167
956.179	883.875
959.685	872.54167
963.188	872.54167
966.688	870.20833
970.185	832.875
973.68	828.20833
977.173	825.875
980.662	801.20833
984.149	819.20833
987.633	792.875
991.114	816.20833
994.593	826.875
998.069	835.875
1001.542	855.875
1005.013	855.54167
1008.481	792.875
1011.947	803.54167
1015.409	779.875
1018.869	777.875
1022.327	794.54167
1025.782	782.54167
1029.234	775.875
1032.683	765.875
1036.13	748.20833
1039.574	717.20833
1043.016	704.20833
1046.455	695.20833
1049.891	689.54167
1053.325	713.20833
1056.756	688.20833
1060.184	697.20833
1063.61	687.875
1067.033	702.20833
1070.454	688.54167
1073.872	725.875
1077.287	689.20833
1080.7	699.875
1084.11	693.54167
1087.517	697.54167
1090.922	680.875
1094.325	667.875
1097.724	681.20833
1101.122	673.54167
1104.516	670.54167
1107.908	659.875
1111.298	674.54167
1114.684	688.54167
1118.069	672.875
1121.45	696.54167
1124.83	685.875
1128.206	685.20833
1131.58	698.875
1134.951	712.20833
1138.32	717.20833
1141.687	742.875
1145.05	757.20833
1148.412	762.54167
1151.77	758.875
1155.126	753.20833
1158.48	744.54167
1161.831	747.20833
1165.18	743.54167
1168.525	769.20833
1171.869	767.54167
1175.21	765.20833
1178.548	778.20833
1181.884	784.20833
1185.217	791.875
1188.548	811.20833
1191.877	825.54167
1195.202	852.20833
1198.526	871.54167
1201.846	864.20833
1205.165	860.20833
1208.48	861.54167
1211.794	864.20833
1215.104	866.875
1218.413	857.54167
1221.719	856.54167
1225.022	842.20833
1228.323	829.20833
1231.621	833.54167
1234.917	805.875
1238.21	855.54167
1241.501	832.54167
1244.79	813.20833
1248.076	803.54167
1251.359	821.875
1254.64	864.54167
1257.919	840.875
1261.195	853.875
1264.468	848.20833
1267.74	868.875
1271.008	866.875
1274.275	874.20833
1277.538	860.54167
1280.8	864.875
1284.059	851.875
1287.315	867.54167
1290.569	859.875
1293.821	875.54167
1297.07	865.54167
1300.317	877.54167
1303.562	888.54167
1306.803	872.875
1310.043	863.54167
1313.28	859.54167
1316.515	853.875
1319.747	863.20833
1322.977	838.20833
1326.204	831.875
1329.429	835.20833
1332.652	837.20833
1335.872	836.875
1339.09	820.20833
1342.306	820.20833
1345.519	807.875
1348.729	794.54167
1351.938	813.20833
1355.144	789.875
1358.347	795.875
1361.548	798.20833
1364.747	790.54167
1367.944	770.20833
1371.138	786.875
1374.329	777.20833
1377.518	776.20833
1380.705	783.54167
1383.89	784.54167
1387.072	757.875
1390.252	749.20833
1393.429	728.54167
1396.605	709.875
1399.777	682.875
1402.948	667.875
1406.116	659.54167
1409.282	668.54167
1412.445	658.20833
1415.606	681.20833
1418.765	681.875
1421.921	689.875
1425.075	699.54167
1428.227	703.54167
1431.376	744.54167
1434.524	767.20833
1437.668	772.54167
1440.811	777.54167
1443.951	779.875
1447.089	784.54167
1450.224	796.875
1453.357	782.20833
1456.488	785.875
1459.617	782.20833
1462.743	765.54167
1465.867	739.20833
1468.989	745.875
1472.108	736.20833
1475.225	723.20833
1478.34	712.54167
1481.453	704.875
1484.563	683.875
1487.671	706.54167
1490.776	716.54167
1493.88	720.875
1496.981	735.20833
1500.08	742.20833
1503.176	740.54167
1506.271	755.875
1509.363	762.20833
1512.452	745.875
1515.54	763.875
1518.625	764.875
1521.708	805.54167
1524.789	817.20833
1527.867	829.54167
1530.944	885.875
1534.018	890.54167
1537.089	943.54167
1540.159	953.875
1543.226	962.875
1546.291	927.54167
1549.354	932.54167
1552.415	913.20833
1555.473	896.54167
1558.529	886.54167
1561.583	873.20833
1564.634	850.54167
1567.684	862.54167
1570.731	856.875
1573.776	868.20833
1576.819	873.875
1579.859	859.20833
1582.898	887.54167
1585.934	904.875
1588.968	897.20833
1591.999	881.54167
1595.029	884.875
1598.056	903.54167
1601.081	913.20833
1604.104	911.875
1607.125	876.54167
1610.144	871.875
1613.16	846.20833
1616.174	832.54167
1619.186	821.54167
1622.196	812.54167
1625.203	793.875
1628.209	773.875
1631.212	768.20833
1634.213	766.54167
1637.212	781.20833
1640.209	766.875
1643.203	750.875
1646.196	710.54167
1649.186	695.54167
1652.174	689.54167
1655.16	655.54167
1658.144	659.875
1661.125	620.875
1664.105	599.20833
1667.082	577.875
1670.057	549.54167
1673.03	528.54167
1676.001	513.875
1678.97	481.20833
1681.937	456.54167
1684.901	425.875
1687.863	437.54167
1690.824	400.54167
1693.782	415.20833
1696.738	382.20833
1699.692	383.20833
1702.643	370.54167
1705.593	384.875
1708.54	371.54167
1711.486	376.875
1714.429	352.875
1717.37	371.20833
1720.309	357.875
1723.246	358.20833
1726.181	344.875
1729.113	344.20833
1732.044	350.875
1734.972	343.20833
1737.899	357.20833
1740.823	349.54167
1743.745	375.54167
1746.665	329.20833
1749.583	333.20833
1752.499	325.54167
1755.413	312.54167
1758.325	313.875
1761.235	317.875
1764.142	305.20833
1767.048	310.54167
1769.951	314.54167
1772.852	300.54167
1775.752	316.20833
1778.649	313.20833
1781.544	319.20833
1784.437	297.20833
1787.328	304.20833
1790.217	302.20833
1793.104	281.875
1795.989	289.20833
1798.872	278.875
1801.753	297.20833
1804.631	292.20833
1807.508	296.54167
1810.383	290.54167
1813.255	287.20833
1816.126	287.20833
1818.994	289.54167
1821.861	287.20833
1824.725	287.20833
1827.587	293.20833
1830.448	277.54167
1833.306	278.20833
1836.162	290.875
1839.017	276.875
1841.869	277.875
1844.719	271.20833
1847.567	261.875
1850.414	254.20833
1853.258	261.875
1856.1	277.54167
1858.94	281.20833
1861.778	273.54167
1864.614	264.54167
1867.448	280.54167
1870.28	255.54167
1873.111	270.875
1875.939	262.54167
1878.765	279.54167
1881.589	265.54167
1884.411	269.20833
1887.231	280.20833
1890.049	267.54167
1892.865	273.54167
1895.68	261.20833
1898.492	269.20833
1901.302	262.20833
1904.11	260.20833
1906.916	263.54167
1909.721	254.875
1912.523	263.54167
1915.323	251.20833
1918.122	250.875
1920.918	263.875
1923.712	245.875
1926.505	252.875
1929.295	233.54167
1932.084	257.54167
1934.87	250.875
1937.655	248.54167
1940.438	242.875
1943.218	246.20833
1945.997	253.54167
1948.774	256.875
1951.549	259.20833
1954.322	238.20833
1957.093	247.875
1959.862	237.875
1962.629	236.20833
1965.394	242.20833
1968.157	230.54167
1970.918	248.875
1973.678	235.54167
1976.435	243.875
1979.19	238.20833
1981.944	225.20833
1984.696	232.54167
1987.445	229.875
1990.193	228.875
1992.939	249.20833
1995.683	242.20833
1998.425	210.875
2001.165	248.20833
2003.903	216.875
2006.639	227.54167
2009.374	233.54167
2012.106	236.20833
2014.837	210.20833
2017.566	234.20833
2020.292	226.20833
2023.017	217.875
2025.74	217.20833
2028.461	218.54167
2031.18	222.20833
2033.898	213.875
2036.613	216.54167
2039.327	222.20833
2042.038	217.20833
2044.748	220.20833
2047.456	219.20833
2050.162	205.20833
2052.866	214.875
2055.568	234.20833
2058.268	217.875
2060.967	227.54167
2063.663	198.875
2066.358	207.875
2069.051	206.875
2071.742	215.875
2074.431	218.20833
2077.118	208.20833
2079.804	201.20833
2082.487	209.20833
2085.169	224.54167
2087.849	231.54167
2090.527	206.20833
2093.203	211.875
2095.877	214.20833
2098.55	210.20833
2101.22	224.20833
2103.889	223.54167
2106.556	219.54167
2109.221	229.54167
2111.884	214.54167
2114.546	244.20833
2117.205	241.20833
2119.863	265.20833
2122.519	261.875
2125.173	273.54167
2127.825	302.20833
2130.475	296.20833
2133.124	282.875
2135.771	272.875
2138.416	291.20833
2141.059	256.875
2143.7	253.20833
2146.339	232.875
2148.977	212.20833
2151.613	230.54167
2154.247	227.54167
2156.879	219.20833
2159.51	207.54167
2162.138	212.875
2164.765	208.54167
2167.39	197.54167
2170.013	220.20833
2172.634	216.54167
2175.254	202.875
2177.872	241.875
2180.488	193.54167
2183.102	198.54167
2185.714	201.875
2188.325	192.20833
2190.934	201.875
2193.541	201.54167
2196.146	194.875
2198.75	181.54167
2201.351	191.20833
2203.951	179.20833
2206.549	191.54167
2209.146	189.20833
2211.74	185.875
2214.333	191.875
2216.924	178.54167
2219.514	190.875
2222.101	183.54167
2224.687	193.875
2227.271	172.54167
2229.853	173.875
2232.433	160.875
2235.012	186.20833
2237.589	182.20833
2240.164	189.875
2242.738	175.20833
2245.309	168.54167
2247.879	194.54167
2250.448	178.54167
2253.014	168.20833
2255.579	162.875
2258.142	170.54167
2260.703	171.875
2263.262	165.20833
2265.82	158.20833
2268.376	177.20833
2270.93	173.54167
2273.483	158.20833
2276.033	175.875
2278.583	162.875
2281.13	159.20833
2283.675	154.54167
2286.219	162.20833
2288.761	169.20833
2291.302	173.875
2293.841	181.20833
2296.377	157.875
2298.913	166.875
2301.446	177.875
2303.978	163.54167
2306.508	160.875
2309.037	170.875
2311.563	167.20833
2314.088	161.54167
2316.612	150.20833
2319.133	167.875
2321.653	166.875
2324.171	158.875
2326.688	167.875
2329.202	163.20833
2331.715	161.20833
2334.227	163.875
2336.736	163.875
2339.244	158.54167
2341.751	150.20833
2344.255	166.20833
2346.758	158.20833
2349.259	148.20833
2351.759	154.20833
2354.257	149.20833
2356.753	150.875
2359.247	151.54167
2361.74	152.875
2364.231	153.875
2366.721	162.875
2369.209	149.54167
2371.695	158.20833
2374.179	145.875
2376.662	145.20833
2379.143	165.20833
2381.622	152.54167
2384.1	159.20833
2386.576	151.875
2389.051	162.20833
2391.524	166.54167
2393.995	163.875
2396.464	148.54167
2398.932	147.875
2401.398	153.54167
2403.863	148.20833
2406.325	143.20833
2408.787	152.54167
2411.246	145.20833
2413.704	147.54167
2416.16	141.54167
2418.615	145.875
2421.068	151.875
2423.519	145.875
2425.969	143.875
2428.417	155.875
2430.863	173.54167
2433.308	158.20833
2435.751	148.875
2438.193	150.875
2440.633	156.20833
2443.071	160.875
2445.508	141.54167
2447.943	147.54167
2450.376	146.54167
2452.808	153.20833
2455.238	137.54167
2457.667	171.875
2460.093	139.20833
2462.519	134.54167
2464.942	138.875
2467.365	150.875
2469.785	147.875
2472.204	136.875
2474.621	140.875
2477.037	162.54167
2479.451	135.875
2481.863	132.54167
2484.274	135.54167
2486.683	144.54167
2489.091	153.54167
2491.497	148.875
2493.901	146.54167
2496.304	145.875
2498.705	149.875
2501.105	145.54167
2503.503	159.875
2505.899	138.875
2508.294	160.875
2510.687	135.54167
2513.079	143.20833
2515.469	130.54167
2517.858	141.54167
2520.245	154.875
2522.63	135.54167
2525.014	142.20833
2527.396	138.20833
2529.776	137.875
2532.156	143.875
2534.533	134.20833
2536.909	132.54167
2539.283	121.20833
2541.656	138.20833
2544.027	147.875
2546.397	143.20833
2548.765	131.875
2551.131	143.20833
2553.496	145.875
2555.86	145.54167
2558.221	146.54167
2560.582	137.54167
2562.94	126.54167
2565.298	136.54167
2567.653	148.20833
2570.007	126.20833
2572.36	145.20833
2574.711	135.54167
2577.06	151.875
2579.408	139.875
2581.754	136.875
2584.099	131.875
2586.442	133.20833
2588.784	144.54167
2591.124	136.875
2593.463	137.875
2595.8	141.54167
2598.135	126.54167
2600.469	136.20833
2602.802	144.875
2605.133	147.875
2607.462	128.54167
2609.79	126.875
2612.116	150.20833
2614.441	133.20833
2616.764	138.875
2619.086	134.20833
2621.406	137.20833
2623.725	148.54167
2626.042	137.54167
2628.358	133.20833
2630.672	140.54167
2632.985	147.875
2635.296	140.20833
2637.606	135.875
2639.914	130.875
2642.22	134.54167
2644.525	137.20833
2646.829	139.54167
2649.131	150.875
2651.432	141.54167
2653.731	133.20833
2656.028	149.54167
2658.324	145.875
2660.619	132.875
2662.912	149.875
2665.204	129.20833
2667.494	146.20833
2669.782	136.54167
2672.07	151.54167
2674.355	150.54167
2676.639	142.20833
2678.922	136.875
2681.203	144.54167
2683.483	133.54167
2685.761	133.875
2688.038	149.875
2690.313	151.875
2692.587	143.875
2694.859	138.875
2697.13	143.54167
2699.399	141.20833
2701.667	150.20833
2703.933	149.54167
2706.198	154.54167
2708.461	156.875
2710.723	155.875
2712.984	147.54167
2715.243	158.54167
2717.5	145.875
2719.757	151.875
2722.011	150.875
2724.264	158.54167
2726.516	163.54167
2728.766	136.20833
2731.015	154.20833
2733.262	151.20833
2735.508	149.54167
2737.753	149.20833
2739.996	136.20833
2742.237	137.875
2744.477	152.875
2746.716	160.875
2748.953	158.54167
2751.189	153.875
2753.423	152.875
2755.656	145.54167
2757.887	136.54167
2760.117	144.20833
2762.346	136.875
2764.573	136.20833
2766.798	140.20833
2769.022	145.20833
2771.245	142.20833
2773.467	146.20833
2775.686	139.54167
2777.905	147.875
2780.122	146.875
2782.337	152.54167
2784.552	143.20833
2786.764	147.54167
2788.976	145.20833
2791.186	149.20833
2793.394	143.20833
2795.601	158.54167
2797.807	157.875
2800.011	153.20833
2802.214	160.875
2804.415	156.875
2806.615	159.54167
2808.814	154.875
2811.011	162.54167
2813.206	160.20833
2815.401	167.875
2817.594	166.875
2819.785	168.20833
2821.975	158.875
2824.164	161.20833
2826.351	161.875
2828.537	174.54167
2830.722	176.875
2832.905	167.54167
2835.086	179.875
2837.267	192.54167
2839.445	191.20833
2841.623	189.20833
2843.799	188.54167
2845.974	192.875
2848.147	196.20833
2850.319	207.875
2852.489	209.20833
2854.659	220.20833
2856.826	214.20833
2858.993	236.875
2861.158	210.20833
2863.321	221.54167
2865.483	237.20833
2867.644	229.54167
2869.804	227.54167
2871.962	220.54167
2874.118	228.54167
2876.274	227.875
2878.428	231.20833
2880.58	233.20833
2882.731	216.54167
2884.881	220.54167
2887.03	224.54167
2889.177	223.54167
2891.322	229.875
2893.467	220.20833
2895.61	222.875
2897.751	240.20833
2899.892	224.54167
2902.03	231.20833
2904.168	223.20833
2906.304	231.875
2908.439	244.875
2910.572	224.20833
2912.704	232.875
2914.835	239.20833
2916.965	237.20833
2919.093	256.20833
2921.219	224.875
2923.345	249.875
2925.469	237.54167
2927.591	232.54167
2929.712	221.20833
2931.832	231.20833
2933.951	229.875
2936.068	219.875
2938.184	218.875
2940.299	213.54167
2942.412	207.875
2944.524	197.20833
2946.634	203.875
2948.744	180.54167
2950.851	218.54167
2952.958	188.54167
2955.063	193.875
2957.167	186.20833
2959.269	179.20833
2961.371	205.875
2963.471	178.875
2965.569	201.54167
2967.666	170.20833
2969.762	175.875
2971.857	168.20833
2973.95	163.54167
2976.042	172.875
2978.133	166.20833
2980.222	168.54167
2982.31	156.54167
2984.396	139.20833
2986.482	142.20833
2988.566	151.875
2990.648	152.20833
2992.73	151.20833
2994.81	138.875
2996.889	155.54167
2998.966	148.875
3001.042	163.54167
3003.117	143.875
3005.191	155.20833
3007.263	156.875
3009.334	149.54167
3011.403	147.54167
3013.472	145.20833
3015.539	158.54167
3017.604	172.875
3019.669	132.54167
3021.732	142.20833
3023.794	145.54167
3025.854	133.20833
3027.914	134.20833
3029.971	138.54167
3032.028	138.20833
3034.083	146.54167
3036.137	139.875
3038.19	127.20833
3040.242	124.20833
3042.292	122.20833
3044.341	129.54167
3046.388	145.54167
3048.435	121.20833
3050.48	141.54167
3052.524	125.875
3054.566	115.875
3056.607	130.20833
3058.647	121.875
3060.686	108.20833
3062.723	104.20833
3064.759	105.875
3066.794	-0.125
3068.828	-0.45833
3070.86	2.20833
