-0.839	127.79167
3.438	155.125
7.711	67.125
11.981	39.125
16.247	30.79167
20.509	35.79167
24.768	34.45833
29.024	43.79167
33.276	27.45833
37.524	42.79167
41.769	32.79167
46.01	25.79167
50.247	45.79167
54.481	50.45833
58.712	54.45833
62.939	35.79167
67.162	52.125
71.382	45.79167
75.599	36.79167
79.812	40.79167
84.021	62.125
88.227	41.125
92.429	49.45833
96.628	38.45833
100.823	54.125
105.015	52.45833
109.204	46.79167
113.388	58.125
117.57	45.125
121.748	56.125
125.922	46.45833
130.093	61.45833
134.261	60.125
138.425	49.45833
142.585	82.79167
146.742	60.79167
150.896	76.125
155.046	72.79167
159.193	105.125
163.336	153.79167
167.476	259.45833
171.613	455.45833
175.746	728.79167
179.875	1062.45833
184.002	1365.125
188.124	1612.45833
192.244	1689.125
196.36	1682.79167
200.472	1692.79167
204.581	1666.45833
208.687	1616.125
212.79	1611.125
216.889	1624.45833
220.984	1661.45833
225.077	1666.125
229.165	1665.45833
233.251	1684.79167
237.333	1663.79167
241.412	1649.125
245.487	1646.79167
249.559	1627.45833
253.628	1640.79167
257.694	1619.125
261.756	1606.125
265.814	1587.79167
269.87	1511.79167
273.922	1485.125
277.97	1469.45833
282.016	1454.125
286.058	1439.125
290.097	1468.45833
294.132	1479.45833
298.164	1469.45833
302.193	1414.45833
306.219	1336.45833
310.241	1248.125
314.26	1184.79167
318.276	1121.79167
322.288	1083.45833
326.297	1045.79167
330.303	1023.45833
334.305	1010.45833
338.305	999.79167
342.301	985.79167
346.294	995.125
350.283	986.79167
354.269	976.125
358.252	969.79167
362.232	986.79167
366.209	975.125
370.182	961.79167
374.152	956.125
378.119	968.79167
382.083	947.125
386.043	973.79167
390	953.125
393.954	968.125
397.905	970.79167
401.852	987.45833
405.797	963.125
409.738	963.45833
413.676	992.79167
417.61	1014.45833
421.542	970.45833
425.47	952.79167
429.396	942.79167
433.318	935.45833
437.236	938.45833
441.152	958.79167
445.065	905.45833
448.974	928.79167
452.88	926.79167
456.783	914.45833
460.683	919.45833
464.58	921.79167
468.473	921.125
472.364	935.125
476.251	917.125
480.135	906.45833
484.016	919.125
487.894	936.79167
491.769	951.79167
495.641	940.125
499.509	941.45833
503.375	950.45833
507.237	934.79167
511.096	940.45833
514.952	943.79167
518.805	933.79167
522.655	943.45833
526.502	926.125
530.346	941.79167
534.187	936.79167
538.024	938.125
541.859	942.79167
545.69	948.45833
549.519	942.45833
553.344	946.45833
557.166	908.79167
560.985	914.125
564.802	921.125
568.615	904.125
572.425	892.45833
576.232	887.79167
580.036	901.125
583.836	898.45833
587.634	901.79167
591.429	892.125
595.221	913.125
599.01	911.125
602.796	909.45833
606.578	907.45833
610.358	919.125
614.135	913.125
617.909	909.79167
621.679	895.79167
625.447	891.79167
629.212	902.79167
632.973	909.79167
636.732	904.125
640.488	907.79167
644.241	878.79167
647.991	885.79167
651.737	914.45833
655.481	870.45833
659.222	887.125
662.96	887.45833
666.695	904.79167
670.427	891.79167
674.156	908.45833
677.882	902.45833
681.605	904.125
685.325	878.125
689.043	906.79167
692.757	877.125
696.468	886.125
700.177	887.125
703.882	858.125
707.585	855.79167
711.284	863.45833
714.981	855.79167
718.675	865.125
722.366	875.45833
726.054	853.125
729.739	866.125
733.421	861.125
737.1	859.45833
740.777	860.45833
744.45	866.45833
748.121	868.79167
751.789	896.125
755.453	873.45833
759.115	884.79167
762.774	879.79167
766.431	887.45833
770.084	891.79167
773.734	882.125
777.382	909.125
781.027	904.125
784.669	916.45833
788.308	912.125
791.944	923.79167
795.577	921.125
799.208	922.79167
802.835	918.125
806.46	938.125
810.082	920.125
813.701	925.45833
817.317	939.79167
820.931	930.79167
824.542	938.45833
828.149	931.125
831.754	917.45833
835.357	908.45833
838.956	921.79167
842.553	928.125
846.146	913.79167
849.737	884.125
853.326	894.79167
856.911	890.79167
860.493	910.45833
864.073	912.79167
867.65	941.45833
871.225	932.45833
874.796	918.79167
878.365	907.79167
881.931	923.125
885.494	933.125
889.054	925.79167
892.612	937.125
896.166	907.125
899.719	886.45833
903.268	877.79167
906.814	881.45833
910.358	880.79167
913.899	873.125
917.438	878.125
920.973	847.45833
924.506	863.45833
928.036	888.125
931.564	898.79167
935.088	911.125
938.61	901.79167
942.129	899.45833
945.646	913.45833
949.16	923.79167
952.671	923.79167
956.179	939.79167
959.685	920.125
963.188	933.79167
966.688	914.79167
970.185	888.79167
973.68	865.45833
977.173	860.79167
980.662	853.125
984.149	860.79167
987.633	831.125
991.114	848.79167
994.593	866.45833
998.069	881.79167
1001.542	907.79167
1005.013	895.79167
1008.481	836.45833
1011.947	835.125
1015.409	827.45833
1018.869	825.45833
1022.327	834.79167
1025.782	817.125
1029.234	805.45833
1032.683	802.79167
1036.13	782.79167
1039.574	749.79167
1043.016	745.45833
1046.455	739.79167
1049.891	721.45833
1053.325	739.125
1056.756	732.79167
1060.184	737.45833
1063.61	719.45833
1067.033	732.45833
1070.454	733.125
1073.872	757.79167
1077.287	730.125
1080.7	735.45833
1084.11	734.79167
1087.517	741.45833
1090.922	719.45833
1094.325	704.79167
1097.724	720.45833
1101.122	707.79167
1104.516	705.125
1107.908	688.45833
1111.298	705.125
1114.684	721.45833
1118.069	714.125
1121.45	727.79167
1124.83	705.79167
1128.206	727.125
1131.58	733.125
1134.951	744.45833
1138.32	750.45833
1141.687	782.125
1145.05	795.79167
1148.412	794.45833
1151.77	794.79167
1155.126	799.45833
1158.48	782.125
1161.831	796.125
1165.18	776.79167
1168.525	807.79167
1171.869	804.79167
1175.21	808.45833
1178.548	822.45833
1181.884	838.79167
1185.217	819.45833
1188.548	859.45833
1191.877	855.79167
1195.202	910.79167
1198.526	918.125
1201.846	919.125
1205.165	920.125
1208.48	924.79167
1211.794	922.125
1215.104	918.45833
1218.413	915.79167
1221.719	909.45833
1225.022	880.45833
1228.323	874.45833
1231.621	890.79167
1234.917	875.125
1238.21	899.45833
1241.501	865.125
1244.79	870.45833
1248.076	849.45833
1251.359	870.45833
1254.64	919.45833
1257.919	893.79167
1261.195	890.45833
1264.468	900.79167
1267.74	922.125
1271.008	913.125
1274.275	910.45833
1277.538	904.79167
1280.8	918.45833
1284.059	908.79167
1287.315	924.125
1290.569	913.125
1293.821	921.125
1297.07	929.125
1300.317	931.45833
1303.562	933.79167
1306.803	922.45833
1310.043	930.79167
1313.28	915.45833
1316.515	910.45833
1319.747	921.79167
1322.977	896.45833
1326.204	897.79167
1329.429	879.45833
1332.652	884.125
1335.872	877.79167
1339.09	853.79167
1342.306	881.79167
1345.519	858.79167
1348.729	848.79167
1351.938	861.79167
1355.144	833.45833
1358.347	841.79167
1361.548	846.125
1364.747	844.125
1367.944	817.125
1371.138	831.125
1374.329	821.125
1377.518	829.125
1380.705	831.125
1383.89	842.45833
1387.072	786.45833
1390.252	782.45833
1393.429	758.125
1396.605	749.125
1399.777	709.125
1402.948	713.125
1406.116	705.45833
1409.282	703.79167
1412.445	708.45833
1415.606	727.125
1418.765	716.79167
1421.921	730.79167
1425.075	735.79167
1428.227	746.79167
1431.376	781.79167
1434.524	805.45833
1437.668	829.125
1440.811	839.45833
1443.951	831.79167
1447.089	834.45833
1450.224	840.79167
1453.357	816.79167
1456.488	819.79167
1459.617	817.125
1462.743	811.45833
1465.867	778.79167
1468.989	775.45833
1472.108	774.45833
1475.225	758.79167
1478.34	738.45833
1481.453	743.125
1484.563	729.79167
1487.671	754.45833
1490.776	761.79167
1493.88	760.45833
1496.981	782.45833
1500.08	785.125
1503.176	784.45833
1506.271	794.45833
1509.363	799.79167
1512.452	803.125
1515.54	815.125
1518.625	812.45833
1521.708	851.125
1524.789	871.45833
1527.867	889.79167
1530.944	933.79167
1534.018	951.125
1537.089	992.79167
1540.159	1012.79167
1543.226	1006.79167
1546.291	991.125
1549.354	985.45833
1552.415	955.45833
1555.473	950.125
1558.529	932.125
1561.583	923.79167
1564.634	906.45833
1567.684	895.79167
1570.731	904.45833
1573.776	904.125
1576.819	929.45833
1579.859	927.45833
1582.898	946.125
1585.934	965.45833
1588.968	961.45833
1591.999	940.45833
1595.029	940.45833
1598.056	957.79167
1601.081	967.45833
1604.104	971.79167
1607.125	959.125
1610.144	935.45833
1613.16	907.125
1616.174	877.125
1619.186	878.45833
1622.196	858.79167
1625.203	829.79167
1628.209	830.79167
1631.212	823.125
1634.213	827.125
1637.212	827.45833
1640.209	813.125
1643.203	794.125
1646.196	767.125
1649.186	741.45833
1652.174	732.125
1655.16	711.125
1658.144	698.125
1661.125	668.79167
1664.105	642.45833
1667.082	622.125
1670.057	576.125
1673.03	561.125
1676.001	538.125
1678.97	498.79167
1681.937	482.45833
1684.901	458.79167
1687.863	454.125
1690.824	424.79167
1693.782	438.79167
1696.738	403.79167
1699.692	411.125
1702.643	384.45833
1705.593	390.45833
1708.54	393.45833
1711.486	401.45833
1714.429	364.79167
1717.37	386.45833
1720.309	364.125
1723.246	376.125
1726.181	360.79167
1729.113	354.125
1732.044	361.79167
1734.972	361.45833
1737.899	369.125
1740.823	374.45833
1743.745	387.45833
1746.665	346.125
1749.583	347.79167
1752.499	331.79167
1755.413	340.79167
1758.325	328.45833
1761.235	335.125
1764.142	321.125
1767.048	313.45833
1769.951	328.125
1772.852	317.125
1775.752	340.125
1778.649	342.79167
1781.544	340.79167
1784.437	306.125
1787.328	320.125
1790.217	309.125
1793.104	298.45833
1795.989	301.125
1798.872	299.125
1801.753	308.79167
1804.631	302.45833
1807.508	303.125
1810.383	306.125
1813.255	304.45833
1816.126	297.125
1818.994	290.45833
1821.861	293.79167
1824.725	294.125
1827.587	293.79167
1830.448	299.45833
1833.306	285.79167
1836.162	305.45833
1839.017	281.125
1841.869	291.79167
1844.719	287.45833
1847.567	272.125
1850.414	274.79167
1853.258	266.45833
1856.1	289.45833
1858.94	291.79167
1861.778	282.45833
1864.614	278.125
1867.448	280.125
1870.28	263.125
1873.111	284.125
1875.939	276.125
1878.765	289.79167
1881.589	276.45833
1884.411	282.45833
1887.231	287.79167
1890.049	275.79167
1892.865	284.45833
1895.68	270.125
1898.492	274.45833
1901.302	271.79167
1904.11	267.45833
1906.916	260.45833
1909.721	268.125
1912.523	277.125
1915.323	254.125
1918.122	257.79167
1920.918	274.125
1923.712	257.45833
1926.505	266.125
1929.295	253.45833
1932.084	269.79167
1934.87	265.125
1937.655	259.125
1940.438	249.79167
1943.218	262.79167
1945.997	262.45833
1948.774	259.79167
1951.549	265.45833
1954.322	249.45833
1957.093	253.45833
1959.862	255.125
1962.629	249.45833
1965.394	255.45833
1968.157	236.45833
1970.918	249.45833
1973.678	239.79167
1976.435	252.125
1979.19	247.79167
1981.944	232.45833
1984.696	242.45833
1987.445	240.79167
1990.193	252.45833
1992.939	247.45833
1995.683	240.45833
1998.425	228.45833
2001.165	258.79167
2003.903	227.45833
2006.639	240.79167
2009.374	243.79167
2012.106	242.79167
2014.837	215.79167
2017.566	241.79167
2020.292	234.125
2023.017	233.45833
2025.74	225.125
2028.461	216.79167
2031.18	239.125
2033.898	225.45833
2036.613	224.125
2039.327	233.79167
2042.038	218.125
2044.748	225.45833
2047.456	235.125
2050.162	214.79167
2052.866	223.79167
2055.568	240.79167
2058.268	216.45833
2060.967	239.45833
2063.663	212.125
2066.358	217.45833
2069.051	210.79167
2071.742	227.45833
2074.431	228.45833
2077.118	215.79167
2079.804	208.45833
2082.487	215.45833
2085.169	232.79167
2087.849	241.45833
2090.527	217.79167
2093.203	223.79167
2095.877	217.79167
2098.55	217.79167
2101.22	230.79167
2103.889	234.125
2106.556	212.79167
2109.221	243.125
2111.884	227.45833
2114.546	245.79167
2117.205	244.45833
2119.863	274.45833
2122.519	270.125
2125.173	293.125
2127.825	320.45833
2130.475	318.125
2133.124	300.45833
2135.771	287.45833
2138.416	303.79167
2141.059	269.125
2143.7	271.125
2146.339	252.45833
2148.977	227.79167
2151.613	243.45833
2154.247	235.45833
2156.879	223.79167
2159.51	214.79167
2162.138	221.79167
2164.765	214.79167
2167.39	195.125
2170.013	226.125
2172.634	221.79167
2175.254	202.79167
2177.872	246.45833
2180.488	196.125
2183.102	207.45833
2185.714	202.125
2188.325	197.125
2190.934	203.45833
2193.541	203.79167
2196.146	194.45833
2198.75	190.45833
2201.351	190.45833
2203.951	187.79167
2206.549	198.79167
2209.146	186.45833
2211.74	182.45833
2214.333	194.79167
2216.924	180.45833
2219.514	183.45833
2222.101	184.79167
2224.687	202.125
2227.271	176.45833
2229.853	178.79167
2232.433	165.79167
2235.012	191.125
2237.589	184.45833
2240.164	194.45833
2242.738	176.45833
2245.309	172.79167
2247.879	188.125
2250.448	186.79167
2253.014	165.45833
2255.579	164.125
2258.142	171.79167
2260.703	170.79167
2263.262	170.45833
2265.82	160.79167
2268.376	178.45833
2270.93	168.45833
2273.483	157.45833
2276.033	176.125
2278.583	161.45833
2281.13	160.79167
2283.675	156.45833
2286.219	162.79167
2288.761	170.125
2291.302	171.45833
2293.841	180.45833
2296.377	157.125
2298.913	166.45833
2301.446	178.125
2303.978	165.79167
2306.508	159.79167
2309.037	168.79167
2311.563	160.45833
2314.088	160.45833
2316.612	150.125
2319.133	162.125
2321.653	165.45833
2324.171	151.79167
2326.688	168.45833
2329.202	160.79167
2331.715	158.125
2334.227	162.79167
2336.736	154.79167
2339.244	153.125
2341.751	143.125
2344.255	158.79167
2346.758	158.79167
2349.259	146.125
2351.759	159.45833
2354.257	144.79167
2356.753	141.79167
2359.247	149.79167
2361.74	150.125
2364.231	149.125
2366.721	157.45833
2369.209	146.125
2371.695	150.79167
2374.179	144.79167
2376.662	133.79167
2379.143	160.45833
2381.622	141.79167
2384.1	156.79167
2386.576	148.45833
2389.051	157.45833
2391.524	158.45833
2393.995	154.45833
2396.464	142.79167
2398.932	145.45833
2401.398	150.45833
2403.863	143.79167
2406.325	141.79167
2408.787	148.79167
2411.246	142.79167
2413.704	145.79167
2416.16	139.45833
2418.615	146.45833
2421.068	150.45833
2423.519	138.79167
2425.969	133.45833
2428.417	153.45833
2430.863	163.45833
2433.308	148.125
2435.751	144.125
2438.193	143.125
2440.633	142.45833
2443.071	149.45833
2445.508	141.45833
2447.943	142.45833
2450.376	135.125
2452.808	146.45833
2455.238	131.125
2457.667	167.79167
2460.093	132.45833
2462.519	127.125
2464.942	127.45833
2467.365	140.125
2469.785	143.45833
2472.204	135.125
2474.621	132.125
2477.037	147.45833
2479.451	122.79167
2481.863	127.79167
2484.274	130.45833
2486.683	133.79167
2489.091	142.79167
2491.497	137.45833
2493.901	135.79167
2496.304	128.79167
2498.705	141.45833
2501.105	129.45833
2503.503	150.125
2505.899	130.45833
2508.294	152.125
2510.687	129.125
2513.079	130.79167
2515.469	126.45833
2517.858	129.45833
2520.245	145.45833
2522.63	134.45833
2525.014	131.125
2527.396	121.79167
2529.776	124.125
2532.156	135.79167
2534.533	116.79167
2536.909	117.125
2539.283	108.45833
2541.656	120.79167
2544.027	140.125
2546.397	136.79167
2548.765	124.45833
2551.131	130.79167
2553.496	131.125
2555.86	131.79167
2558.221	133.45833
2560.582	125.125
2562.94	122.125
2565.298	126.79167
2567.653	137.45833
2570.007	115.45833
2572.36	127.79167
2574.711	118.79167
2577.06	136.79167
2579.408	125.79167
2581.754	124.125
2584.099	125.45833
2586.442	121.45833
2588.784	131.125
2591.124	119.79167
2593.463	125.125
2595.8	126.45833
2598.135	113.45833
2600.469	115.79167
2602.802	129.125
2605.133	136.79167
2607.462	125.45833
2609.79	112.45833
2612.116	128.79167
2614.441	122.125
2616.764	126.79167
2619.086	125.125
2621.406	118.125
2623.725	129.79167
2626.042	120.79167
2628.358	115.125
2630.672	123.125
2632.985	130.45833
2635.296	123.125
2637.606	116.79167
2639.914	115.45833
2642.22	112.45833
2644.525	117.125
2646.829	121.125
2649.131	140.125
2651.432	126.79167
2653.731	117.45833
2656.028	124.45833
2658.324	129.45833
2660.619	110.125
2662.912	125.45833
2665.204	111.79167
2667.494	122.45833
2669.782	116.45833
2672.07	125.45833
2674.355	133.125
2676.639	123.45833
2678.922	114.45833
2681.203	124.79167
2683.483	113.125
2685.761	105.125
2688.038	127.125
2690.313	134.125
2692.587	118.45833
2694.859	116.45833
2697.13	119.125
2699.399	125.45833
2701.667	126.45833
2703.933	121.125
2706.198	133.45833
2708.461	130.79167
2710.723	129.125
2712.984	125.79167
2715.243	129.125
2717.5	117.45833
2719.757	131.125
2722.011	125.45833
2724.264	133.79167
2726.516	141.125
2728.766	121.125
2731.015	125.79167
2733.262	123.45833
2735.508	121.45833
2737.753	130.79167
2739.996	115.125
2742.237	116.45833
2744.477	127.125
2746.716	137.79167
2748.953	129.79167
2751.189	135.125
2753.423	126.125
2755.656	119.125
2757.887	115.45833
2760.117	119.45833
2762.346	111.125
2764.573	109.45833
2766.798	114.79167
2769.022	120.45833
2771.245	113.79167
2773.467	116.125
2775.686	118.45833
2777.905	121.45833
2780.122	114.125
2782.337	124.79167
2784.552	114.125
2786.764	116.79167
2788.976	110.45833
2791.186	118.79167
2793.394	112.125
2795.601	122.79167
2797.807	128.79167
2800.011	123.125
2802.214	129.79167
2804.415	128.45833
2806.615	124.79167
2808.814	127.125
2811.011	134.45833
2813.206	128.125
2815.401	140.45833
2817.594	138.79167
2819.785	139.125
2821.975	131.125
2824.164	130.125
2826.351	138.79167
2828.537	149.125
2830.722	140.45833
2832.905	140.79167
2835.086	143.79167
2837.267	168.45833
2839.445	156.79167
2841.623	158.79167
2843.799	160.125
2845.974	169.125
2848.147	169.45833
2850.319	181.45833
2852.489	186.45833
2854.659	193.45833
2856.826	187.79167
2858.993	205.125
2861.158	182.45833
2863.321	189.125
2865.483	210.79167
2867.644	205.125
2869.804	201.125
2871.962	194.45833
2874.118	201.79167
2876.274	205.45833
2878.428	200.125
2880.58	206.79167
2882.731	194.125
2884.881	197.125
2887.03	205.45833
2889.177	200.45833
2891.322	210.79167
2893.467	191.125
2895.61	198.45833
2897.751	205.45833
2899.892	199.125
2902.03	204.45833
2904.168	203.125
2906.304	198.125
2908.439	220.125
2910.572	196.125
2912.704	202.79167
2914.835	206.45833
2916.965	211.125
2919.093	222.125
2921.219	195.125
2923.345	218.79167
2925.469	205.79167
2927.591	203.79167
2929.712	190.45833
2931.832	197.125
2933.951	199.45833
2936.068	191.125
2938.184	188.45833
2940.299	178.125
2942.412	180.79167
2944.524	161.79167
2946.634	171.79167
2948.744	151.79167
2950.851	183.125
2952.958	153.79167
2955.063	160.125
2957.167	154.45833
2959.269	140.79167
2961.371	169.125
2963.471	142.45833
2965.569	159.125
2967.666	130.45833
2969.762	129.79167
2971.857	134.79167
2973.95	120.45833
2976.042	133.79167
2978.133	127.125
2980.222	125.79167
2982.31	119.45833
2984.396	106.125
2986.482	113.79167
2988.566	115.125
2990.648	113.125
2992.73	115.79167
2994.81	100.79167
2996.889	115.125
2998.966	109.45833
3001.042	122.125
3003.117	106.79167
3005.191	110.45833
3007.263	115.45833
3009.334	109.45833
3011.403	115.45833
3013.472	107.45833
3015.539	116.45833
3017.604	124.79167
3019.669	93.79167
3021.732	102.79167
3023.794	104.125
3025.854	96.125
3027.914	97.125
3029.971	96.79167
3032.028	94.79167
3034.083	106.79167
3036.137	98.125
3038.19	86.79167
3040.242	84.125
3042.292	84.125
3044.341	92.79167
3046.388	105.45833
3048.435	87.79167
3050.48	105.125
3052.524	91.79167
3054.566	79.45833
3056.607	90.79167
3058.647	85.79167
3060.686	78.125
3062.723	71.125
3064.759	76.125
3066.794	0.45833
3068.828	1.125
3070.86	1.125
