-0.839	151.16667
3.438	165.5
7.711	73.83333
11.981	41.5
16.247	31.83333
20.509	39.83333
24.768	39.16667
29.024	45.5
33.276	32.16667
37.524	43.16667
41.769	32.83333
46.01	29.83333
50.247	44.5
54.481	50.16667
58.712	55.83333
62.939	39.16667
67.162	54.83333
71.382	47.5
75.599	34.83333
79.812	45.5
84.021	61.16667
88.227	45.83333
92.429	54.16667
96.628	37.16667
100.823	53.83333
105.015	54.16667
109.204	47.83333
113.388	56.83333
117.57	40.5
121.748	58.5
125.922	50.16667
130.093	70.83333
134.261	69.5
138.425	60.5
142.585	86.83333
146.742	65.16667
150.896	85.16667
155.046	80.16667
159.193	124.16667
163.336	182.16667
167.476	311.5
171.613	567.16667
175.746	921.16667
179.875	1359.16667
184.002	1771.5
188.124	2086.16667
192.244	2217.83333
196.36	2224.83333
200.472	2209.5
204.581	2180.5
208.687	2121.5
212.79	2129.83333
216.889	2173.5
220.984	2185.83333
225.077	2176.16667
229.165	2186.83333
233.251	2230.16667
237.333	2198.5
241.412	2203.5
245.487	2206.5
249.559	2158.16667
253.628	2155.5
257.694	2136.16667
261.756	2129.16667
265.814	2089.83333
269.87	2031.5
273.922	1975.83333
277.97	1971.83333
282.016	1945.16667
286.058	1928.5
290.097	1953.16667
294.132	1981.83333
298.164	1976.5
302.193	1906.5
306.219	1797.5
310.241	1698.5
314.26	1584.16667
318.276	1531.83333
322.288	1508.16667
326.297	1446.5
330.303	1414.83333
334.305	1404.5
338.305	1416.83333
342.301	1390.83333
346.294	1392.16667
350.283	1375.83333
354.269	1374.83333
358.252	1371.16667
362.232	1368.16667
366.209	1373.5
370.182	1368.5
374.152	1359.83333
378.119	1367.5
382.083	1346.83333
386.043	1371.83333
390	1353.5
393.954	1374.16667
397.905	1364.16667
401.852	1389.5
405.797	1361.83333
409.738	1365.5
413.676	1376.5
417.61	1371.16667
421.542	1365.16667
425.47	1347.83333
429.396	1346.16667
433.318	1335.83333
437.236	1337.83333
441.152	1367.5
445.065	1322.83333
448.974	1335.5
452.88	1311.16667
456.783	1314.83333
460.683	1301.83333
464.58	1334.5
468.473	1320.5
472.364	1326.83333
476.251	1329.83333
480.135	1339.83333
484.016	1347.83333
487.894	1362.83333
491.769	1347.16667
495.641	1355.16667
499.509	1355.16667
503.375	1347.83333
507.237	1356.16667
511.096	1336.16667
514.952	1336.16667
518.805	1338.83333
522.655	1340.83333
526.502	1316.83333
530.346	1341.83333
534.187	1341.16667
538.024	1350.5
541.859	1336.5
545.69	1370.5
549.519	1358.83333
553.344	1346.16667
557.166	1334.5
560.985	1320.5
564.802	1321.16667
568.615	1292.5
572.425	1271.16667
576.232	1278.16667
580.036	1282.83333
583.836	1298.83333
587.634	1299.16667
591.429	1280.5
595.221	1316.5
599.01	1308.5
602.796	1311.16667
606.578	1311.5
610.358	1329.16667
614.135	1316.5
617.909	1314.16667
621.679	1318.5
625.447	1285.16667
629.212	1298.16667
632.973	1295.83333
636.732	1299.16667
640.488	1296.5
644.241	1270.5
647.991	1277.83333
651.737	1307.16667
655.481	1270.16667
659.222	1279.16667
662.96	1268.16667
666.695	1294.5
670.427	1282.83333
674.156	1304.83333
677.882	1279.5
681.605	1276.16667
685.325	1273.16667
689.043	1302.5
692.757	1276.83333
696.468	1282.83333
700.177	1274.83333
703.882	1246.5
707.585	1233.83333
711.284	1246.5
714.981	1227.83333
718.675	1231.5
722.366	1256.16667
726.054	1222.5
729.739	1232.16667
733.421	1245.5
737.1	1229.83333
740.777	1249.16667
744.45	1255.5
748.121	1240.5
751.789	1281.5
755.453	1249.5
759.115	1270.16667
762.774	1263.5
766.431	1265.16667
770.084	1266.5
773.734	1268.5
777.382	1281.5
781.027	1283.5
784.669	1276.16667
788.308	1281.16667
791.944	1300.16667
795.577	1300.83333
799.208	1308.16667
802.835	1319.16667
806.46	1326.16667
810.082	1316.83333
813.701	1317.83333
817.317	1326.16667
820.931	1336.5
824.542	1334.16667
828.149	1296.83333
831.754	1281.5
835.357	1283.16667
838.956	1289.83333
842.553	1298.5
846.146	1267.16667
849.737	1244.5
853.326	1267.83333
856.911	1233.83333
860.493	1267.5
864.073	1264.5
867.65	1264.16667
871.225	1300.83333
874.796	1271.5
878.365	1270.16667
881.931	1285.83333
885.494	1288.83333
889.054	1279.16667
892.612	1287.83333
896.166	1261.83333
899.719	1243.16667
903.268	1217.83333
906.814	1236.16667
910.358	1227.16667
913.899	1220.16667
917.438	1217.16667
920.973	1199.83333
924.506	1207.16667
928.036	1230.16667
931.564	1261.16667
935.088	1261.16667
938.61	1249.16667
942.129	1259.5
945.646	1278.16667
949.16	1268.5
952.671	1275.83333
956.179	1303.83333
959.685	1286.5
963.188	1306.83333
966.688	1297.5
970.185	1259.83333
973.68	1221.83333
977.173	1215.83333
980.662	1211.5
984.149	1218.16667
987.633	1191.5
991.114	1205.83333
994.593	1221.83333
998.069	1249.16667
1001.542	1273.16667
1005.013	1254.16667
1008.481	1188.5
1011.947	1175.16667
1015.409	1163.83333
1018.869	1184.83333
1022.327	1181.16667
1025.782	1165.16667
1029.234	1145.16667
1032.683	1128.5
1036.13	1115.83333
1039.574	1075.83333
1043.016	1053.16667
1046.455	1038.5
1049.891	1039.5
1053.325	1048.16667
1056.756	1019.5
1060.184	1053.83333
1063.61	1030.16667
1067.033	1046.83333
1070.454	1026.16667
1073.872	1052.16667
1077.287	1028.5
1080.7	1038.83333
1084.11	1043.16667
1087.517	1042.16667
1090.922	1022.83333
1094.325	1007.83333
1097.724	999.83333
1101.122	1000.16667
1104.516	1005.83333
1107.908	982.83333
1111.298	989.83333
1114.684	1002.83333
1118.069	996.83333
1121.45	1034.16667
1124.83	1011.16667
1128.206	1034.83333
1131.58	1022.16667
1134.951	1049.5
1138.32	1055.5
1141.687	1110.16667
1145.05	1119.16667
1148.412	1118.16667
1151.77	1102.5
1155.126	1117.83333
1158.48	1091.5
1161.831	1105.5
1165.18	1097.5
1168.525	1112.83333
1171.869	1113.5
1175.21	1121.5
1178.548	1133.83333
1181.884	1153.16667
1185.217	1148.83333
1188.548	1168.5
1191.877	1193.16667
1195.202	1234.16667
1198.526	1252.83333
1201.846	1245.5
1205.165	1260.16667
1208.48	1260.83333
1211.794	1244.16667
1215.104	1248.5
1218.413	1245.5
1221.719	1238.83333
1225.022	1217.16667
1228.323	1210.83333
1231.621	1208.83333
1234.917	1206.83333
1238.21	1226.83333
1241.501	1199.16667
1244.79	1171.5
1248.076	1185.5
1251.359	1208.83333
1254.64	1254.5
1257.919	1225.83333
1261.195	1227.83333
1264.468	1240.16667
1267.74	1252.5
1271.008	1259.5
1274.275	1263.83333
1277.538	1257.83333
1280.8	1266.83333
1284.059	1241.16667
1287.315	1256.83333
1290.569	1257.16667
1293.821	1264.16667
1297.07	1274.83333
1300.317	1276.83333
1303.562	1264.83333
1306.803	1253.5
1310.043	1238.5
1313.28	1248.83333
1316.515	1247.16667
1319.747	1254.16667
1322.977	1224.16667
1326.204	1224.83333
1329.429	1224.83333
1332.652	1218.83333
1335.872	1218.16667
1339.09	1193.5
1342.306	1199.83333
1345.519	1201.83333
1348.729	1189.83333
1351.938	1180.5
1355.144	1179.5
1358.347	1159.5
1361.548	1167.16667
1364.747	1163.16667
1367.944	1145.16667
1371.138	1149.16667
1374.329	1163.5
1377.518	1151.5
1380.705	1158.16667
1383.89	1161.83333
1387.072	1114.16667
1390.252	1078.5
1393.429	1058.5
1396.605	1029.5
1399.777	996.16667
1402.948	989.83333
1406.116	976.5
1409.282	978.5
1412.445	977.16667
1415.606	985.83333
1418.765	982.83333
1421.921	999.16667
1425.075	1022.83333
1428.227	1032.5
1431.376	1073.83333
1434.524	1109.83333
1437.668	1130.83333
1440.811	1128.16667
1443.951	1143.16667
1447.089	1140.16667
1450.224	1145.16667
1453.357	1140.5
1456.488	1132.5
1459.617	1126.83333
1462.743	1108.83333
1465.867	1077.5
1468.989	1067.5
1472.108	1042.5
1475.225	1039.83333
1478.34	1018.5
1481.453	1014.83333
1484.563	1012.16667
1487.671	1025.5
1490.776	1047.16667
1493.88	1035.5
1496.981	1070.83333
1500.08	1079.16667
1503.176	1065.5
1506.271	1095.5
1509.363	1103.83333
1512.452	1099.5
1515.54	1116.5
1518.625	1136.83333
1521.708	1157.16667
1524.789	1198.16667
1527.867	1242.16667
1530.944	1272.5
1534.018	1320.5
1537.089	1359.5
1540.159	1364.5
1543.226	1363.83333
1546.291	1341.5
1549.354	1332.16667
1552.415	1293.16667
1555.473	1283.83333
1558.529	1258.5
1561.583	1244.5
1564.634	1230.83333
1567.684	1220.83333
1570.731	1248.5
1573.776	1241.16667
1576.819	1235.16667
1579.859	1260.83333
1582.898	1274.5
1585.934	1288.5
1588.968	1291.5
1591.999	1270.16667
1595.029	1268.16667
1598.056	1274.16667
1601.081	1294.83333
1604.104	1291.5
1607.125	1271.16667
1610.144	1264.16667
1613.16	1235.5
1616.174	1204.83333
1619.186	1185.16667
1622.196	1154.16667
1625.203	1136.16667
1628.209	1146.16667
1631.212	1127.83333
1634.213	1135.83333
1637.212	1143.5
1640.209	1147.83333
1643.203	1102.83333
1646.196	1078.16667
1649.186	1034.5
1652.174	1024.5
1655.16	987.83333
1658.144	964.5
1661.125	937.5
1664.105	894.83333
1667.082	857.16667
1670.057	804.5
1673.03	774.5
1676.001	733.16667
1678.97	681.5
1681.937	661.5
1684.901	619.83333
1687.863	623.16667
1690.824	592.5
1693.782	596.16667
1696.738	562.16667
1699.692	556.5
1702.643	534.83333
1705.593	541.16667
1708.54	537.83333
1711.486	539.5
1714.429	515.5
1717.37	525.83333
1720.309	504.83333
1723.246	513.16667
1726.181	493.16667
1729.113	504.83333
1732.044	500.5
1734.972	497.16667
1737.899	514.83333
1740.823	503.16667
1743.745	526.83333
1746.665	478.83333
1749.583	474.83333
1752.499	467.5
1755.413	467.5
1758.325	456.83333
1761.235	462.83333
1764.142	454.83333
1767.048	439.16667
1769.951	447.83333
1772.852	448.83333
1775.752	451.83333
1778.649	440.83333
1781.544	460.83333
1784.437	434.5
1787.328	437.5
1790.217	428.5
1793.104	406.16667
1795.989	427.5
1798.872	411.5
1801.753	430.5
1804.631	408.5
1807.508	431.16667
1810.383	419.83333
1813.255	422.16667
1816.126	413.16667
1818.994	407.5
1821.861	404.5
1824.725	410.5
1827.587	409.83333
1830.448	407.16667
1833.306	397.83333
1836.162	412.5
1839.017	396.16667
1841.869	396.16667
1844.719	395.5
1847.567	382.5
1850.414	381.16667
1853.258	389.5
1856.1	397.83333
1858.94	403.16667
1861.778	392.16667
1864.614	376.5
1867.448	396.16667
1870.28	373.16667
1873.111	396.83333
1875.939	388.83333
1878.765	394.16667
1881.589	382.83333
1884.411	373.83333
1887.231	392.83333
1890.049	386.83333
1892.865	389.16667
1895.68	367.16667
1898.492	379.5
1901.302	377.16667
1904.11	365.83333
1906.916	371.5
1909.721	364.16667
1912.523	379.16667
1915.323	357.83333
1918.122	359.83333
1920.918	372.16667
1923.712	353.5
1926.505	364.5
1929.295	340.5
1932.084	361.83333
1934.87	353.83333
1937.655	356.16667
1940.438	342.16667
1943.218	351.16667
1945.997	346.83333
1948.774	364.5
1951.549	359.83333
1954.322	345.83333
1957.093	347.16667
1959.862	348.16667
1962.629	346.16667
1965.394	341.16667
1968.157	331.5
1970.918	344.16667
1973.678	341.5
1976.435	341.16667
1979.19	337.16667
1981.944	323.83333
1984.696	333.16667
1987.445	335.5
1990.193	331.5
1992.939	340.16667
1995.683	335.16667
1998.425	316.16667
2001.165	351.16667
2003.903	313.5
2006.639	319.5
2009.374	329.16667
2012.106	336.5
2014.837	303.16667
2017.566	332.16667
2020.292	316.83333
2023.017	314.5
2025.74	318.16667
2028.461	308.5
2031.18	316.5
2033.898	310.16667
2036.613	310.83333
2039.327	307.83333
2042.038	302.5
2044.748	308.83333
2047.456	311.16667
2050.162	298.5
2052.866	303.83333
2055.568	312.83333
2058.268	303.16667
2060.967	314.83333
2063.663	294.16667
2066.358	285.83333
2069.051	298.5
2071.742	297.83333
2074.431	306.5
2077.118	297.83333
2079.804	289.16667
2082.487	292.16667
2085.169	310.16667
2087.849	323.5
2090.527	292.16667
2093.203	297.83333
2095.877	301.16667
2098.55	299.16667
2101.22	309.5
2103.889	307.5
2106.556	303.16667
2109.221	314.16667
2111.884	314.5
2114.546	331.83333
2117.205	344.83333
2119.863	378.83333
2122.519	373.83333
2125.173	406.16667
2127.825	430.83333
2130.475	437.16667
2133.124	414.5
2135.771	404.83333
2138.416	404.83333
2141.059	376.16667
2143.7	367.5
2146.339	342.83333
2148.977	313.83333
2151.613	321.83333
2154.247	318.5
2156.879	305.16667
2159.51	300.83333
2162.138	298.16667
2164.765	291.16667
2167.39	276.16667
2170.013	298.16667
2172.634	293.83333
2175.254	284.5
2177.872	323.5
2180.488	269.5
2183.102	275.5
2185.714	271.16667
2188.325	268.83333
2190.934	271.5
2193.541	279.16667
2196.146	261.83333
2198.75	262.83333
2201.351	261.5
2203.951	250.16667
2206.549	260.5
2209.146	254.16667
2211.74	250.83333
2214.333	258.5
2216.924	245.83333
2219.514	244.83333
2222.101	246.16667
2224.687	259.83333
2227.271	235.16667
2229.853	240.83333
2232.433	231.5
2235.012	246.5
2237.589	244.5
2240.164	259.83333
2242.738	233.83333
2245.309	237.5
2247.879	248.5
2250.448	245.5
2253.014	223.83333
2255.579	220.16667
2258.142	228.83333
2260.703	226.83333
2263.262	224.16667
2265.82	213.83333
2268.376	237.16667
2270.93	216.16667
2273.483	216.16667
2276.033	228.83333
2278.583	215.5
2281.13	214.16667
2283.675	207.83333
2286.219	216.5
2288.761	222.16667
2291.302	222.5
2293.841	227.83333
2296.377	206.5
2298.913	217.83333
2301.446	229.5
2303.978	219.5
2306.508	212.83333
2309.037	217.83333
2311.563	216.5
2314.088	212.5
2316.612	200.83333
2319.133	211.5
2321.653	208.5
2324.171	200.16667
2326.688	219.83333
2329.202	212.5
2331.715	203.83333
2334.227	211.83333
2336.736	206.16667
2339.244	200.5
2341.751	196.83333
2344.255	210.5
2346.758	205.83333
2349.259	189.16667
2351.759	208.5
2354.257	187.16667
2356.753	192.16667
2359.247	190.16667
2361.74	198.16667
2364.231	193.5
2366.721	206.16667
2369.209	195.16667
2371.695	192.16667
2374.179	190.16667
2376.662	186.83333
2379.143	204.83333
2381.622	191.5
2384.1	200.5
2386.576	187.16667
2389.051	199.16667
2391.524	202.5
2393.995	194.5
2396.464	186.16667
2398.932	184.83333
2401.398	184.16667
2403.863	186.16667
2406.325	179.83333
2408.787	186.83333
2411.246	185.16667
2413.704	187.5
2416.16	181.5
2418.615	180.16667
2421.068	196.5
2423.519	178.83333
2425.969	182.16667
2428.417	189.16667
2430.863	198.16667
2433.308	190.16667
2435.751	184.5
2438.193	179.83333
2440.633	187.5
2443.071	183.5
2445.508	174.83333
2447.943	177.16667
2450.376	174.5
2452.808	183.83333
2455.238	169.16667
2457.667	200.16667
2460.093	172.83333
2462.519	162.16667
2464.942	163.16667
2467.365	177.5
2469.785	175.83333
2472.204	171.16667
2474.621	169.83333
2477.037	186.16667
2479.451	165.5
2481.863	162.83333
2484.274	164.16667
2486.683	172.16667
2489.091	178.16667
2491.497	170.5
2493.901	168.16667
2496.304	166.5
2498.705	177.5
2501.105	165.5
2503.503	193.5
2505.899	156.83333
2508.294	177.16667
2510.687	162.83333
2513.079	162.5
2515.469	161.16667
2517.858	155.5
2520.245	171.5
2522.63	162.5
2525.014	160.83333
2527.396	155.5
2529.776	157.83333
2532.156	163.83333
2534.533	150.16667
2536.909	153.16667
2539.283	143.16667
2541.656	153.83333
2544.027	171.83333
2546.397	161.5
2548.765	152.83333
2551.131	160.83333
2553.496	162.5
2555.86	160.16667
2558.221	160.83333
2560.582	150.5
2562.94	142.83333
2565.298	153.16667
2567.653	168.16667
2570.007	147.16667
2572.36	161.16667
2574.711	147.5
2577.06	165.5
2579.408	154.83333
2581.754	153.16667
2584.099	148.16667
2586.442	148.83333
2588.784	159.16667
2591.124	154.5
2593.463	148.5
2595.8	149.16667
2598.135	143.83333
2600.469	144.5
2602.802	157.16667
2605.133	163.16667
2607.462	136.83333
2609.79	133.5
2612.116	156.83333
2614.441	140.16667
2616.764	153.83333
2619.086	151.16667
2621.406	136.5
2623.725	158.16667
2626.042	148.16667
2628.358	136.5
2630.672	146.5
2632.985	155.83333
2635.296	150.16667
2637.606	144.83333
2639.914	137.5
2642.22	143.16667
2644.525	144.83333
2646.829	142.83333
2649.131	156.5
2651.432	150.5
2653.731	139.5
2656.028	156.83333
2658.324	150.16667
2660.619	134.16667
2662.912	152.16667
2665.204	133.5
2667.494	145.16667
2669.782	135.83333
2672.07	154.83333
2674.355	153.83333
2676.639	146.83333
2678.922	140.5
2681.203	148.83333
2683.483	139.83333
2685.761	133.16667
2688.038	154.5
2690.313	161.16667
2692.587	148.5
2694.859	143.16667
2697.13	139.83333
2699.399	149.16667
2701.667	155.5
2703.933	147.5
2706.198	158.16667
2708.461	158.83333
2710.723	154.16667
2712.984	152.5
2715.243	160.16667
2717.5	147.5
2719.757	154.5
2722.011	145.83333
2724.264	154.16667
2726.516	166.5
2728.766	139.83333
2731.015	147.83333
2733.262	150.83333
2735.508	143.5
2737.753	156.83333
2739.996	136.16667
2742.237	140.16667
2744.477	150.5
2746.716	152.5
2748.953	155.83333
2751.189	156.16667
2753.423	148.5
2755.656	143.83333
2757.887	136.83333
2760.117	135.16667
2762.346	140.5
2764.573	131.83333
2766.798	134.5
2769.022	140.5
2771.245	133.83333
2773.467	140.5
2775.686	134.5
2777.905	146.5
2780.122	139.5
2782.337	144.5
2784.552	136.83333
2786.764	138.83333
2788.976	134.83333
2791.186	141.16667
2793.394	139.16667
2795.601	149.83333
2797.807	153.16667
2800.011	147.5
2802.214	152.83333
2804.415	149.5
2806.615	143.16667
2808.814	150.83333
2811.011	154.5
2813.206	153.83333
2815.401	163.16667
2817.594	163.5
2819.785	164.83333
2821.975	149.83333
2824.164	162.16667
2826.351	161.83333
2828.537	170.16667
2830.722	179.83333
2832.905	167.16667
2835.086	179.5
2837.267	202.5
2839.445	188.83333
2841.623	192.5
2843.799	193.83333
2845.974	204.16667
2848.147	198.16667
2850.319	221.83333
2852.489	230.83333
2854.659	226.16667
2856.826	227.5
2858.993	246.16667
2861.158	228.16667
2863.321	231.16667
2865.483	255.83333
2867.644	248.83333
2869.804	239.16667
2871.962	240.16667
2874.118	242.16667
2876.274	249.16667
2878.428	241.5
2880.58	245.83333
2882.731	227.16667
2884.881	235.83333
2887.03	245.16667
2889.177	234.5
2891.322	250.5
2893.467	240.5
2895.61	234.83333
2897.751	253.16667
2899.892	242.5
2902.03	247.83333
2904.168	244.83333
2906.304	242.5
2908.439	266.16667
2910.572	238.83333
2912.704	247.16667
2914.835	260.5
2916.965	251.83333
2919.093	267.16667
2921.219	233.5
2923.345	270.5
2925.469	250.83333
2927.591	242.83333
2929.712	225.16667
2931.832	245.5
2933.951	233.83333
2936.068	233.16667
2938.184	225.83333
2940.299	214.83333
2942.412	209.16667
2944.524	195.16667
2946.634	209.83333
2948.744	183.5
2950.851	212.83333
2952.958	183.16667
2955.063	189.5
2957.167	173.5
2959.269	160.16667
2961.371	195.16667
2963.471	163.83333
2965.569	181.5
2967.666	154.16667
2969.762	152.16667
2971.857	150.83333
2973.95	145.5
2976.042	156.83333
2978.133	141.16667
2980.222	139.5
2982.31	129.5
2984.396	118.83333
2986.482	121.5
2988.566	127.16667
2990.648	128.83333
2992.73	120.5
2994.81	113.83333
2996.889	132.5
2998.966	121.5
3001.042	130.5
3003.117	121.83333
3005.191	123.16667
3007.263	128.83333
3009.334	120.5
3011.403	122.5
3013.472	116.16667
3015.539	129.16667
3017.604	138.83333
3019.669	109.83333
3021.732	108.83333
3023.794	112.16667
3025.854	104.16667
3027.914	103.5
3029.971	103.5
3032.028	105.5
3034.083	110.16667
3036.137	107.5
3038.19	96.5
3040.242	92.5
3042.292	92.83333
3044.341	100.5
3046.388	115.5
3048.435	88.16667
3050.48	112.83333
3052.524	97.83333
3054.566	87.16667
3056.607	100.83333
3058.647	93.83333
3060.686	83.83333
3062.723	74.83333
3064.759	79.5
3066.794	-1.16667
3068.828	2.16667
3070.86	2.5
