-0.839	135.70833
3.438	152.375
7.711	65.04167
11.981	42.70833
16.247	27.70833
20.509	34.04167
24.768	31.70833
29.024	42.70833
33.276	29.375
37.524	38.375
41.769	29.375
46.01	22.70833
50.247	47.70833
54.481	49.375
58.712	52.70833
62.939	35.375
67.162	50.70833
71.382	40.70833
75.599	36.04167
79.812	44.70833
84.021	62.70833
88.227	40.04167
92.429	49.70833
96.628	39.04167
100.823	48.04167
105.015	50.375
109.204	44.70833
113.388	55.70833
117.57	40.04167
121.748	60.375
125.922	47.70833
130.093	63.70833
134.261	59.04167
138.425	50.70833
142.585	79.70833
146.742	61.04167
150.896	79.375
155.046	68.04167
159.193	106.70833
163.336	149.70833
167.476	257.70833
171.613	452.375
175.746	747.04167
179.875	1069.70833
184.002	1367.70833
188.124	1614.70833
192.244	1673.70833
196.36	1692.04167
200.472	1671.375
204.581	1663.04167
208.687	1598.375
212.79	1589.04167
216.889	1603.375
220.984	1621.375
225.077	1634.70833
229.165	1624.04167
233.251	1620.04167
237.333	1622.375
241.412	1616.70833
245.487	1606.70833
249.559	1585.375
253.628	1576.375
257.694	1561.70833
261.756	1573.375
265.814	1524.375
269.87	1498.375
273.922	1454.375
277.97	1436.04167
282.016	1424.70833
286.058	1419.04167
290.097	1447.70833
294.132	1459.04167
298.164	1448.375
302.193	1403.70833
306.219	1309.04167
310.241	1224.04167
314.26	1152.04167
318.276	1104.04167
322.288	1077.04167
326.297	1037.375
330.303	1010.70833
334.305	993.70833
338.305	986.70833
342.301	975.375
346.294	980.04167
350.283	973.70833
354.269	975.04167
358.252	947.70833
362.232	954.70833
366.209	953.375
370.182	945.70833
374.152	945.375
378.119	954.70833
382.083	933.70833
386.043	955.04167
390	937.375
393.954	953.04167
397.905	954.70833
401.852	961.70833
405.797	946.375
409.738	928.04167
413.676	950.70833
417.61	963.375
421.542	958.375
425.47	934.70833
429.396	930.70833
433.318	919.375
437.236	916.70833
441.152	953.70833
445.065	916.70833
448.974	910.375
452.88	913.04167
456.783	899.04167
460.683	899.375
464.58	906.70833
468.473	922.04167
472.364	920.70833
476.251	906.04167
480.135	919.70833
484.016	930.375
487.894	945.04167
491.769	932.04167
495.641	928.375
499.509	934.375
503.375	940.375
507.237	926.70833
511.096	926.375
514.952	946.375
518.805	968.04167
522.655	978.04167
526.502	950.04167
530.346	938.70833
534.187	943.04167
538.024	940.70833
541.859	923.70833
545.69	966.375
549.519	931.375
553.344	947.04167
557.166	911.375
560.985	911.04167
564.802	910.375
568.615	902.04167
572.425	891.70833
576.232	880.70833
580.036	882.70833
583.836	882.70833
587.634	881.04167
591.429	899.375
595.221	917.04167
599.01	907.04167
602.796	914.375
606.578	922.70833
610.358	905.375
614.135	916.375
617.909	909.70833
621.679	907.70833
625.447	890.375
629.212	887.375
632.973	902.70833
636.732	890.375
640.488	907.375
644.241	880.70833
647.991	875.70833
651.737	905.70833
655.481	861.04167
659.222	876.70833
662.96	879.375
666.695	879.70833
670.427	888.70833
674.156	886.04167
677.882	894.375
681.605	872.70833
685.325	884.375
689.043	898.375
692.757	868.04167
696.468	878.04167
700.177	879.70833
703.882	863.70833
707.585	864.375
711.284	858.375
714.981	855.04167
718.675	865.70833
722.366	863.70833
726.054	857.375
729.739	860.375
733.421	860.04167
737.1	851.04167
740.777	864.04167
744.45	862.04167
748.121	858.70833
751.789	897.04167
755.453	869.04167
759.115	884.375
762.774	867.04167
766.431	881.70833
770.084	885.70833
773.734	877.375
777.382	901.70833
781.027	895.375
784.669	903.70833
788.308	896.70833
791.944	911.70833
795.577	917.70833
799.208	905.04167
802.835	909.70833
806.46	913.70833
810.082	912.375
813.701	917.70833
817.317	917.70833
820.931	919.375
824.542	935.70833
828.149	914.70833
831.754	893.04167
835.357	895.375
838.956	915.70833
842.553	914.375
846.146	887.375
849.737	874.04167
853.326	885.04167
856.911	871.04167
860.493	895.70833
864.073	885.70833
867.65	907.70833
871.225	903.70833
874.796	900.04167
878.365	895.04167
881.931	914.375
885.494	913.375
889.054	907.375
892.612	904.70833
896.166	888.375
899.719	879.70833
903.268	862.04167
906.814	874.70833
910.358	858.70833
913.899	850.04167
917.438	843.04167
920.973	829.70833
924.506	846.04167
928.036	865.04167
931.564	865.70833
935.088	886.375
938.61	877.375
942.129	874.04167
945.646	886.04167
949.16	898.04167
952.671	893.70833
956.179	919.70833
959.685	896.04167
963.188	914.375
966.688	905.70833
970.185	877.375
973.68	852.04167
977.173	860.04167
980.662	831.70833
984.149	860.375
987.633	818.70833
991.114	837.375
994.593	857.70833
998.069	856.375
1001.542	885.04167
1005.013	872.70833
1008.481	828.375
1011.947	814.70833
1015.409	812.375
1018.869	822.04167
1022.327	826.70833
1025.782	801.70833
1029.234	790.375
1032.683	779.375
1036.13	775.375
1039.574	744.70833
1043.016	737.04167
1046.455	727.70833
1049.891	712.375
1053.325	740.70833
1056.756	709.375
1060.184	728.375
1063.61	709.375
1067.033	716.70833
1070.454	711.375
1073.872	741.375
1077.287	717.04167
1080.7	724.04167
1084.11	720.70833
1087.517	711.375
1090.922	715.04167
1094.325	688.375
1097.724	700.04167
1101.122	696.70833
1104.516	702.04167
1107.908	694.375
1111.298	690.04167
1114.684	699.375
1118.069	705.70833
1121.45	718.70833
1124.83	695.70833
1128.206	719.70833
1131.58	713.04167
1134.951	732.375
1138.32	747.375
1141.687	773.70833
1145.05	780.04167
1148.412	801.04167
1151.77	782.70833
1155.126	767.375
1158.48	761.70833
1161.831	788.70833
1165.18	777.04167
1168.525	789.375
1171.869	802.04167
1175.21	797.375
1178.548	801.70833
1181.884	799.04167
1185.217	807.375
1188.548	840.04167
1191.877	834.04167
1195.202	873.04167
1198.526	890.70833
1201.846	897.70833
1205.165	896.375
1208.48	893.04167
1211.794	903.70833
1215.104	891.375
1218.413	865.04167
1221.719	873.04167
1225.022	860.375
1228.323	850.04167
1231.621	855.70833
1234.917	847.04167
1238.21	863.70833
1241.501	850.375
1244.79	835.70833
1248.076	837.70833
1251.359	842.375
1254.64	875.375
1257.919	878.04167
1261.195	871.04167
1264.468	886.04167
1267.74	895.04167
1271.008	887.375
1274.275	892.375
1277.538	892.70833
1280.8	878.04167
1284.059	874.04167
1287.315	886.375
1290.569	886.04167
1293.821	888.375
1297.07	910.375
1300.317	896.70833
1303.562	894.70833
1306.803	896.04167
1310.043	896.70833
1313.28	880.04167
1316.515	884.375
1319.747	894.375
1322.977	859.375
1326.204	855.70833
1329.429	852.04167
1332.652	870.375
1335.872	856.375
1339.09	838.375
1342.306	860.375
1345.519	832.70833
1348.729	812.375
1351.938	826.375
1355.144	823.04167
1358.347	799.04167
1361.548	821.70833
1364.747	810.375
1367.944	797.04167
1371.138	803.04167
1374.329	807.70833
1377.518	803.70833
1380.705	796.70833
1383.89	809.04167
1387.072	777.70833
1390.252	775.70833
1393.429	747.70833
1396.605	728.70833
1399.777	697.04167
1402.948	697.70833
1406.116	688.04167
1409.282	683.70833
1412.445	683.04167
1415.606	689.70833
1418.765	692.70833
1421.921	697.04167
1425.075	711.375
1428.227	725.375
1431.376	755.375
1434.524	782.70833
1437.668	812.375
1440.811	804.375
1443.951	797.04167
1447.089	823.04167
1450.224	805.70833
1453.357	805.70833
1456.488	799.375
1459.617	790.04167
1462.743	772.70833
1465.867	752.375
1468.989	752.375
1472.108	746.375
1475.225	733.04167
1478.34	718.70833
1481.453	718.04167
1484.563	711.70833
1487.671	722.70833
1490.776	735.04167
1493.88	740.04167
1496.981	751.04167
1500.08	769.70833
1503.176	755.04167
1506.271	763.375
1509.363	771.375
1512.452	777.04167
1515.54	786.04167
1518.625	794.04167
1521.708	827.375
1524.789	841.375
1527.867	868.04167
1530.944	892.04167
1534.018	924.70833
1537.089	958.70833
1540.159	976.70833
1543.226	982.70833
1546.291	955.70833
1549.354	946.70833
1552.415	926.04167
1555.473	919.70833
1558.529	899.04167
1561.583	875.375
1564.634	869.70833
1567.684	873.375
1570.731	872.04167
1573.776	885.375
1576.819	884.04167
1579.859	891.70833
1582.898	904.375
1585.934	911.70833
1588.968	913.04167
1591.999	907.70833
1595.029	889.04167
1598.056	909.04167
1601.081	929.04167
1604.104	929.70833
1607.125	907.70833
1610.144	902.70833
1613.16	865.70833
1616.174	856.04167
1619.186	834.04167
1622.196	815.375
1625.203	793.70833
1628.209	796.375
1631.212	792.70833
1634.213	792.70833
1637.212	786.375
1640.209	786.04167
1643.203	758.04167
1646.196	731.375
1649.186	715.70833
1652.174	700.04167
1655.16	676.04167
1658.144	674.04167
1661.125	633.375
1664.105	632.70833
1667.082	609.375
1670.057	566.70833
1673.03	545.375
1676.001	517.375
1678.97	479.70833
1681.937	468.375
1684.901	439.70833
1687.863	441.70833
1690.824	414.04167
1693.782	427.375
1696.738	401.04167
1699.692	401.375
1702.643	378.04167
1705.593	377.04167
1708.54	389.375
1711.486	390.70833
1714.429	365.04167
1717.37	374.70833
1720.309	364.70833
1723.246	369.04167
1726.181	347.70833
1729.113	363.70833
1732.044	357.70833
1734.972	351.375
1737.899	367.70833
1740.823	365.375
1743.745	380.70833
1746.665	336.70833
1749.583	329.375
1752.499	333.04167
1755.413	331.04167
1758.325	322.70833
1761.235	330.70833
1764.142	313.04167
1767.048	313.04167
1769.951	319.04167
1772.852	318.375
1775.752	327.375
1778.649	316.04167
1781.544	337.04167
1784.437	312.04167
1787.328	310.70833
1790.217	305.375
1793.104	285.375
1795.989	294.04167
1798.872	281.70833
1801.753	317.04167
1804.631	298.70833
1807.508	307.70833
1810.383	296.375
1813.255	301.70833
1816.126	293.04167
1818.994	288.04167
1821.861	292.70833
1824.725	293.04167
1827.587	301.04167
1830.448	289.04167
1833.306	282.70833
1836.162	293.70833
1839.017	285.70833
1841.869	293.04167
1844.719	291.375
1847.567	275.375
1850.414	267.70833
1853.258	273.04167
1856.1	290.375
1858.94	286.375
1861.778	282.04167
1864.614	264.375
1867.448	274.70833
1870.28	261.04167
1873.111	290.70833
1875.939	272.70833
1878.765	286.04167
1881.589	273.70833
1884.411	265.70833
1887.231	282.70833
1890.049	274.70833
1892.865	274.70833
1895.68	262.04167
1898.492	273.375
1901.302	274.70833
1904.11	267.70833
1906.916	269.375
1909.721	263.375
1912.523	272.70833
1915.323	263.04167
1918.122	258.04167
1920.918	266.70833
1923.712	257.70833
1926.505	265.375
1929.295	248.70833
1932.084	260.70833
1934.87	261.70833
1937.655	254.04167
1940.438	247.375
1943.218	252.375
1945.997	251.04167
1948.774	256.04167
1951.549	260.375
1954.322	245.04167
1957.093	254.375
1959.862	249.04167
1962.629	247.375
1965.394	240.04167
1968.157	234.04167
1970.918	258.04167
1973.678	237.04167
1976.435	259.70833
1979.19	243.70833
1981.944	226.70833
1984.696	242.04167
1987.445	228.04167
1990.193	243.375
1992.939	251.70833
1995.683	249.70833
1998.425	220.04167
2001.165	267.04167
2003.903	229.70833
2006.639	235.375
2009.374	240.375
2012.106	243.70833
2014.837	224.04167
2017.566	240.04167
2020.292	237.04167
2023.017	223.375
2025.74	222.04167
2028.461	227.375
2031.18	235.04167
2033.898	212.04167
2036.613	224.04167
2039.327	226.70833
2042.038	221.04167
2044.748	226.70833
2047.456	236.04167
2050.162	218.375
2052.866	225.375
2055.568	233.70833
2058.268	216.04167
2060.967	231.04167
2063.663	212.375
2066.358	217.04167
2069.051	210.70833
2071.742	218.04167
2074.431	228.04167
2077.118	210.70833
2079.804	211.70833
2082.487	211.375
2085.169	230.04167
2087.849	237.04167
2090.527	213.375
2093.203	220.70833
2095.877	217.04167
2098.55	219.04167
2101.22	221.375
2103.889	230.04167
2106.556	212.70833
2109.221	234.04167
2111.884	227.04167
2114.546	243.70833
2117.205	243.70833
2119.863	271.70833
2122.519	257.70833
2125.173	280.70833
2127.825	307.04167
2130.475	304.04167
2133.124	287.04167
2135.771	275.04167
2138.416	295.70833
2141.059	260.04167
2143.7	263.375
2146.339	243.70833
2148.977	223.70833
2151.613	239.04167
2154.247	233.70833
2156.879	227.375
2159.51	215.375
2162.138	212.04167
2164.765	210.04167
2167.39	202.70833
2170.013	226.70833
2172.634	215.375
2175.254	203.375
2177.872	239.04167
2180.488	196.70833
2183.102	204.375
2185.714	197.70833
2188.325	198.70833
2190.934	203.70833
2193.541	211.04167
2196.146	203.04167
2198.75	190.04167
2201.351	190.70833
2203.951	180.04167
2206.549	197.04167
2209.146	189.70833
2211.74	181.04167
2214.333	195.70833
2216.924	178.04167
2219.514	183.70833
2222.101	182.375
2224.687	201.04167
2227.271	179.04167
2229.853	180.375
2232.433	168.04167
2235.012	189.70833
2237.589	180.375
2240.164	201.375
2242.738	182.04167
2245.309	173.375
2247.879	190.04167
2250.448	189.70833
2253.014	173.04167
2255.579	168.04167
2258.142	179.375
2260.703	175.375
2263.262	166.375
2265.82	164.70833
2268.376	186.04167
2270.93	164.04167
2273.483	166.375
2276.033	175.04167
2278.583	168.70833
2281.13	167.70833
2283.675	157.70833
2286.219	165.375
2288.761	171.375
2291.302	176.04167
2293.841	184.04167
2296.377	161.70833
2298.913	170.375
2301.446	181.375
2303.978	172.04167
2306.508	168.04167
2309.037	171.04167
2311.563	166.04167
2314.088	171.70833
2316.612	155.375
2319.133	167.375
2321.653	165.375
2324.171	158.70833
2326.688	173.375
2329.202	163.375
2331.715	162.04167
2334.227	167.70833
2336.736	161.70833
2339.244	157.04167
2341.751	146.04167
2344.255	167.70833
2346.758	159.70833
2349.259	152.04167
2351.759	165.70833
2354.257	153.375
2356.753	148.70833
2359.247	150.70833
2361.74	154.04167
2364.231	154.375
2366.721	164.04167
2369.209	156.04167
2371.695	155.70833
2374.179	151.04167
2376.662	143.375
2379.143	170.04167
2381.622	155.04167
2384.1	165.70833
2386.576	149.375
2389.051	169.04167
2391.524	166.04167
2393.995	158.375
2396.464	150.70833
2398.932	147.04167
2401.398	157.375
2403.863	148.70833
2406.325	149.04167
2408.787	152.04167
2411.246	150.70833
2413.704	148.375
2416.16	147.04167
2418.615	149.70833
2421.068	159.70833
2423.519	150.375
2425.969	143.375
2428.417	164.04167
2430.863	169.04167
2433.308	152.70833
2435.751	157.04167
2438.193	146.375
2440.633	153.375
2443.071	157.04167
2445.508	144.70833
2447.943	146.375
2450.376	140.70833
2452.808	154.375
2455.238	142.04167
2457.667	176.375
2460.093	144.04167
2462.519	141.375
2464.942	145.375
2467.365	151.70833
2469.785	152.375
2472.204	140.04167
2474.621	145.04167
2477.037	157.375
2479.451	143.04167
2481.863	137.375
2484.274	138.04167
2486.683	143.375
2489.091	159.375
2491.497	149.375
2493.901	153.375
2496.304	143.04167
2498.705	152.375
2501.105	149.375
2503.503	164.04167
2505.899	141.04167
2508.294	161.70833
2510.687	144.70833
2513.079	142.70833
2515.469	137.70833
2517.858	137.70833
2520.245	159.70833
2522.63	145.375
2525.014	141.375
2527.396	134.70833
2529.776	142.04167
2532.156	144.375
2534.533	138.70833
2536.909	135.375
2539.283	124.375
2541.656	132.70833
2544.027	153.04167
2546.397	142.04167
2548.765	131.70833
2551.131	148.375
2553.496	146.70833
2555.86	144.04167
2558.221	148.04167
2560.582	135.375
2562.94	128.375
2565.298	137.375
2567.653	152.70833
2570.007	128.375
2572.36	149.04167
2574.711	135.70833
2577.06	149.70833
2579.408	144.375
2581.754	138.375
2584.099	137.70833
2586.442	138.70833
2588.784	141.04167
2591.124	137.04167
2593.463	141.70833
2595.8	141.70833
2598.135	132.04167
2600.469	130.375
2602.802	150.375
2605.133	151.04167
2607.462	131.04167
2609.79	126.70833
2612.116	144.375
2614.441	136.70833
2616.764	144.70833
2619.086	137.70833
2621.406	135.04167
2623.725	149.375
2626.042	138.70833
2628.358	132.70833
2630.672	136.70833
2632.985	146.375
2635.296	143.375
2637.606	142.375
2639.914	134.04167
2642.22	136.70833
2644.525	137.375
2646.829	137.375
2649.131	152.70833
2651.432	148.04167
2653.731	137.375
2656.028	149.04167
2658.324	144.375
2660.619	132.70833
2662.912	147.70833
2665.204	130.375
2667.494	148.04167
2669.782	133.70833
2672.07	152.375
2674.355	152.70833
2676.639	146.04167
2678.922	138.375
2681.203	151.04167
2683.483	134.04167
2685.761	128.70833
2688.038	154.04167
2690.313	155.375
2692.587	143.70833
2694.859	141.375
2697.13	145.70833
2699.399	148.04167
2701.667	154.375
2703.933	153.04167
2706.198	152.70833
2708.461	151.70833
2710.723	153.04167
2712.984	151.375
2715.243	155.375
2717.5	150.375
2719.757	157.375
2722.011	150.375
2724.264	158.04167
2726.516	162.04167
2728.766	138.04167
2731.015	151.04167
2733.262	153.70833
2735.508	146.375
2737.753	155.04167
2739.996	133.375
2742.237	145.375
2744.477	160.04167
2746.716	166.04167
2748.953	162.04167
2751.189	156.375
2753.423	155.70833
2755.656	146.04167
2757.887	140.04167
2760.117	147.375
2762.346	139.375
2764.573	137.70833
2766.798	142.375
2769.022	142.04167
2771.245	136.70833
2773.467	148.375
2775.686	146.04167
2777.905	150.70833
2780.122	149.375
2782.337	146.04167
2784.552	144.04167
2786.764	151.375
2788.976	142.70833
2791.186	154.04167
2793.394	147.04167
2795.601	161.04167
2797.807	162.04167
2800.011	151.04167
2802.214	160.04167
2804.415	155.70833
2806.615	158.375
2808.814	158.375
2811.011	153.375
2813.206	157.70833
2815.401	167.04167
2817.594	169.70833
2819.785	171.04167
2821.975	156.70833
2824.164	163.70833
2826.351	162.70833
2828.537	175.70833
2830.722	175.04167
2832.905	166.70833
2835.086	174.70833
2837.267	195.70833
2839.445	186.70833
2841.623	192.04167
2843.799	187.70833
2845.974	194.04167
2848.147	192.70833
2850.319	215.04167
2852.489	221.70833
2854.659	220.375
2856.826	217.04167
2858.993	240.04167
2861.158	219.375
2863.321	225.04167
2865.483	234.375
2867.644	235.375
2869.804	228.04167
2871.962	227.375
2874.118	228.375
2876.274	231.04167
2878.428	226.04167
2880.58	237.04167
2882.731	219.70833
2884.881	229.04167
2887.03	233.375
2889.177	224.375
2891.322	232.70833
2893.467	228.375
2895.61	217.375
2897.751	242.70833
2899.892	230.375
2902.03	230.375
2904.168	226.70833
2906.304	231.375
2908.439	256.04167
2910.572	229.70833
2912.704	238.70833
2914.835	241.375
2916.965	245.04167
2919.093	256.04167
2921.219	225.04167
2923.345	257.375
2925.469	238.70833
2927.591	235.04167
2929.712	227.70833
2931.832	237.04167
2933.951	227.70833
2936.068	227.04167
2938.184	222.375
2940.299	217.70833
2942.412	217.04167
2944.524	200.04167
2946.634	208.70833
2948.744	185.70833
2950.851	222.70833
2952.958	186.70833
2955.063	196.04167
2957.167	192.375
2959.269	177.04167
2961.371	210.04167
2963.471	182.70833
2965.569	197.04167
2967.666	167.70833
2969.762	173.70833
2971.857	166.70833
2973.95	168.70833
2976.042	180.70833
2978.133	165.04167
2980.222	159.70833
2982.31	159.04167
2984.396	143.375
2986.482	150.375
2988.566	155.70833
2990.648	157.375
2992.73	155.375
2994.81	140.375
2996.889	155.375
2998.966	155.375
3001.042	158.375
3003.117	147.375
3005.191	155.375
3007.263	159.375
3009.334	149.70833
3011.403	157.04167
3013.472	146.375
3015.539	160.04167
3017.604	167.70833
3019.669	135.375
3021.732	143.375
3023.794	142.70833
3025.854	138.04167
3027.914	136.04167
3029.971	141.375
3032.028	141.04167
3034.083	148.04167
3036.137	142.375
3038.19	128.375
3040.242	123.375
3042.292	125.70833
3044.341	128.04167
3046.388	143.375
3048.435	119.70833
3050.48	137.375
3052.524	124.70833
3054.566	110.70833
3056.607	125.375
3058.647	120.70833
3060.686	112.375
3062.723	104.70833
3064.759	106.70833
3066.794	0.375
3068.828	-0.29167
3070.86	3.04167
