-0.839	146.95833
3.438	163.625
7.711	64.95833
11.981	44.625
16.247	33.95833
20.509	37.625
24.768	35.625
29.024	43.625
33.276	28.29167
37.524	45.625
41.769	32.625
46.01	30.29167
50.247	46.625
54.481	50.95833
58.712	56.29167
62.939	37.29167
67.162	54.95833
71.382	46.29167
75.599	35.29167
79.812	40.95833
84.021	64.625
88.227	41.29167
92.429	52.625
96.628	38.95833
100.823	51.95833
105.015	51.95833
109.204	45.625
113.388	58.29167
117.57	45.29167
121.748	62.95833
125.922	44.95833
130.093	66.95833
134.261	60.95833
138.425	55.29167
142.585	82.29167
146.742	66.95833
150.896	77.95833
155.046	74.95833
159.193	105.625
163.336	160.29167
167.476	263.95833
171.613	480.95833
175.746	774.95833
179.875	1123.29167
184.002	1451.625
188.124	1700.625
192.244	1801.95833
196.36	1789.29167
200.472	1786.29167
204.581	1761.625
208.687	1708.95833
212.79	1710.29167
216.889	1728.95833
220.984	1743.29167
225.077	1743.625
229.165	1746.29167
233.251	1749.625
237.333	1754.95833
241.412	1725.95833
245.487	1737.625
249.559	1720.95833
253.628	1708.95833
257.694	1692.29167
261.756	1690.95833
265.814	1654.29167
269.87	1615.95833
273.922	1588.625
277.97	1559.29167
282.016	1561.95833
286.058	1537.625
290.097	1564.29167
294.132	1584.29167
298.164	1598.625
302.193	1527.29167
306.219	1458.625
310.241	1363.95833
314.26	1291.95833
318.276	1218.625
322.288	1201.29167
326.297	1154.625
330.303	1150.95833
334.305	1118.95833
338.305	1117.625
342.301	1121.29167
346.294	1113.625
350.283	1099.95833
354.269	1097.625
358.252	1081.95833
362.232	1081.29167
366.209	1096.29167
370.182	1081.625
374.152	1072.95833
378.119	1077.95833
382.083	1065.95833
386.043	1098.625
390	1068.625
393.954	1097.29167
397.905	1086.625
401.852	1090.625
405.797	1083.625
409.738	1084.95833
413.676	1092.95833
417.61	1101.625
421.542	1080.29167
425.47	1067.29167
429.396	1071.95833
433.318	1065.95833
437.236	1059.95833
441.152	1101.625
445.065	1058.625
448.974	1070.625
452.88	1047.625
456.783	1049.29167
460.683	1047.29167
464.58	1059.95833
468.473	1054.95833
472.364	1050.29167
476.251	1046.625
480.135	1048.29167
484.016	1079.29167
487.894	1078.29167
491.769	1075.625
495.641	1079.95833
499.509	1075.29167
503.375	1099.625
507.237	1065.29167
511.096	1074.29167
514.952	1089.95833
518.805	1094.29167
522.655	1112.95833
526.502	1079.29167
530.346	1081.625
534.187	1076.29167
538.024	1068.625
541.859	1082.625
545.69	1086.625
549.519	1073.625
553.344	1070.29167
557.166	1048.29167
560.985	1043.95833
564.802	1062.29167
568.615	1037.29167
572.425	1019.29167
576.232	1020.625
580.036	1024.625
583.836	1037.95833
587.634	1033.29167
591.429	1020.95833
595.221	1051.29167
599.01	1043.95833
602.796	1037.29167
606.578	1061.29167
610.358	1053.625
614.135	1045.95833
617.909	1047.29167
621.679	1043.95833
625.447	1031.29167
629.212	1032.625
632.973	1032.29167
636.732	1016.95833
640.488	1036.29167
644.241	1016.95833
647.991	1013.625
651.737	1033.625
655.481	1005.625
659.222	1012.29167
662.96	1022.29167
666.695	1018.625
670.427	1017.625
674.156	1034.95833
677.882	1023.625
681.605	1029.29167
685.325	1015.95833
689.043	1039.95833
692.757	993.95833
696.468	1006.95833
700.177	1000.29167
703.882	987.625
707.585	984.95833
711.284	983.29167
714.981	977.29167
718.675	977.29167
722.366	988.95833
726.054	960.625
729.739	983.29167
733.421	984.625
737.1	979.625
740.777	997.29167
744.45	983.95833
748.121	998.29167
751.789	1011.625
755.453	996.95833
759.115	1006.625
762.774	1005.29167
766.431	992.95833
770.084	1003.29167
773.734	1004.625
777.382	1009.625
781.027	1022.29167
784.669	1010.29167
788.308	1001.625
791.944	1020.29167
795.577	1033.95833
799.208	1020.625
802.835	1029.625
806.46	1033.95833
810.082	1041.29167
813.701	1043.95833
817.317	1045.29167
820.931	1032.95833
824.542	1048.625
828.149	1023.95833
831.754	1006.95833
835.357	1020.625
838.956	1034.625
842.553	1018.95833
846.146	996.95833
849.737	990.95833
853.326	991.29167
856.911	974.29167
860.493	1000.625
864.073	993.29167
867.65	1032.625
871.225	1017.625
874.796	1014.95833
878.365	997.29167
881.931	1029.29167
885.494	1015.625
889.054	1011.625
892.612	1013.29167
896.166	985.95833
899.719	983.95833
903.268	944.625
906.814	970.29167
910.358	958.29167
913.899	949.29167
917.438	946.29167
920.973	928.625
924.506	939.95833
928.036	964.29167
931.564	977.29167
935.088	988.95833
938.61	974.625
942.129	970.625
945.646	992.625
949.16	989.95833
952.671	1015.625
956.179	1024.95833
959.685	992.625
963.188	1017.29167
966.688	988.95833
970.185	965.29167
973.68	945.625
977.173	950.95833
980.662	932.625
984.149	946.95833
987.633	915.625
991.114	934.625
994.593	955.29167
998.069	958.625
1001.542	984.625
1005.013	970.625
1008.481	911.95833
1011.947	905.95833
1015.409	909.95833
1018.869	903.95833
1022.327	924.95833
1025.782	888.95833
1029.234	870.95833
1032.683	880.29167
1036.13	858.29167
1039.574	847.29167
1043.016	820.625
1046.455	811.29167
1049.891	801.29167
1053.325	809.625
1056.756	802.95833
1060.184	804.625
1063.61	792.625
1067.033	802.29167
1070.454	797.29167
1073.872	815.29167
1077.287	785.625
1080.7	805.625
1084.11	793.29167
1087.517	804.625
1090.922	791.625
1094.325	780.29167
1097.724	776.95833
1101.122	775.625
1104.516	775.29167
1107.908	754.29167
1111.298	767.95833
1114.684	774.625
1118.069	776.625
1121.45	791.625
1124.83	765.95833
1128.206	786.95833
1131.58	800.95833
1134.951	806.95833
1138.32	809.29167
1141.687	846.625
1145.05	849.625
1148.412	864.625
1151.77	842.29167
1155.126	836.625
1158.48	830.29167
1161.831	847.95833
1165.18	837.29167
1168.525	856.625
1171.869	864.625
1175.21	848.625
1178.548	876.625
1181.884	873.95833
1185.217	877.29167
1188.548	899.625
1191.877	910.29167
1195.202	953.95833
1198.526	965.95833
1201.846	958.625
1205.165	962.95833
1208.48	964.625
1211.794	964.95833
1215.104	961.29167
1218.413	949.29167
1221.719	944.95833
1225.022	920.625
1228.323	917.95833
1231.621	931.95833
1234.917	922.95833
1238.21	939.625
1241.501	919.95833
1244.79	898.95833
1248.076	901.29167
1251.359	914.95833
1254.64	955.625
1257.919	937.95833
1261.195	932.625
1264.468	958.625
1267.74	968.95833
1271.008	965.29167
1274.275	965.95833
1277.538	949.625
1280.8	939.95833
1284.059	943.95833
1287.315	948.95833
1290.569	963.29167
1293.821	965.625
1297.07	966.625
1300.317	959.95833
1303.562	966.625
1306.803	955.29167
1310.043	947.29167
1313.28	952.29167
1316.515	941.625
1319.747	947.625
1322.977	929.29167
1326.204	924.95833
1329.429	918.625
1332.652	926.625
1335.872	926.29167
1339.09	913.625
1342.306	908.625
1345.519	896.625
1348.729	892.95833
1351.938	895.95833
1355.144	886.625
1358.347	875.95833
1361.548	875.625
1364.747	873.95833
1367.944	848.29167
1371.138	844.29167
1374.329	858.625
1377.518	858.29167
1380.705	854.29167
1383.89	871.95833
1387.072	837.625
1390.252	829.95833
1393.429	795.95833
1396.605	769.625
1399.777	745.95833
1402.948	748.625
1406.116	740.625
1409.282	744.29167
1412.445	737.95833
1415.606	747.95833
1418.765	757.625
1421.921	772.625
1425.075	759.95833
1428.227	773.95833
1431.376	812.95833
1434.524	832.625
1437.668	855.625
1440.811	860.95833
1443.951	865.29167
1447.089	868.29167
1450.224	853.625
1453.357	877.625
1456.488	855.625
1459.617	851.625
1462.743	833.29167
1465.867	804.625
1468.989	815.625
1472.108	793.625
1475.225	785.625
1478.34	773.625
1481.453	767.29167
1484.563	765.29167
1487.671	784.625
1490.776	788.625
1493.88	787.29167
1496.981	804.95833
1500.08	809.95833
1503.176	813.625
1506.271	807.95833
1509.363	818.625
1512.452	824.95833
1515.54	840.29167
1518.625	840.625
1521.708	865.625
1524.789	890.625
1527.867	906.625
1530.944	949.29167
1534.018	964.29167
1537.089	1016.29167
1540.159	1013.29167
1543.226	1022.625
1546.291	995.95833
1549.354	986.95833
1552.415	980.29167
1555.473	956.29167
1558.529	940.625
1561.583	927.95833
1564.634	916.95833
1567.684	920.95833
1570.731	924.625
1573.776	913.625
1576.819	936.625
1579.859	930.95833
1582.898	946.29167
1585.934	963.625
1588.968	962.29167
1591.999	952.625
1595.029	952.625
1598.056	948.625
1601.081	979.29167
1604.104	972.95833
1607.125	961.95833
1610.144	941.625
1613.16	917.95833
1616.174	907.625
1619.186	885.29167
1622.196	859.625
1625.203	853.29167
1628.209	844.95833
1631.212	831.625
1634.213	829.95833
1637.212	837.29167
1640.209	837.95833
1643.203	801.625
1646.196	778.625
1649.186	758.625
1652.174	757.95833
1655.16	710.95833
1658.144	716.29167
1661.125	691.29167
1664.105	672.625
1667.082	646.625
1670.057	601.95833
1673.03	579.625
1676.001	560.95833
1678.97	523.29167
1681.937	515.29167
1684.901	482.29167
1687.863	481.625
1690.824	457.625
1693.782	464.95833
1696.738	432.625
1699.692	432.95833
1702.643	420.29167
1705.593	421.29167
1708.54	412.95833
1711.486	438.29167
1714.429	407.625
1717.37	415.95833
1720.309	395.29167
1723.246	406.29167
1726.181	390.29167
1729.113	394.29167
1732.044	389.95833
1734.972	387.29167
1737.899	404.95833
1740.823	396.95833
1743.745	421.29167
1746.665	376.95833
1749.583	369.29167
1752.499	368.29167
1755.413	368.95833
1758.325	355.29167
1761.235	368.95833
1764.142	341.625
1767.048	347.95833
1769.951	349.625
1772.852	348.95833
1775.752	348.95833
1778.649	347.95833
1781.544	368.29167
1784.437	332.29167
1787.328	344.625
1790.217	343.625
1793.104	323.29167
1795.989	325.625
1798.872	318.625
1801.753	331.95833
1804.631	339.625
1807.508	342.625
1810.383	333.29167
1813.255	332.95833
1816.126	325.29167
1818.994	325.29167
1821.861	318.29167
1824.725	327.29167
1827.587	327.29167
1830.448	316.625
1833.306	314.95833
1836.162	328.95833
1839.017	315.29167
1841.869	314.95833
1844.719	314.625
1847.567	298.625
1850.414	295.625
1853.258	300.625
1856.1	321.29167
1858.94	320.95833
1861.778	306.29167
1864.614	296.625
1867.448	311.95833
1870.28	287.29167
1873.111	315.625
1875.939	302.95833
1878.765	323.625
1881.589	291.29167
1884.411	308.95833
1887.231	313.625
1890.049	302.95833
1892.865	311.95833
1895.68	295.29167
1898.492	299.29167
1901.302	294.95833
1904.11	293.625
1906.916	297.29167
1909.721	292.625
1912.523	300.29167
1915.323	283.95833
1918.122	279.95833
1920.918	293.95833
1923.712	276.625
1926.505	282.95833
1929.295	266.625
1932.084	288.95833
1934.87	284.95833
1937.655	281.625
1940.438	270.95833
1943.218	282.625
1945.997	283.625
1948.774	290.29167
1951.549	290.625
1954.322	276.625
1957.093	274.29167
1959.862	273.95833
1962.629	272.95833
1965.394	268.625
1968.157	260.29167
1970.918	283.625
1973.678	268.95833
1976.435	280.625
1979.19	267.95833
1981.944	258.625
1984.696	268.95833
1987.445	260.95833
1990.193	262.95833
1992.939	278.625
1995.683	265.625
1998.425	251.95833
2001.165	274.95833
2003.903	244.625
2006.639	258.95833
2009.374	266.29167
2012.106	258.625
2014.837	239.29167
2017.566	266.29167
2020.292	250.625
2023.017	250.95833
2025.74	248.625
2028.461	244.625
2031.18	254.625
2033.898	240.95833
2036.613	254.625
2039.327	249.95833
2042.038	243.95833
2044.748	248.29167
2047.456	251.95833
2050.162	230.625
2052.866	243.95833
2055.568	254.625
2058.268	241.95833
2060.967	249.29167
2063.663	236.625
2066.358	238.625
2069.051	229.625
2071.742	240.95833
2074.431	246.95833
2077.118	232.95833
2079.804	231.95833
2082.487	238.625
2085.169	251.29167
2087.849	261.95833
2090.527	232.29167
2093.203	242.29167
2095.877	232.625
2098.55	240.95833
2101.22	251.625
2103.889	246.625
2106.556	240.625
2109.221	257.29167
2111.884	241.29167
2114.546	258.29167
2117.205	265.625
2119.863	287.29167
2122.519	278.29167
2125.173	298.95833
2127.825	323.95833
2130.475	319.29167
2133.124	311.29167
2135.771	298.29167
2138.416	310.625
2141.059	272.95833
2143.7	287.95833
2146.339	272.95833
2148.977	236.95833
2151.613	258.625
2154.247	255.29167
2156.879	252.625
2159.51	230.625
2162.138	234.625
2164.765	228.95833
2167.39	216.29167
2170.013	245.29167
2172.634	235.95833
2175.254	227.29167
2177.872	264.625
2180.488	215.95833
2183.102	221.29167
2185.714	225.625
2188.325	208.29167
2190.934	218.95833
2193.541	225.29167
2196.146	216.95833
2198.75	199.29167
2201.351	210.29167
2203.951	196.625
2206.549	218.29167
2209.146	203.625
2211.74	202.625
2214.333	212.95833
2216.924	200.95833
2219.514	201.29167
2222.101	198.95833
2224.687	206.625
2227.271	190.95833
2229.853	197.625
2232.433	178.625
2235.012	201.95833
2237.589	200.95833
2240.164	209.29167
2242.738	199.625
2245.309	190.29167
2247.879	204.95833
2250.448	199.95833
2253.014	190.29167
2255.579	182.625
2258.142	187.625
2260.703	186.625
2263.262	185.625
2265.82	177.29167
2268.376	200.625
2270.93	191.29167
2273.483	170.29167
2276.033	190.625
2278.583	186.625
2281.13	180.625
2283.675	172.625
2286.219	178.625
2288.761	188.625
2291.302	188.625
2293.841	195.625
2296.377	175.29167
2298.913	186.625
2301.446	193.29167
2303.978	181.625
2306.508	186.95833
2309.037	187.95833
2311.563	182.29167
2314.088	188.29167
2316.612	171.95833
2319.133	184.625
2321.653	177.95833
2324.171	169.95833
2326.688	190.29167
2329.202	172.29167
2331.715	180.29167
2334.227	177.29167
2336.736	172.625
2339.244	167.95833
2341.751	163.625
2344.255	183.29167
2346.758	177.29167
2349.259	167.625
2351.759	177.29167
2354.257	164.95833
2356.753	164.29167
2359.247	161.95833
2361.74	170.29167
2364.231	171.625
2366.721	177.625
2369.209	165.625
2371.695	168.29167
2374.179	165.29167
2376.662	149.29167
2379.143	182.29167
2381.622	161.625
2384.1	174.625
2386.576	166.95833
2389.051	174.95833
2391.524	180.625
2393.995	174.29167
2396.464	161.625
2398.932	160.95833
2401.398	163.625
2403.863	159.29167
2406.325	157.95833
2408.787	169.29167
2411.246	158.95833
2413.704	164.625
2416.16	164.29167
2418.615	157.29167
2421.068	167.29167
2423.519	152.29167
2425.969	152.29167
2428.417	167.625
2430.863	177.625
2433.308	168.95833
2435.751	165.95833
2438.193	160.95833
2440.633	166.625
2443.071	170.29167
2445.508	154.29167
2447.943	167.625
2450.376	158.95833
2452.808	169.625
2455.238	156.95833
2457.667	181.95833
2460.093	153.29167
2462.519	141.29167
2464.942	152.625
2467.365	157.29167
2469.785	166.29167
2472.204	156.625
2474.621	160.95833
2477.037	173.95833
2479.451	152.95833
2481.863	145.95833
2484.274	150.29167
2486.683	156.625
2489.091	163.625
2491.497	163.625
2493.901	164.29167
2496.304	155.625
2498.705	161.625
2501.105	156.29167
2503.503	176.29167
2505.899	142.29167
2508.294	171.29167
2510.687	151.625
2513.079	155.95833
2515.469	151.95833
2517.858	151.625
2520.245	166.625
2522.63	147.29167
2525.014	145.29167
2527.396	149.95833
2529.776	149.625
2532.156	163.95833
2534.533	147.625
2536.909	148.625
2539.283	131.29167
2541.656	144.95833
2544.027	164.625
2546.397	154.29167
2548.765	147.625
2551.131	148.625
2553.496	154.95833
2555.86	152.95833
2558.221	162.625
2560.582	149.95833
2562.94	141.29167
2565.298	149.95833
2567.653	160.95833
2570.007	141.29167
2572.36	153.95833
2574.711	146.95833
2577.06	160.95833
2579.408	150.95833
2581.754	144.625
2584.099	146.625
2586.442	145.29167
2588.784	157.625
2591.124	151.625
2593.463	151.95833
2595.8	154.29167
2598.135	142.625
2600.469	145.95833
2602.802	163.29167
2605.133	156.29167
2607.462	141.625
2609.79	131.95833
2612.116	156.95833
2614.441	151.625
2616.764	155.95833
2619.086	150.29167
2621.406	142.29167
2623.725	157.95833
2626.042	144.29167
2628.358	143.29167
2630.672	150.29167
2632.985	155.625
2635.296	159.29167
2637.606	152.95833
2639.914	145.625
2642.22	145.625
2644.525	149.29167
2646.829	155.29167
2649.131	161.625
2651.432	152.95833
2653.731	144.95833
2656.028	160.29167
2658.324	154.625
2660.619	138.29167
2662.912	158.29167
2665.204	140.29167
2667.494	153.625
2669.782	140.95833
2672.07	162.625
2674.355	157.625
2676.639	155.29167
2678.922	146.625
2681.203	153.625
2683.483	146.625
2685.761	142.29167
2688.038	160.95833
2690.313	160.95833
2692.587	155.29167
2694.859	154.95833
2697.13	147.95833
2699.399	155.625
2701.667	161.95833
2703.933	154.95833
2706.198	160.625
2708.461	161.29167
2710.723	165.29167
2712.984	162.625
2715.243	167.29167
2717.5	157.29167
2719.757	165.95833
2722.011	155.95833
2724.264	160.29167
2726.516	169.625
2728.766	152.95833
2731.015	159.625
2733.262	161.625
2735.508	152.95833
2737.753	164.95833
2739.996	149.95833
2742.237	150.29167
2744.477	164.95833
2746.716	172.29167
2748.953	164.95833
2751.189	173.29167
2753.423	161.625
2755.656	153.95833
2757.887	148.625
2760.117	156.29167
2762.346	145.95833
2764.573	140.29167
2766.798	150.625
2769.022	149.95833
2771.245	146.625
2773.467	153.625
2775.686	149.95833
2777.905	160.29167
2780.122	154.29167
2782.337	161.29167
2784.552	149.95833
2786.764	155.95833
2788.976	150.29167
2791.186	161.625
2793.394	157.95833
2795.601	166.29167
2797.807	177.95833
2800.011	167.29167
2802.214	170.625
2804.415	161.95833
2806.615	163.95833
2808.814	165.625
2811.011	169.625
2813.206	174.95833
2815.401	180.95833
2817.594	175.29167
2819.785	178.95833
2821.975	162.29167
2824.164	169.29167
2826.351	171.625
2828.537	183.625
2830.722	185.625
2832.905	171.625
2835.086	180.95833
2837.267	197.95833
2839.445	194.29167
2841.623	197.625
2843.799	198.29167
2845.974	210.29167
2848.147	203.625
2850.319	215.625
2852.489	225.95833
2854.659	223.625
2856.826	228.95833
2858.993	237.625
2861.158	218.95833
2863.321	223.29167
2865.483	243.625
2867.644	242.95833
2869.804	233.29167
2871.962	229.625
2874.118	235.29167
2876.274	237.95833
2878.428	235.29167
2880.58	241.625
2882.731	226.95833
2884.881	236.29167
2887.03	243.625
2889.177	232.625
2891.322	240.625
2893.467	231.95833
2895.61	235.625
2897.751	243.95833
2899.892	234.625
2902.03	245.95833
2904.168	231.625
2906.304	241.29167
2908.439	257.625
2910.572	234.625
2912.704	246.29167
2914.835	255.95833
2916.965	244.625
2919.093	263.95833
2921.219	235.95833
2923.345	267.625
2925.469	245.29167
2927.591	238.625
2929.712	228.29167
2931.832	239.625
2933.951	237.95833
2936.068	235.29167
2938.184	228.95833
2940.299	223.95833
2942.412	221.625
2944.524	205.625
2946.634	213.625
2948.744	193.95833
2950.851	228.625
2952.958	199.29167
2955.063	211.625
2957.167	197.95833
2959.269	185.29167
2961.371	209.29167
2963.471	195.95833
2965.569	203.29167
2967.666	179.29167
2969.762	177.95833
2971.857	172.625
2973.95	168.625
2976.042	184.29167
2978.133	176.625
2980.222	167.95833
2982.31	163.29167
2984.396	156.29167
2986.482	159.29167
2988.566	160.29167
2990.648	164.625
2992.73	159.625
2994.81	153.625
2996.889	158.625
2998.966	162.29167
3001.042	180.95833
3003.117	157.29167
3005.191	161.625
3007.263	163.95833
3009.334	157.95833
3011.403	157.95833
3013.472	150.95833
3015.539	167.29167
3017.604	174.95833
3019.669	139.625
3021.732	151.95833
3023.794	150.625
3025.854	139.625
3027.914	140.29167
3029.971	143.29167
3032.028	146.625
3034.083	153.95833
3036.137	149.95833
3038.19	136.95833
3040.242	131.625
3042.292	125.625
3044.341	138.625
3046.388	148.95833
3048.435	127.29167
3050.48	151.95833
3052.524	134.625
3054.566	117.95833
3056.607	133.29167
3058.647	124.625
3060.686	116.95833
3062.723	108.95833
3064.759	109.95833
3066.794	0.29167
3068.828	-1.375
3070.86	1.95833
