-0.839	145.625
3.438	165.625
7.711	66.625
11.981	46.95833
16.247	33.29167
20.509	39.625
24.768	35.95833
29.024	44.29167
33.276	30.95833
37.524	44.29167
41.769	30.29167
46.01	24.29167
50.247	40.95833
54.481	51.625
58.712	56.29167
62.939	37.95833
67.162	54.29167
71.382	42.95833
75.599	37.29167
79.812	43.95833
84.021	63.625
88.227	43.625
92.429	47.29167
96.628	37.29167
100.823	51.29167
105.015	51.625
109.204	45.95833
113.388	59.29167
117.57	41.29167
121.748	58.95833
125.922	48.95833
130.093	67.29167
134.261	63.625
138.425	57.29167
142.585	88.95833
146.742	65.625
150.896	86.29167
155.046	75.29167
159.193	114.95833
163.336	169.95833
167.476	296.625
171.613	528.625
175.746	859.95833
179.875	1247.95833
184.002	1609.625
188.124	1913.95833
192.244	2020.29167
196.36	2037.625
200.472	2023.29167
204.581	1995.95833
208.687	1946.95833
212.79	1956.29167
216.889	1967.29167
220.984	1996.95833
225.077	2011.625
229.165	2016.95833
233.251	2007.95833
237.333	2011.625
241.412	2001.625
245.487	1992.625
249.559	1962.29167
253.628	1974.29167
257.694	1943.625
261.756	1951.625
265.814	1916.29167
269.87	1857.625
273.922	1831.95833
277.97	1792.29167
282.016	1784.29167
286.058	1764.95833
290.097	1806.95833
294.132	1800.625
298.164	1790.95833
302.193	1749.95833
306.219	1654.29167
310.241	1565.95833
314.26	1481.95833
318.276	1421.625
322.288	1391.29167
326.297	1334.29167
330.303	1335.95833
334.305	1288.625
338.305	1298.29167
342.301	1274.95833
346.294	1293.29167
350.283	1276.29167
354.269	1277.29167
358.252	1276.95833
362.232	1285.95833
366.209	1279.29167
370.182	1259.29167
374.152	1249.95833
378.119	1263.625
382.083	1251.29167
386.043	1273.625
390	1261.95833
393.954	1284.625
397.905	1284.625
401.852	1318.625
405.797	1279.29167
409.738	1331.29167
413.676	1365.625
417.61	1395.29167
421.542	1317.95833
425.47	1267.625
429.396	1234.95833
433.318	1244.95833
437.236	1242.95833
441.152	1271.625
445.065	1226.95833
448.974	1237.95833
452.88	1229.625
456.783	1220.95833
460.683	1221.625
464.58	1223.95833
468.473	1227.625
472.364	1237.29167
476.251	1241.29167
480.135	1243.625
484.016	1257.625
487.894	1261.625
491.769	1257.29167
495.641	1256.625
499.509	1262.625
503.375	1256.95833
507.237	1261.29167
511.096	1254.625
514.952	1260.95833
518.805	1265.29167
522.655	1274.29167
526.502	1249.95833
530.346	1251.95833
534.187	1264.625
538.024	1259.625
541.859	1245.625
545.69	1269.95833
549.519	1252.29167
553.344	1248.29167
557.166	1236.29167
560.985	1232.29167
564.802	1222.625
568.615	1210.625
572.425	1189.625
576.232	1181.95833
580.036	1190.625
583.836	1197.625
587.634	1202.29167
591.429	1189.95833
595.221	1217.29167
599.01	1234.29167
602.796	1227.95833
606.578	1230.95833
610.358	1209.29167
614.135	1225.625
617.909	1214.95833
621.679	1214.625
625.447	1198.29167
629.212	1211.95833
632.973	1204.29167
636.732	1217.625
640.488	1208.625
644.241	1181.29167
647.991	1171.29167
651.737	1204.625
655.481	1160.29167
659.222	1180.625
662.96	1182.29167
666.695	1197.95833
670.427	1194.95833
674.156	1215.95833
677.882	1197.29167
681.605	1201.625
685.325	1181.29167
689.043	1208.95833
692.757	1180.625
696.468	1178.29167
700.177	1183.625
703.882	1161.29167
707.585	1154.625
711.284	1159.95833
714.981	1143.625
718.675	1142.625
722.366	1161.95833
726.054	1126.29167
729.739	1140.95833
733.421	1145.95833
737.1	1139.625
740.777	1151.625
744.45	1150.625
748.121	1150.95833
751.789	1173.29167
755.453	1167.625
759.115	1170.625
762.774	1164.29167
766.431	1168.625
770.084	1182.95833
773.734	1165.625
777.382	1188.625
781.027	1168.625
784.669	1177.29167
788.308	1175.625
791.944	1209.95833
795.577	1207.625
799.208	1191.95833
802.835	1198.95833
806.46	1189.625
810.082	1215.95833
813.701	1194.95833
817.317	1211.29167
820.931	1214.95833
824.542	1205.95833
828.149	1199.95833
831.754	1171.625
835.357	1163.625
838.956	1202.625
842.553	1211.625
846.146	1192.29167
849.737	1154.625
853.326	1151.95833
856.911	1135.29167
860.493	1168.625
864.073	1170.625
867.65	1245.95833
871.225	1224.625
874.796	1176.29167
878.365	1161.29167
881.931	1179.95833
885.494	1176.625
889.054	1171.625
892.612	1161.29167
896.166	1153.29167
899.719	1145.95833
903.268	1111.29167
906.814	1127.625
910.358	1118.29167
913.899	1110.625
917.438	1098.29167
920.973	1077.29167
924.506	1103.625
928.036	1120.95833
931.564	1137.29167
935.088	1152.29167
938.61	1123.95833
942.129	1125.625
945.646	1153.95833
949.16	1152.29167
952.671	1163.95833
956.179	1182.95833
959.685	1169.625
963.188	1184.95833
966.688	1175.29167
970.185	1126.95833
973.68	1111.625
977.173	1106.29167
980.662	1092.625
984.149	1083.95833
987.633	1080.625
991.114	1089.625
994.593	1096.625
998.069	1125.625
1001.542	1146.95833
1005.013	1142.29167
1008.481	1063.29167
1011.947	1060.29167
1015.409	1042.29167
1018.869	1050.95833
1022.327	1057.29167
1025.782	1029.625
1029.234	1030.625
1032.683	1033.95833
1036.13	1013.29167
1039.574	978.29167
1043.016	950.625
1046.455	944.29167
1049.891	938.625
1053.325	957.29167
1056.756	926.29167
1060.184	941.29167
1063.61	920.29167
1067.033	938.29167
1070.454	931.95833
1073.872	949.625
1077.287	938.29167
1080.7	926.625
1084.11	934.29167
1087.517	928.625
1090.922	920.625
1094.325	908.625
1097.724	901.29167
1101.122	900.29167
1104.516	891.95833
1107.908	879.95833
1111.298	894.29167
1114.684	902.29167
1118.069	902.29167
1121.45	913.29167
1124.83	905.95833
1128.206	910.625
1131.58	934.625
1134.951	947.625
1138.32	965.95833
1141.687	982.29167
1145.05	1001.625
1148.412	1008.29167
1151.77	984.29167
1155.126	994.625
1158.48	976.29167
1161.831	976.29167
1165.18	967.625
1168.525	986.29167
1171.869	997.95833
1175.21	994.625
1178.548	1005.29167
1181.884	1026.95833
1185.217	1018.625
1188.548	1048.95833
1191.877	1058.95833
1195.202	1097.95833
1198.526	1110.625
1201.846	1108.625
1205.165	1120.95833
1208.48	1121.95833
1211.794	1101.95833
1215.104	1117.95833
1218.413	1095.95833
1221.719	1094.95833
1225.022	1095.625
1228.323	1060.29167
1231.621	1072.29167
1234.917	1058.625
1238.21	1081.95833
1241.501	1061.29167
1244.79	1052.95833
1248.076	1039.625
1251.359	1061.95833
1254.64	1102.625
1257.919	1079.95833
1261.195	1103.95833
1264.468	1122.625
1267.74	1132.95833
1271.008	1122.625
1274.275	1121.29167
1277.538	1112.625
1280.8	1104.29167
1284.059	1110.29167
1287.315	1114.95833
1290.569	1110.29167
1293.821	1113.29167
1297.07	1114.625
1300.317	1119.625
1303.562	1129.29167
1306.803	1119.95833
1310.043	1110.29167
1313.28	1102.95833
1316.515	1102.95833
1319.747	1099.625
1322.977	1077.29167
1326.204	1073.625
1329.429	1076.29167
1332.652	1064.29167
1335.872	1072.29167
1339.09	1059.95833
1342.306	1051.95833
1345.519	1047.95833
1348.729	1039.625
1351.938	1039.29167
1355.144	1026.29167
1358.347	1019.29167
1361.548	1022.625
1364.747	1026.625
1367.944	996.95833
1371.138	998.29167
1374.329	1003.29167
1377.518	1002.29167
1380.705	1009.625
1383.89	1014.625
1387.072	983.625
1390.252	959.625
1393.429	927.29167
1396.605	903.625
1399.777	882.29167
1402.948	880.29167
1406.116	861.95833
1409.282	861.95833
1412.445	849.625
1415.606	866.29167
1418.765	877.95833
1421.921	889.29167
1425.075	892.29167
1428.227	906.95833
1431.376	940.625
1434.524	976.625
1437.668	995.29167
1440.811	999.29167
1443.951	995.29167
1447.089	996.95833
1450.224	1003.95833
1453.357	1002.95833
1456.488	989.95833
1459.617	975.625
1462.743	968.95833
1465.867	941.29167
1468.989	937.625
1472.108	922.29167
1475.225	896.29167
1478.34	902.29167
1481.453	884.95833
1484.563	896.29167
1487.671	905.29167
1490.776	909.95833
1493.88	918.29167
1496.981	946.95833
1500.08	945.29167
1503.176	931.29167
1506.271	937.95833
1509.363	968.95833
1512.452	969.625
1515.54	968.95833
1518.625	972.95833
1521.708	1021.29167
1524.789	1034.625
1527.867	1061.625
1530.944	1096.95833
1534.018	1136.95833
1537.089	1177.625
1540.159	1187.625
1543.226	1201.29167
1546.291	1167.29167
1549.354	1153.95833
1552.415	1132.625
1555.473	1112.95833
1558.529	1101.95833
1561.583	1086.625
1564.634	1071.95833
1567.684	1056.95833
1570.731	1061.625
1573.776	1080.95833
1576.819	1073.29167
1579.859	1089.625
1582.898	1115.95833
1585.934	1127.29167
1588.968	1133.29167
1591.999	1102.29167
1595.029	1098.29167
1598.056	1124.29167
1601.081	1134.95833
1604.104	1135.95833
1607.125	1119.625
1610.144	1107.29167
1613.16	1052.95833
1616.174	1046.29167
1619.186	1034.29167
1622.196	1009.625
1625.203	987.95833
1628.209	978.95833
1631.212	974.95833
1634.213	976.29167
1637.212	984.625
1640.209	968.625
1643.203	960.29167
1646.196	929.625
1649.186	892.95833
1652.174	878.95833
1655.16	849.29167
1658.144	832.29167
1661.125	797.625
1664.105	777.625
1667.082	755.625
1670.057	710.625
1673.03	676.625
1676.001	645.625
1678.97	606.29167
1681.937	584.95833
1684.901	557.29167
1687.863	548.29167
1690.824	517.95833
1693.782	533.95833
1696.738	495.29167
1699.692	496.29167
1702.643	488.29167
1705.593	484.625
1708.54	473.29167
1711.486	494.625
1714.429	455.95833
1717.37	468.95833
1720.309	462.29167
1723.246	458.95833
1726.181	445.95833
1729.113	444.625
1732.044	441.95833
1734.972	439.625
1737.899	460.29167
1740.823	455.625
1743.745	477.625
1746.665	431.95833
1749.583	431.95833
1752.499	427.29167
1755.413	413.625
1758.325	402.95833
1761.235	418.625
1764.142	406.95833
1767.048	402.95833
1769.951	403.29167
1772.852	402.625
1775.752	430.625
1778.649	449.29167
1781.544	433.625
1784.437	391.29167
1787.328	398.29167
1790.217	389.625
1793.104	374.625
1795.989	372.625
1798.872	373.625
1801.753	384.95833
1804.631	377.625
1807.508	381.625
1810.383	380.625
1813.255	373.29167
1816.126	367.95833
1818.994	371.625
1821.861	368.95833
1824.725	379.95833
1827.587	366.625
1830.448	367.625
1833.306	359.29167
1836.162	373.29167
1839.017	357.625
1841.869	355.29167
1844.719	361.625
1847.567	341.625
1850.414	341.29167
1853.258	343.625
1856.1	363.625
1858.94	362.625
1861.778	353.29167
1864.614	340.625
1867.448	355.29167
1870.28	338.95833
1873.111	355.95833
1875.939	348.29167
1878.765	354.625
1881.589	340.625
1884.411	346.95833
1887.231	349.95833
1890.049	353.95833
1892.865	344.95833
1895.68	338.29167
1898.492	348.625
1901.302	337.29167
1904.11	341.95833
1906.916	323.95833
1909.721	326.625
1912.523	336.95833
1915.323	314.29167
1918.122	321.95833
1920.918	339.29167
1923.712	321.625
1926.505	322.95833
1929.295	311.95833
1932.084	330.625
1934.87	327.625
1937.655	309.95833
1940.438	315.29167
1943.218	323.95833
1945.997	321.29167
1948.774	325.29167
1951.549	324.29167
1954.322	314.625
1957.093	313.625
1959.862	308.29167
1962.629	314.625
1965.394	305.625
1968.157	298.95833
1970.918	316.625
1973.678	298.95833
1976.435	305.95833
1979.19	303.625
1981.944	295.625
1984.696	302.95833
1987.445	301.95833
1990.193	298.29167
1992.939	306.29167
1995.683	306.625
1998.425	282.29167
2001.165	320.625
2003.903	277.95833
2006.639	295.29167
2009.374	304.625
2012.106	295.29167
2014.837	268.29167
2017.566	297.29167
2020.292	291.95833
2023.017	279.625
2025.74	281.29167
2028.461	282.29167
2031.18	287.625
2033.898	276.625
2036.613	282.625
2039.327	283.29167
2042.038	275.625
2044.748	283.29167
2047.456	288.95833
2050.162	271.29167
2052.866	283.95833
2055.568	284.29167
2058.268	271.95833
2060.967	281.625
2063.663	268.95833
2066.358	264.625
2069.051	265.625
2071.742	268.625
2074.431	279.625
2077.118	270.95833
2079.804	258.625
2082.487	271.29167
2085.169	282.95833
2087.849	289.29167
2090.527	265.95833
2093.203	274.625
2095.877	270.95833
2098.55	265.95833
2101.22	269.29167
2103.889	286.29167
2106.556	266.29167
2109.221	282.625
2111.884	279.95833
2114.546	299.625
2117.205	297.95833
2119.863	337.625
2122.519	325.625
2125.173	354.95833
2127.825	382.95833
2130.475	378.625
2133.124	351.29167
2135.771	352.625
2138.416	363.95833
2141.059	329.95833
2143.7	330.29167
2146.339	303.29167
2148.977	274.29167
2151.613	286.95833
2154.247	285.625
2156.879	275.625
2159.51	266.29167
2162.138	265.625
2164.765	263.625
2167.39	250.625
2170.013	275.625
2172.634	258.95833
2175.254	252.29167
2177.872	292.95833
2180.488	249.29167
2183.102	243.29167
2185.714	247.625
2188.325	236.625
2190.934	245.29167
2193.541	251.625
2196.146	244.625
2198.75	229.95833
2201.351	231.625
2203.951	220.95833
2206.549	234.625
2209.146	234.95833
2211.74	226.625
2214.333	234.625
2216.924	216.29167
2219.514	231.29167
2222.101	226.625
2224.687	242.95833
2227.271	214.625
2229.853	219.95833
2232.433	200.29167
2235.012	227.625
2237.589	225.625
2240.164	238.29167
2242.738	213.625
2245.309	214.29167
2247.879	226.95833
2250.448	225.95833
2253.014	213.95833
2255.579	196.625
2258.142	208.625
2260.703	208.95833
2263.262	203.95833
2265.82	194.29167
2268.376	217.625
2270.93	206.625
2273.483	193.95833
2276.033	207.95833
2278.583	208.625
2281.13	202.29167
2283.675	192.29167
2286.219	200.29167
2288.761	208.625
2291.302	206.625
2293.841	219.95833
2296.377	185.95833
2298.913	196.29167
2301.446	208.95833
2303.978	201.95833
2306.508	201.29167
2309.037	203.625
2311.563	193.625
2314.088	196.625
2316.612	186.625
2319.133	202.95833
2321.653	195.95833
2324.171	189.29167
2326.688	205.29167
2329.202	194.29167
2331.715	199.625
2334.227	193.29167
2336.736	191.95833
2339.244	188.95833
2341.751	176.625
2344.255	198.95833
2346.758	190.95833
2349.259	181.95833
2351.759	189.29167
2354.257	179.625
2356.753	184.29167
2359.247	184.95833
2361.74	182.625
2364.231	177.95833
2366.721	194.625
2369.209	180.95833
2371.695	185.95833
2374.179	180.29167
2376.662	164.95833
2379.143	196.29167
2381.622	182.29167
2384.1	194.29167
2386.576	178.625
2389.051	195.95833
2391.524	190.29167
2393.995	180.625
2396.464	177.95833
2398.932	176.95833
2401.398	183.95833
2403.863	171.95833
2406.325	172.95833
2408.787	180.625
2411.246	176.625
2413.704	178.95833
2416.16	172.625
2418.615	173.625
2421.068	172.29167
2423.519	180.625
2425.969	160.95833
2428.417	188.95833
2430.863	194.625
2433.308	183.625
2435.751	181.29167
2438.193	175.95833
2440.633	174.95833
2443.071	183.29167
2445.508	167.625
2447.943	173.625
2450.376	168.95833
2452.808	177.95833
2455.238	165.95833
2457.667	192.95833
2460.093	161.29167
2462.519	158.29167
2464.942	165.95833
2467.365	170.29167
2469.785	170.625
2472.204	162.625
2474.621	164.625
2477.037	183.29167
2479.451	161.625
2481.863	147.29167
2484.274	162.95833
2486.683	165.95833
2489.091	177.95833
2491.497	168.29167
2493.901	167.625
2496.304	164.95833
2498.705	176.29167
2501.105	164.29167
2503.503	179.625
2505.899	153.95833
2508.294	178.95833
2510.687	155.625
2513.079	159.625
2515.469	156.29167
2517.858	155.625
2520.245	177.95833
2522.63	165.95833
2525.014	163.29167
2527.396	153.95833
2529.776	160.625
2532.156	159.95833
2534.533	154.29167
2536.909	153.29167
2539.283	145.95833
2541.656	154.95833
2544.027	164.29167
2546.397	160.625
2548.765	155.625
2551.131	159.29167
2553.496	160.625
2555.86	154.95833
2558.221	165.95833
2560.582	149.625
2562.94	148.29167
2565.298	159.29167
2567.653	164.95833
2570.007	142.95833
2572.36	164.95833
2574.711	148.625
2577.06	172.29167
2579.408	157.95833
2581.754	151.95833
2584.099	152.95833
2586.442	148.625
2588.784	157.95833
2591.124	152.29167
2593.463	155.29167
2595.8	159.29167
2598.135	145.29167
2600.469	148.625
2602.802	161.95833
2605.133	161.29167
2607.462	144.95833
2609.79	136.625
2612.116	155.95833
2614.441	147.95833
2616.764	151.625
2619.086	152.29167
2621.406	144.95833
2623.725	161.29167
2626.042	148.625
2628.358	142.95833
2630.672	148.625
2632.985	157.29167
2635.296	154.95833
2637.606	148.95833
2639.914	146.95833
2642.22	149.625
2644.525	147.95833
2646.829	149.29167
2649.131	155.95833
2651.432	154.95833
2653.731	145.29167
2656.028	160.625
2658.324	154.625
2660.619	138.29167
2662.912	162.29167
2665.204	138.95833
2667.494	151.625
2669.782	144.29167
2672.07	160.625
2674.355	168.625
2676.639	154.625
2678.922	144.95833
2681.203	160.29167
2683.483	143.95833
2685.761	136.29167
2688.038	157.95833
2690.313	160.29167
2692.587	154.29167
2694.859	147.29167
2697.13	147.625
2699.399	148.95833
2701.667	158.625
2703.933	153.29167
2706.198	164.625
2708.461	164.625
2710.723	159.625
2712.984	153.95833
2715.243	159.29167
2717.5	149.95833
2719.757	154.29167
2722.011	152.95833
2724.264	168.625
2726.516	173.95833
2728.766	153.29167
2731.015	159.625
2733.262	155.29167
2735.508	158.95833
2737.753	160.95833
2739.996	149.95833
2742.237	147.29167
2744.477	160.625
2746.716	170.29167
2748.953	160.29167
2751.189	166.95833
2753.423	165.625
2755.656	149.29167
2757.887	148.29167
2760.117	153.29167
2762.346	145.29167
2764.573	137.625
2766.798	145.95833
2769.022	152.95833
2771.245	144.625
2773.467	151.29167
2775.686	146.95833
2777.905	159.29167
2780.122	143.625
2782.337	158.29167
2784.552	146.29167
2786.764	149.625
2788.976	144.29167
2791.186	150.95833
2793.394	148.625
2795.601	162.625
2797.807	163.29167
2800.011	154.29167
2802.214	164.625
2804.415	156.29167
2806.615	160.625
2808.814	159.625
2811.011	162.95833
2813.206	162.625
2815.401	172.625
2817.594	173.625
2819.785	177.625
2821.975	166.29167
2824.164	162.95833
2826.351	169.95833
2828.537	183.95833
2830.722	181.95833
2832.905	175.95833
2835.086	179.625
2837.267	199.625
2839.445	200.29167
2841.623	195.625
2843.799	201.95833
2845.974	208.95833
2848.147	208.625
2850.319	217.95833
2852.489	224.625
2854.659	238.625
2856.826	233.95833
2858.993	251.95833
2861.158	224.29167
2863.321	230.95833
2865.483	251.29167
2867.644	245.625
2869.804	239.29167
2871.962	247.29167
2874.118	250.95833
2876.274	268.95833
2878.428	264.29167
2880.58	261.625
2882.731	238.625
2884.881	244.95833
2887.03	255.95833
2889.177	240.625
2891.322	250.95833
2893.467	239.625
2895.61	237.625
2897.751	253.95833
2899.892	249.625
2902.03	250.95833
2904.168	247.95833
2906.304	240.95833
2908.439	266.95833
2910.572	244.95833
2912.704	245.95833
2914.835	257.95833
2916.965	250.29167
2919.093	277.29167
2921.219	233.29167
2923.345	273.95833
2925.469	248.95833
2927.591	247.95833
2929.712	243.625
2931.832	239.29167
2933.951	234.29167
2936.068	229.625
2938.184	231.29167
2940.299	217.29167
2942.412	220.29167
2944.524	202.625
2946.634	215.95833
2948.744	190.95833
2950.851	222.29167
2952.958	189.625
2955.063	202.625
2957.167	198.95833
2959.269	181.95833
2961.371	209.29167
2963.471	175.625
2965.569	194.29167
2967.666	170.95833
2969.762	171.95833
2971.857	167.29167
2973.95	162.29167
2976.042	167.95833
2978.133	159.95833
2980.222	162.29167
2982.31	149.95833
2984.396	137.29167
2986.482	145.625
2988.566	158.29167
2990.648	147.95833
2992.73	146.95833
2994.81	136.29167
2996.889	149.29167
2998.966	148.29167
3001.042	158.625
3003.117	139.29167
3005.191	145.95833
3007.263	147.625
3009.334	144.625
3011.403	148.95833
3013.472	141.95833
3015.539	152.29167
3017.604	158.625
3019.669	125.95833
3021.732	134.625
3023.794	132.95833
3025.854	126.625
3027.914	127.95833
3029.971	129.625
3032.028	129.95833
3034.083	140.29167
3036.137	134.29167
3038.19	122.29167
3040.242	118.29167
3042.292	116.29167
3044.341	126.95833
3046.388	141.95833
3048.435	114.29167
3050.48	137.29167
3052.524	123.625
3054.566	105.625
3056.607	117.29167
3058.647	116.29167
3060.686	105.95833
3062.723	93.95833
3064.759	97.29167
3066.794	1.95833
3068.828	-1.375
3070.86	3.95833
