-0.839	137.29167
3.438	161.29167
7.711	64.29167
11.981	44.625
16.247	29.625
20.509	40.29167
24.768	33.95833
29.024	46.29167
33.276	33.625
37.524	43.29167
41.769	31.95833
46.01	24.625
50.247	44.625
54.481	50.625
58.712	57.29167
62.939	40.29167
67.162	57.625
71.382	49.95833
75.599	37.625
79.812	44.625
84.021	61.95833
88.227	47.29167
92.429	50.625
96.628	36.625
100.823	54.625
105.015	55.95833
109.204	47.625
113.388	58.29167
117.57	41.29167
121.748	61.95833
125.922	50.625
130.093	68.625
134.261	65.625
138.425	56.29167
142.585	86.625
146.742	67.29167
150.896	86.625
155.046	75.625
159.193	117.95833
163.336	173.625
167.476	302.29167
171.613	551.625
175.746	894.625
179.875	1295.625
184.002	1690.29167
188.124	2008.625
192.244	2115.95833
196.36	2135.29167
200.472	2114.95833
204.581	2097.29167
208.687	2047.95833
212.79	2057.29167
216.889	2101.29167
220.984	2113.29167
225.077	2131.29167
229.165	2113.625
233.251	2133.625
237.333	2168.95833
241.412	2149.95833
245.487	2136.29167
249.559	2091.29167
253.628	2096.29167
257.694	2077.625
261.756	2080.95833
265.814	2022.29167
269.87	1984.29167
273.922	1925.29167
277.97	1905.29167
282.016	1900.29167
286.058	1866.625
290.097	1913.95833
294.132	1916.625
298.164	1914.95833
302.193	1857.625
306.219	1744.95833
310.241	1656.625
314.26	1578.95833
318.276	1514.95833
322.288	1454.625
326.297	1418.29167
330.303	1405.29167
334.305	1354.95833
338.305	1360.625
342.301	1347.29167
346.294	1346.625
350.283	1350.625
354.269	1334.95833
358.252	1328.95833
362.232	1329.625
366.209	1340.29167
370.182	1323.625
374.152	1320.95833
378.119	1327.95833
382.083	1316.95833
386.043	1333.625
390	1332.95833
393.954	1349.95833
397.905	1345.29167
401.852	1386.29167
405.797	1339.95833
409.738	1361.625
413.676	1407.29167
417.61	1438.29167
421.542	1379.95833
425.47	1322.625
429.396	1315.625
433.318	1291.625
437.236	1304.625
441.152	1328.29167
445.065	1278.95833
448.974	1295.29167
452.88	1296.29167
456.783	1272.625
460.683	1255.29167
464.58	1279.625
468.473	1273.95833
472.364	1288.29167
476.251	1289.29167
480.135	1304.625
484.016	1302.625
487.894	1314.29167
491.769	1326.29167
495.641	1314.95833
499.509	1318.625
503.375	1309.625
507.237	1292.29167
511.096	1282.625
514.952	1311.29167
518.805	1292.29167
522.655	1312.95833
526.502	1291.625
530.346	1308.625
534.187	1305.29167
538.024	1301.29167
541.859	1296.95833
545.69	1318.29167
549.519	1289.625
553.344	1293.29167
557.166	1289.29167
560.985	1291.95833
564.802	1279.625
568.615	1253.95833
572.425	1263.95833
576.232	1238.95833
580.036	1247.95833
583.836	1241.29167
587.634	1253.29167
591.429	1244.625
595.221	1285.95833
599.01	1257.29167
602.796	1270.29167
606.578	1266.29167
610.358	1266.29167
614.135	1278.29167
617.909	1276.29167
621.679	1266.95833
625.447	1250.625
629.212	1258.95833
632.973	1264.625
636.732	1243.95833
640.488	1270.29167
644.241	1240.95833
647.991	1218.625
651.737	1253.29167
655.481	1214.95833
659.222	1222.29167
662.96	1228.95833
666.695	1244.625
670.427	1233.29167
674.156	1243.95833
677.882	1247.29167
681.605	1227.95833
685.325	1222.95833
689.043	1248.625
692.757	1212.625
696.468	1232.95833
700.177	1219.29167
703.882	1214.95833
707.585	1191.95833
711.284	1201.625
714.981	1185.95833
718.675	1184.95833
722.366	1192.625
726.054	1172.625
729.739	1182.95833
733.421	1187.95833
737.1	1180.625
740.777	1201.95833
744.45	1206.625
748.121	1197.95833
751.789	1235.95833
755.453	1198.29167
759.115	1216.95833
762.774	1210.625
766.431	1216.29167
770.084	1213.625
773.734	1205.29167
777.382	1232.29167
781.027	1227.625
784.669	1222.625
788.308	1214.625
791.944	1249.625
795.577	1260.29167
799.208	1245.95833
802.835	1232.625
806.46	1257.29167
810.082	1267.95833
813.701	1262.29167
817.317	1273.95833
820.931	1254.625
824.542	1269.95833
828.149	1237.29167
831.754	1233.625
835.357	1232.625
838.956	1243.29167
842.553	1258.29167
846.146	1230.625
849.737	1183.625
853.326	1207.29167
856.911	1185.29167
860.493	1217.29167
864.073	1226.625
867.65	1277.29167
871.225	1265.625
874.796	1233.29167
878.365	1221.95833
881.931	1235.29167
885.494	1248.95833
889.054	1235.625
892.612	1226.625
896.166	1228.29167
899.719	1194.625
903.268	1173.625
906.814	1183.29167
910.358	1162.625
913.899	1151.95833
917.438	1161.95833
920.973	1139.29167
924.506	1155.625
928.036	1171.625
931.564	1180.625
935.088	1212.29167
938.61	1188.625
942.129	1182.625
945.646	1195.95833
949.16	1220.625
952.671	1238.95833
956.179	1250.29167
959.685	1228.625
963.188	1246.625
966.688	1220.95833
970.185	1180.95833
973.68	1167.29167
977.173	1159.29167
980.662	1167.625
984.149	1152.95833
987.633	1140.29167
991.114	1152.625
994.593	1191.29167
998.069	1199.29167
1001.542	1231.95833
1005.013	1207.29167
1008.481	1139.625
1011.947	1133.95833
1015.409	1125.95833
1018.869	1130.95833
1022.327	1121.625
1025.782	1109.95833
1029.234	1094.95833
1032.683	1071.29167
1036.13	1053.95833
1039.574	1028.95833
1043.016	1000.625
1046.455	987.95833
1049.891	988.29167
1053.325	1000.95833
1056.756	990.95833
1060.184	986.95833
1063.61	986.29167
1067.033	989.625
1070.454	987.625
1073.872	1013.29167
1077.287	982.29167
1080.7	992.625
1084.11	984.625
1087.517	984.625
1090.922	987.95833
1094.325	946.625
1097.724	954.29167
1101.122	962.625
1104.516	939.29167
1107.908	928.95833
1111.298	941.625
1114.684	961.95833
1118.069	955.29167
1121.45	970.625
1124.83	956.95833
1128.206	973.95833
1131.58	974.29167
1134.951	1005.29167
1138.32	1015.95833
1141.687	1038.29167
1145.05	1058.95833
1148.412	1061.625
1151.77	1043.625
1155.126	1043.95833
1158.48	1024.29167
1161.831	1037.95833
1165.18	1052.29167
1168.525	1062.29167
1171.869	1060.95833
1175.21	1063.625
1178.548	1073.95833
1181.884	1074.95833
1185.217	1081.95833
1188.548	1107.625
1191.877	1114.625
1195.202	1178.95833
1198.526	1195.29167
1201.846	1170.625
1205.165	1196.29167
1208.48	1205.29167
1211.794	1190.625
1215.104	1194.29167
1218.413	1189.29167
1221.719	1179.29167
1225.022	1166.625
1228.323	1144.625
1231.621	1152.95833
1234.917	1140.29167
1238.21	1157.625
1241.501	1122.29167
1244.79	1106.29167
1248.076	1114.625
1251.359	1134.95833
1254.64	1177.95833
1257.919	1149.625
1261.195	1162.625
1264.468	1181.625
1267.74	1205.29167
1271.008	1180.29167
1274.275	1203.29167
1277.538	1192.29167
1280.8	1195.29167
1284.059	1177.625
1287.315	1201.95833
1290.569	1189.29167
1293.821	1175.95833
1297.07	1209.625
1300.317	1202.625
1303.562	1197.29167
1306.803	1189.95833
1310.043	1176.625
1313.28	1180.29167
1316.515	1169.29167
1319.747	1174.29167
1322.977	1161.29167
1326.204	1147.29167
1329.429	1139.625
1332.652	1141.625
1335.872	1141.29167
1339.09	1116.625
1342.306	1125.95833
1345.519	1119.95833
1348.729	1100.29167
1351.938	1115.95833
1355.144	1102.29167
1358.347	1095.95833
1361.548	1102.95833
1364.747	1102.95833
1367.944	1058.95833
1371.138	1079.95833
1374.329	1068.95833
1377.518	1082.29167
1380.705	1084.625
1383.89	1079.625
1387.072	1040.29167
1390.252	1019.625
1393.429	996.29167
1396.605	967.95833
1399.777	935.29167
1402.948	947.29167
1406.116	911.29167
1409.282	924.95833
1412.445	916.29167
1415.606	933.95833
1418.765	937.29167
1421.921	961.95833
1425.075	961.625
1428.227	976.95833
1431.376	1006.95833
1434.524	1046.29167
1437.668	1062.625
1440.811	1076.95833
1443.951	1068.29167
1447.089	1084.29167
1450.224	1084.95833
1453.357	1075.625
1456.488	1070.29167
1459.617	1052.95833
1462.743	1044.95833
1465.867	1014.625
1468.989	1018.625
1472.108	994.95833
1475.225	993.29167
1478.34	959.95833
1481.453	964.625
1484.563	949.29167
1487.671	958.625
1490.776	964.625
1493.88	986.95833
1496.981	997.625
1500.08	996.95833
1503.176	1011.29167
1506.271	1011.625
1509.363	1025.95833
1512.452	1032.29167
1515.54	1036.29167
1518.625	1053.625
1521.708	1085.29167
1524.789	1119.625
1527.867	1153.95833
1530.944	1197.625
1534.018	1224.95833
1537.089	1272.29167
1540.159	1290.95833
1543.226	1290.95833
1546.291	1267.625
1549.354	1233.29167
1552.415	1214.625
1555.473	1197.625
1558.529	1165.625
1561.583	1160.625
1564.634	1153.29167
1567.684	1136.29167
1570.731	1148.95833
1573.776	1156.29167
1576.819	1159.29167
1579.859	1156.95833
1582.898	1185.625
1585.934	1204.29167
1588.968	1182.95833
1591.999	1173.29167
1595.029	1188.95833
1598.056	1191.29167
1601.081	1200.29167
1604.104	1209.625
1607.125	1183.29167
1610.144	1158.29167
1613.16	1134.625
1616.174	1112.29167
1619.186	1118.95833
1622.196	1092.29167
1625.203	1064.95833
1628.209	1042.625
1631.212	1036.95833
1634.213	1050.95833
1637.212	1054.95833
1640.209	1048.95833
1643.203	1019.625
1646.196	990.95833
1649.186	965.29167
1652.174	939.625
1655.16	912.625
1658.144	911.95833
1661.125	870.29167
1664.105	849.95833
1667.082	817.29167
1670.057	759.95833
1673.03	731.29167
1676.001	692.29167
1678.97	645.95833
1681.937	620.29167
1684.901	594.95833
1687.863	593.95833
1690.824	552.625
1693.782	560.29167
1696.738	526.625
1699.692	530.29167
1702.643	513.95833
1705.593	507.625
1708.54	504.625
1711.486	510.625
1714.429	490.29167
1717.37	489.625
1720.309	482.95833
1723.246	491.95833
1726.181	470.625
1729.113	478.29167
1732.044	485.625
1734.972	464.29167
1737.899	489.29167
1740.823	473.95833
1743.745	496.625
1746.665	452.625
1749.583	453.29167
1752.499	449.95833
1755.413	449.95833
1758.325	424.29167
1761.235	445.95833
1764.142	418.95833
1767.048	417.29167
1769.951	417.625
1772.852	416.95833
1775.752	446.625
1778.649	452.29167
1781.544	439.29167
1784.437	406.625
1787.328	418.625
1790.217	411.95833
1793.104	393.29167
1795.989	402.29167
1798.872	391.29167
1801.753	409.29167
1804.631	391.625
1807.508	403.95833
1810.383	408.625
1813.255	390.29167
1816.126	389.95833
1818.994	384.95833
1821.861	388.625
1824.725	391.95833
1827.587	396.29167
1830.448	386.95833
1833.306	377.625
1836.162	389.29167
1839.017	386.95833
1841.869	381.625
1844.719	376.95833
1847.567	365.29167
1850.414	357.625
1853.258	359.625
1856.1	384.95833
1858.94	388.95833
1861.778	368.625
1864.614	361.29167
1867.448	371.95833
1870.28	346.95833
1873.111	376.29167
1875.939	368.29167
1878.765	375.625
1881.589	354.95833
1884.411	369.29167
1887.231	372.625
1890.049	355.95833
1892.865	368.625
1895.68	360.29167
1898.492	365.29167
1901.302	357.95833
1904.11	350.625
1906.916	345.625
1909.721	351.625
1912.523	356.29167
1915.323	338.95833
1918.122	335.625
1920.918	357.95833
1923.712	335.29167
1926.505	358.29167
1929.295	321.29167
1932.084	343.29167
1934.87	344.29167
1937.655	337.95833
1940.438	329.625
1943.218	326.625
1945.997	339.29167
1948.774	343.95833
1951.549	334.29167
1954.322	336.29167
1957.093	330.625
1959.862	325.625
1962.629	324.95833
1965.394	326.625
1968.157	317.29167
1970.918	329.95833
1973.678	311.625
1976.435	329.29167
1979.19	313.95833
1981.944	307.625
1984.696	311.29167
1987.445	308.625
1990.193	310.625
1992.939	325.625
1995.683	314.29167
1998.425	293.625
2001.165	333.29167
2003.903	299.95833
2006.639	300.29167
2009.374	313.29167
2012.106	315.95833
2014.837	293.29167
2017.566	312.625
2020.292	309.625
2023.017	302.95833
2025.74	294.625
2028.461	299.625
2031.18	300.29167
2033.898	292.29167
2036.613	298.95833
2039.327	306.625
2042.038	282.625
2044.748	297.95833
2047.456	298.29167
2050.162	278.95833
2052.866	288.29167
2055.568	300.625
2058.268	288.95833
2060.967	293.29167
2063.663	277.625
2066.358	280.29167
2069.051	274.29167
2071.742	282.29167
2074.431	289.625
2077.118	277.625
2079.804	269.625
2082.487	282.29167
2085.169	291.625
2087.849	303.95833
2090.527	275.625
2093.203	280.625
2095.877	290.95833
2098.55	288.625
2101.22	290.95833
2103.889	292.95833
2106.556	284.95833
2109.221	300.95833
2111.884	295.625
2114.546	329.625
2117.205	327.95833
2119.863	366.95833
2122.519	355.95833
2125.173	380.625
2127.825	414.29167
2130.475	411.95833
2133.124	398.625
2135.771	380.625
2138.416	394.95833
2141.059	354.95833
2143.7	358.29167
2146.339	321.625
2148.977	300.625
2151.613	307.29167
2154.247	305.29167
2156.879	291.625
2159.51	287.625
2162.138	279.95833
2164.765	282.29167
2167.39	261.95833
2170.013	289.625
2172.634	285.95833
2175.254	265.95833
2177.872	301.95833
2180.488	256.625
2183.102	257.29167
2185.714	258.95833
2188.325	247.625
2190.934	261.95833
2193.541	259.95833
2196.146	258.625
2198.75	238.95833
2201.351	238.95833
2203.951	229.95833
2206.549	247.95833
2209.146	244.95833
2211.74	235.29167
2214.333	245.625
2216.924	231.625
2219.514	243.625
2222.101	230.625
2224.687	244.29167
2227.271	221.625
2229.853	227.625
2232.433	209.95833
2235.012	234.29167
2237.589	227.95833
2240.164	239.625
2242.738	223.95833
2245.309	217.95833
2247.879	241.29167
2250.448	233.95833
2253.014	215.29167
2255.579	208.29167
2258.142	214.625
2260.703	210.95833
2263.262	205.625
2265.82	204.29167
2268.376	225.625
2270.93	208.95833
2273.483	203.95833
2276.033	222.625
2278.583	202.95833
2281.13	198.95833
2283.675	198.625
2286.219	205.625
2288.761	215.625
2291.302	214.29167
2293.841	220.29167
2296.377	190.29167
2298.913	206.95833
2301.446	216.625
2303.978	206.625
2306.508	205.625
2309.037	207.95833
2311.563	200.625
2314.088	201.625
2316.612	189.29167
2319.133	206.625
2321.653	208.29167
2324.171	194.29167
2326.688	203.625
2329.202	197.625
2331.715	195.625
2334.227	191.95833
2336.736	192.29167
2339.244	190.625
2341.751	179.95833
2344.255	196.95833
2346.758	198.625
2349.259	178.95833
2351.759	190.29167
2354.257	184.29167
2356.753	184.29167
2359.247	181.625
2361.74	182.29167
2364.231	183.29167
2366.721	193.625
2369.209	181.95833
2371.695	182.625
2374.179	173.95833
2376.662	173.625
2379.143	191.95833
2381.622	184.625
2384.1	192.95833
2386.576	181.95833
2389.051	191.625
2391.524	192.95833
2393.995	190.95833
2396.464	174.625
2398.932	176.625
2401.398	183.625
2403.863	171.95833
2406.325	173.95833
2408.787	181.29167
2411.246	180.29167
2413.704	178.29167
2416.16	173.29167
2418.615	173.29167
2421.068	171.625
2423.519	175.95833
2425.969	163.95833
2428.417	182.625
2430.863	192.625
2433.308	177.625
2435.751	179.29167
2438.193	174.95833
2440.633	169.625
2443.071	176.29167
2445.508	166.95833
2447.943	169.29167
2450.376	158.29167
2452.808	171.29167
2455.238	157.625
2457.667	194.29167
2460.093	160.95833
2462.519	157.95833
2464.942	158.95833
2467.365	168.29167
2469.785	174.29167
2472.204	161.625
2474.621	159.95833
2477.037	182.95833
2479.451	152.29167
2481.863	152.95833
2484.274	157.625
2486.683	162.625
2489.091	167.29167
2491.497	165.95833
2493.901	164.29167
2496.304	157.95833
2498.705	165.95833
2501.105	157.625
2503.503	169.29167
2505.899	153.625
2508.294	166.625
2510.687	154.29167
2513.079	154.29167
2515.469	150.95833
2517.858	150.29167
2520.245	162.625
2522.63	157.625
2525.014	152.29167
2527.396	151.29167
2529.776	152.625
2532.156	159.95833
2534.533	143.29167
2536.909	144.95833
2539.283	138.95833
2541.656	146.29167
2544.027	159.95833
2546.397	158.29167
2548.765	144.625
2551.131	148.95833
2553.496	156.625
2555.86	154.29167
2558.221	156.625
2560.582	142.95833
2562.94	137.625
2565.298	154.29167
2567.653	154.95833
2570.007	137.625
2572.36	154.625
2574.711	141.29167
2577.06	162.95833
2579.408	139.95833
2581.754	143.95833
2584.099	137.625
2586.442	144.625
2588.784	144.95833
2591.124	145.29167
2593.463	144.29167
2595.8	142.95833
2598.135	131.29167
2600.469	134.625
2602.802	148.95833
2605.133	150.29167
2607.462	134.95833
2609.79	130.625
2612.116	148.95833
2614.441	136.625
2616.764	140.29167
2619.086	144.29167
2621.406	138.29167
2623.725	147.625
2626.042	141.625
2628.358	129.625
2630.672	138.29167
2632.985	149.95833
2635.296	146.95833
2637.606	142.29167
2639.914	133.95833
2642.22	137.29167
2644.525	138.95833
2646.829	135.29167
2649.131	152.29167
2651.432	147.95833
2653.731	132.95833
2656.028	147.29167
2658.324	137.625
2660.619	126.29167
2662.912	147.29167
2665.204	127.625
2667.494	143.29167
2669.782	130.95833
2672.07	149.625
2674.355	143.95833
2676.639	143.625
2678.922	130.29167
2681.203	138.29167
2683.483	136.95833
2685.761	124.29167
2688.038	140.29167
2690.313	156.29167
2692.587	139.29167
2694.859	133.29167
2697.13	131.625
2699.399	143.625
2701.667	147.29167
2703.933	143.95833
2706.198	149.29167
2708.461	146.95833
2710.723	147.95833
2712.984	140.95833
2715.243	147.625
2717.5	137.29167
2719.757	149.29167
2722.011	138.95833
2724.264	149.95833
2726.516	154.625
2728.766	132.29167
2731.015	145.29167
2733.262	141.95833
2735.508	136.95833
2737.753	146.95833
2739.996	129.625
2742.237	131.95833
2744.477	147.29167
2746.716	150.29167
2748.953	148.625
2751.189	150.625
2753.423	144.95833
2755.656	137.625
2757.887	133.95833
2760.117	128.95833
2762.346	132.625
2764.573	117.625
2766.798	125.29167
2769.022	129.625
2771.245	125.625
2773.467	127.95833
2775.686	128.29167
2777.905	135.29167
2780.122	132.95833
2782.337	142.29167
2784.552	126.95833
2786.764	127.625
2788.976	126.95833
2791.186	136.95833
2793.394	131.625
2795.601	140.29167
2797.807	146.625
2800.011	137.95833
2802.214	150.625
2804.415	141.625
2806.615	146.625
2808.814	139.625
2811.011	143.95833
2813.206	146.29167
2815.401	161.95833
2817.594	151.95833
2819.785	157.625
2821.975	144.29167
2824.164	153.625
2826.351	146.95833
2828.537	161.29167
2830.722	167.625
2832.905	160.95833
2835.086	170.95833
2837.267	184.625
2839.445	180.29167
2841.623	184.95833
2843.799	185.29167
2845.974	190.29167
2848.147	194.625
2850.319	214.625
2852.489	217.625
2854.659	221.95833
2856.826	217.95833
2858.993	240.95833
2861.158	219.625
2863.321	222.625
2865.483	242.95833
2867.644	239.95833
2869.804	237.95833
2871.962	230.29167
2874.118	237.95833
2876.274	245.625
2878.428	246.95833
2880.58	247.625
2882.731	224.625
2884.881	232.95833
2887.03	233.95833
2889.177	229.29167
2891.322	236.95833
2893.467	228.625
2895.61	225.625
2897.751	242.625
2899.892	226.95833
2902.03	237.625
2904.168	231.625
2906.304	231.625
2908.439	252.95833
2910.572	223.95833
2912.704	242.95833
2914.835	243.95833
2916.965	237.95833
2919.093	251.625
2921.219	220.625
2923.345	257.625
2925.469	236.29167
2927.591	227.625
2929.712	214.625
2931.832	227.29167
2933.951	224.29167
2936.068	217.625
2938.184	208.29167
2940.299	200.29167
2942.412	203.29167
2944.524	183.29167
2946.634	192.95833
2948.744	168.625
2950.851	204.29167
2952.958	166.29167
2955.063	173.625
2957.167	172.95833
2959.269	157.625
2961.371	186.95833
2963.471	156.95833
2965.569	172.95833
2967.666	145.29167
2969.762	141.95833
2971.857	135.95833
2973.95	137.29167
2976.042	144.95833
2978.133	130.625
2980.222	134.29167
2982.31	122.29167
2984.396	105.95833
2986.482	110.95833
2988.566	120.29167
2990.648	121.625
2992.73	116.625
2994.81	100.29167
2996.889	116.29167
2998.966	111.29167
3001.042	123.29167
3003.117	111.95833
3005.191	114.625
3007.263	120.625
3009.334	114.625
3011.403	116.29167
3013.472	107.29167
3015.539	122.95833
3017.604	130.29167
3019.669	101.95833
3021.732	104.95833
3023.794	104.29167
3025.854	98.29167
3027.914	93.625
3029.971	96.29167
3032.028	100.29167
3034.083	106.95833
3036.137	103.29167
3038.19	89.625
3040.242	81.29167
3042.292	85.29167
3044.341	93.625
3046.388	109.95833
3048.435	86.95833
3050.48	105.29167
3052.524	88.29167
3054.566	78.95833
3056.607	87.625
3058.647	84.95833
3060.686	74.95833
3062.723	70.625
3064.759	76.95833
3066.794	-0.70833
3068.828	-0.04167
3070.86	0.625
