-0.839	141.625
3.438	147.95833
7.711	63.29167
11.981	43.29167
16.247	31.95833
20.509	36.625
24.768	35.95833
29.024	45.29167
33.276	30.625
37.524	42.625
41.769	28.95833
46.01	29.95833
50.247	45.625
54.481	48.625
58.712	56.29167
62.939	36.625
67.162	51.29167
71.382	46.29167
75.599	34.29167
79.812	41.29167
84.021	61.625
88.227	42.625
92.429	49.29167
96.628	39.95833
100.823	52.29167
105.015	47.95833
109.204	44.29167
113.388	57.625
117.57	41.29167
121.748	55.625
125.922	44.625
130.093	64.625
134.261	63.95833
138.425	52.95833
142.585	83.625
146.742	63.95833
150.896	79.625
155.046	72.29167
159.193	107.625
163.336	156.95833
167.476	272.29167
171.613	467.95833
175.746	778.625
179.875	1130.95833
184.002	1466.625
188.124	1727.625
192.244	1796.95833
196.36	1819.95833
200.472	1806.95833
204.581	1800.95833
208.687	1723.95833
212.79	1737.95833
216.889	1731.29167
220.984	1767.95833
225.077	1774.625
229.165	1793.29167
233.251	1786.29167
237.333	1775.95833
241.412	1780.95833
245.487	1762.625
249.559	1733.29167
253.628	1743.29167
257.694	1707.29167
261.756	1716.29167
265.814	1694.29167
269.87	1649.29167
273.922	1590.29167
277.97	1591.625
282.016	1580.95833
286.058	1565.29167
290.097	1576.29167
294.132	1604.95833
298.164	1600.625
302.193	1532.29167
306.219	1449.95833
310.241	1380.95833
314.26	1288.625
318.276	1221.95833
322.288	1192.95833
326.297	1162.29167
330.303	1137.625
334.305	1118.625
338.305	1106.29167
342.301	1098.95833
346.294	1096.95833
350.283	1085.29167
354.269	1089.625
358.252	1072.625
362.232	1079.95833
366.209	1080.625
370.182	1072.95833
374.152	1057.29167
378.119	1067.29167
382.083	1045.95833
386.043	1081.625
390	1066.625
393.954	1068.625
397.905	1072.95833
401.852	1103.625
405.797	1075.95833
409.738	1079.29167
413.676	1096.29167
417.61	1118.95833
421.542	1068.29167
425.47	1059.625
429.396	1055.625
433.318	1034.625
437.236	1049.29167
441.152	1070.95833
445.065	1032.95833
448.974	1032.29167
452.88	1024.29167
456.783	1025.95833
460.683	1023.29167
464.58	1028.29167
468.473	1025.29167
472.364	1041.29167
476.251	1026.625
480.135	1042.625
484.016	1049.95833
487.894	1050.95833
491.769	1052.625
495.641	1034.95833
499.509	1045.95833
503.375	1051.625
507.237	1044.29167
511.096	1045.29167
514.952	1058.625
518.805	1036.95833
522.655	1035.95833
526.502	1049.29167
530.346	1054.625
534.187	1037.95833
538.024	1053.95833
541.859	1039.95833
545.69	1050.29167
549.519	1060.625
553.344	1036.625
557.166	1030.625
560.985	1021.95833
564.802	1025.625
568.615	1011.625
572.425	1009.29167
576.232	995.29167
580.036	1007.29167
583.836	1001.625
587.634	1004.625
591.429	1001.29167
595.221	1034.29167
599.01	1024.625
602.796	1025.625
606.578	1025.625
610.358	1021.29167
614.135	1021.625
617.909	1039.625
621.679	1013.95833
625.447	1006.625
629.212	1005.625
632.973	1024.95833
636.732	1020.29167
640.488	1016.29167
644.241	1000.95833
647.991	989.625
651.737	1012.95833
655.481	991.625
659.222	992.95833
662.96	978.625
666.695	1005.625
670.427	998.625
674.156	1010.95833
677.882	1015.29167
681.605	1005.29167
685.325	993.625
689.043	1015.29167
692.757	991.29167
696.468	997.29167
700.177	980.29167
703.882	969.625
707.585	968.29167
711.284	970.625
714.981	959.29167
718.675	955.29167
722.366	976.29167
726.054	963.95833
729.739	962.625
733.421	961.625
737.1	960.625
740.777	968.95833
744.45	963.29167
748.121	967.29167
751.789	1010.95833
755.453	978.95833
759.115	995.625
762.774	992.29167
766.431	982.29167
770.084	993.95833
773.734	982.95833
777.382	1004.29167
781.027	1011.95833
784.669	995.29167
788.308	996.625
791.944	1014.625
795.577	1013.625
799.208	1017.625
802.835	1021.625
806.46	1037.625
810.082	1024.95833
813.701	1023.95833
817.317	1038.95833
820.931	1036.95833
824.542	1047.95833
828.149	1028.29167
831.754	1000.95833
835.357	1002.29167
838.956	1026.29167
842.553	1018.625
846.146	998.95833
849.737	975.95833
853.326	993.95833
856.911	960.625
860.493	1002.29167
864.073	1005.29167
867.65	1016.625
871.225	1043.29167
874.796	1018.29167
878.365	989.625
881.931	1006.95833
885.494	1023.625
889.054	999.29167
892.612	1014.95833
896.166	996.95833
899.719	979.95833
903.268	959.29167
906.814	964.625
910.358	956.29167
913.899	961.625
917.438	959.29167
920.973	926.95833
924.506	954.29167
928.036	958.29167
931.564	964.95833
935.088	996.95833
938.61	978.29167
942.129	967.95833
945.646	980.625
949.16	1003.625
952.671	1025.625
956.179	1021.29167
959.685	1004.625
963.188	1013.625
966.688	1009.29167
970.185	974.625
973.68	950.29167
977.173	943.29167
980.662	930.95833
984.149	944.29167
987.633	929.29167
991.114	934.95833
994.593	956.95833
998.069	962.95833
1001.542	991.625
1005.013	988.95833
1008.481	918.29167
1011.947	905.625
1015.409	892.29167
1018.869	902.625
1022.327	912.29167
1025.782	892.29167
1029.234	876.625
1032.683	872.625
1036.13	855.29167
1039.574	832.29167
1043.016	799.95833
1046.455	812.625
1049.891	788.625
1053.325	812.29167
1056.756	801.95833
1060.184	805.95833
1063.61	796.625
1067.033	805.625
1070.454	801.625
1073.872	825.29167
1077.287	795.95833
1080.7	809.625
1084.11	803.95833
1087.517	809.95833
1090.922	792.625
1094.325	774.29167
1097.724	772.625
1101.122	777.29167
1104.516	773.95833
1107.908	743.29167
1111.298	767.29167
1114.684	776.95833
1118.069	773.95833
1121.45	794.625
1124.83	774.625
1128.206	783.625
1131.58	796.95833
1134.951	811.625
1138.32	817.625
1141.687	855.29167
1145.05	857.625
1148.412	849.625
1151.77	851.29167
1155.126	861.625
1158.48	845.29167
1161.831	855.95833
1165.18	846.29167
1168.525	875.95833
1171.869	863.625
1175.21	870.95833
1178.548	887.95833
1181.884	895.95833
1185.217	885.625
1188.548	913.95833
1191.877	923.95833
1195.202	967.95833
1198.526	986.29167
1201.846	982.29167
1205.165	989.29167
1208.48	990.29167
1211.794	979.95833
1215.104	977.625
1218.413	974.95833
1221.719	957.29167
1225.022	958.625
1228.323	958.95833
1231.621	952.29167
1234.917	940.95833
1238.21	961.95833
1241.501	938.29167
1244.79	925.625
1248.076	918.625
1251.359	936.29167
1254.64	975.29167
1257.919	953.29167
1261.195	962.29167
1264.468	954.95833
1267.74	977.29167
1271.008	977.625
1274.275	984.29167
1277.538	972.95833
1280.8	965.625
1284.059	973.95833
1287.315	982.29167
1290.569	958.29167
1293.821	987.625
1297.07	996.29167
1300.317	983.625
1303.562	1002.95833
1306.803	979.625
1310.043	988.29167
1313.28	983.625
1316.515	980.95833
1319.747	978.29167
1322.977	959.29167
1326.204	969.29167
1329.429	946.95833
1332.652	952.29167
1335.872	935.29167
1339.09	925.625
1342.306	938.29167
1345.519	933.95833
1348.729	918.625
1351.938	926.29167
1355.144	904.95833
1358.347	878.625
1361.548	898.29167
1364.747	893.29167
1367.944	875.95833
1371.138	885.29167
1374.329	892.625
1377.518	881.625
1380.705	882.625
1383.89	886.95833
1387.072	853.625
1390.252	837.625
1393.429	819.95833
1396.605	797.625
1399.777	784.29167
1402.948	770.625
1406.116	754.29167
1409.282	753.95833
1412.445	759.625
1415.606	765.29167
1418.765	772.95833
1421.921	775.29167
1425.075	775.95833
1428.227	799.29167
1431.376	829.95833
1434.524	855.29167
1437.668	879.29167
1440.811	889.625
1443.951	883.625
1447.089	888.625
1450.224	897.625
1453.357	869.29167
1456.488	879.95833
1459.617	872.625
1462.743	864.625
1465.867	843.29167
1468.989	834.95833
1472.108	801.95833
1475.225	802.95833
1478.34	787.29167
1481.453	796.29167
1484.563	795.95833
1487.671	808.95833
1490.776	813.625
1493.88	825.625
1496.981	825.29167
1500.08	846.29167
1503.176	834.29167
1506.271	834.29167
1509.363	857.625
1512.452	861.29167
1515.54	873.29167
1518.625	884.29167
1521.708	914.625
1524.789	921.29167
1527.867	960.29167
1530.944	986.95833
1534.018	998.95833
1537.089	1051.95833
1540.159	1068.95833
1543.226	1067.625
1546.291	1033.95833
1549.354	1024.29167
1552.415	1015.29167
1555.473	985.29167
1558.529	977.95833
1561.583	962.29167
1564.634	959.95833
1567.684	964.29167
1570.731	968.95833
1573.776	963.95833
1576.819	982.625
1579.859	976.29167
1582.898	995.29167
1585.934	998.95833
1588.968	1004.95833
1591.999	993.29167
1595.029	991.29167
1598.056	1011.95833
1601.081	1023.95833
1604.104	1021.625
1607.125	995.29167
1610.144	992.95833
1613.16	963.95833
1616.174	938.625
1619.186	928.29167
1622.196	912.95833
1625.203	882.95833
1628.209	885.625
1631.212	875.29167
1634.213	871.29167
1637.212	878.625
1640.209	877.29167
1643.203	843.625
1646.196	824.625
1649.186	796.625
1652.174	790.29167
1655.16	747.29167
1658.144	755.625
1661.125	709.95833
1664.105	682.29167
1667.082	665.625
1670.057	625.95833
1673.03	596.29167
1676.001	574.625
1678.97	538.95833
1681.937	515.625
1684.901	490.625
1687.863	487.95833
1690.824	453.95833
1693.782	475.29167
1696.738	432.625
1699.692	433.95833
1702.643	415.29167
1705.593	421.625
1708.54	423.625
1711.486	424.625
1714.429	404.29167
1717.37	410.29167
1720.309	393.95833
1723.246	413.625
1726.181	388.95833
1729.113	388.29167
1732.044	399.95833
1734.972	393.95833
1737.899	395.29167
1740.823	400.29167
1743.745	417.29167
1746.665	380.95833
1749.583	370.95833
1752.499	367.29167
1755.413	365.29167
1758.325	346.625
1761.235	364.29167
1764.142	344.29167
1767.048	352.95833
1769.951	349.29167
1772.852	346.29167
1775.752	363.29167
1778.649	369.95833
1781.544	364.625
1784.437	334.29167
1787.328	344.95833
1790.217	341.29167
1793.104	316.625
1795.989	328.95833
1798.872	319.95833
1801.753	341.95833
1804.631	331.95833
1807.508	331.29167
1810.383	330.95833
1813.255	325.29167
1816.126	322.95833
1818.994	325.29167
1821.861	320.29167
1824.725	325.29167
1827.587	321.95833
1830.448	326.29167
1833.306	306.625
1836.162	321.29167
1839.017	311.625
1841.869	312.95833
1844.719	306.625
1847.567	297.29167
1850.414	305.29167
1853.258	295.29167
1856.1	303.95833
1858.94	317.625
1861.778	308.625
1864.614	298.95833
1867.448	302.29167
1870.28	285.29167
1873.111	309.625
1875.939	303.625
1878.765	312.29167
1881.589	299.29167
1884.411	306.29167
1887.231	302.625
1890.049	303.95833
1892.865	305.625
1895.68	288.29167
1898.492	299.95833
1901.302	299.625
1904.11	290.29167
1906.916	284.29167
1909.721	292.29167
1912.523	289.95833
1915.323	279.29167
1918.122	279.625
1920.918	292.29167
1923.712	276.625
1926.505	288.29167
1929.295	268.625
1932.084	292.29167
1934.87	284.625
1937.655	277.95833
1940.438	273.29167
1943.218	272.95833
1945.997	281.29167
1948.774	285.95833
1951.549	289.625
1954.322	276.29167
1957.093	271.625
1959.862	275.95833
1962.629	272.625
1965.394	269.625
1968.157	262.625
1970.918	274.29167
1973.678	260.29167
1976.435	273.29167
1979.19	256.95833
1981.944	247.95833
1984.696	257.29167
1987.445	249.625
1990.193	263.625
1992.939	275.625
1995.683	261.95833
1998.425	247.625
2001.165	277.95833
2003.903	245.29167
2006.639	260.29167
2009.374	259.29167
2012.106	259.95833
2014.837	233.625
2017.566	263.29167
2020.292	262.625
2023.017	252.95833
2025.74	241.95833
2028.461	241.29167
2031.18	249.625
2033.898	249.625
2036.613	238.95833
2039.327	250.625
2042.038	240.95833
2044.748	242.625
2047.456	250.95833
2050.162	240.29167
2052.866	235.625
2055.568	251.95833
2058.268	238.29167
2060.967	253.95833
2063.663	234.95833
2066.358	234.625
2069.051	235.29167
2071.742	242.625
2074.431	242.625
2077.118	236.95833
2079.804	222.625
2082.487	240.95833
2085.169	251.95833
2087.849	255.29167
2090.527	232.29167
2093.203	237.625
2095.877	236.29167
2098.55	235.95833
2101.22	241.95833
2103.889	236.95833
2106.556	232.625
2109.221	247.95833
2111.884	240.29167
2114.546	261.29167
2117.205	264.95833
2119.863	295.95833
2122.519	286.95833
2125.173	306.625
2127.825	331.625
2130.475	332.625
2133.124	320.95833
2135.771	307.625
2138.416	318.95833
2141.059	284.95833
2143.7	286.95833
2146.339	273.29167
2148.977	244.95833
2151.613	254.95833
2154.247	253.625
2156.879	243.625
2159.51	235.95833
2162.138	238.29167
2164.765	229.29167
2167.39	211.625
2170.013	248.29167
2172.634	233.625
2175.254	220.625
2177.872	257.625
2180.488	209.95833
2183.102	220.29167
2185.714	220.95833
2188.325	203.95833
2190.934	216.95833
2193.541	221.29167
2196.146	213.95833
2198.75	204.625
2201.351	204.625
2203.951	183.29167
2206.549	213.29167
2209.146	203.95833
2211.74	196.29167
2214.333	207.29167
2216.924	192.95833
2219.514	202.29167
2222.101	190.95833
2224.687	211.95833
2227.271	186.95833
2229.853	191.625
2232.433	182.95833
2235.012	206.625
2237.589	188.95833
2240.164	206.29167
2242.738	188.625
2245.309	185.29167
2247.879	207.625
2250.448	197.95833
2253.014	177.625
2255.579	175.95833
2258.142	180.95833
2260.703	178.29167
2263.262	181.95833
2265.82	173.29167
2268.376	194.625
2270.93	176.29167
2273.483	173.29167
2276.033	182.625
2278.583	172.95833
2281.13	173.29167
2283.675	165.625
2286.219	174.29167
2288.761	180.95833
2291.302	178.29167
2293.841	185.625
2296.377	162.95833
2298.913	171.29167
2301.446	187.95833
2303.978	176.29167
2306.508	175.29167
2309.037	173.625
2311.563	177.29167
2314.088	177.95833
2316.612	159.95833
2319.133	172.625
2321.653	171.29167
2324.171	166.625
2326.688	178.29167
2329.202	175.29167
2331.715	171.95833
2334.227	168.29167
2336.736	165.29167
2339.244	169.625
2341.751	152.29167
2344.255	169.95833
2346.758	170.29167
2349.259	161.625
2351.759	168.625
2354.257	157.625
2356.753	156.29167
2359.247	161.95833
2361.74	160.29167
2364.231	163.29167
2366.721	168.29167
2369.209	156.95833
2371.695	160.625
2374.179	153.625
2376.662	142.29167
2379.143	168.29167
2381.622	157.95833
2384.1	167.95833
2386.576	157.625
2389.051	162.625
2391.524	168.29167
2393.995	162.625
2396.464	151.625
2398.932	151.95833
2401.398	163.29167
2403.863	155.95833
2406.325	157.29167
2408.787	157.29167
2411.246	153.29167
2413.704	154.625
2416.16	141.29167
2418.615	148.625
2421.068	152.625
2423.519	152.29167
2425.969	148.625
2428.417	162.95833
2430.863	173.625
2433.308	155.95833
2435.751	153.95833
2438.193	153.29167
2440.633	153.95833
2443.071	157.95833
2445.508	144.625
2447.943	151.95833
2450.376	145.29167
2452.808	151.95833
2455.238	136.625
2457.667	172.29167
2460.093	139.625
2462.519	138.625
2464.942	140.625
2467.365	145.29167
2469.785	148.29167
2472.204	140.95833
2474.621	138.625
2477.037	155.95833
2479.451	132.95833
2481.863	130.29167
2484.274	137.625
2486.683	138.95833
2489.091	150.29167
2491.497	148.95833
2493.901	148.95833
2496.304	138.95833
2498.705	153.29167
2501.105	139.625
2503.503	159.29167
2505.899	130.625
2508.294	160.625
2510.687	134.625
2513.079	141.29167
2515.469	133.95833
2517.858	135.95833
2520.245	153.625
2522.63	136.625
2525.014	136.95833
2527.396	128.625
2529.776	133.95833
2532.156	140.625
2534.533	126.95833
2536.909	123.625
2539.283	121.625
2541.656	138.95833
2544.027	138.29167
2546.397	139.29167
2548.765	127.625
2551.131	136.95833
2553.496	138.625
2555.86	137.625
2558.221	141.29167
2560.582	128.95833
2562.94	126.29167
2565.298	128.29167
2567.653	144.95833
2570.007	122.625
2572.36	138.95833
2574.711	124.29167
2577.06	145.29167
2579.408	130.625
2581.754	127.29167
2584.099	130.625
2586.442	129.95833
2588.784	131.625
2591.124	124.625
2593.463	127.95833
2595.8	135.625
2598.135	114.625
2600.469	125.625
2602.802	132.29167
2605.133	135.95833
2607.462	123.95833
2609.79	110.95833
2612.116	133.625
2614.441	126.625
2616.764	128.95833
2619.086	129.29167
2621.406	124.625
2623.725	136.625
2626.042	124.625
2628.358	115.95833
2630.672	128.95833
2632.985	137.29167
2635.296	124.95833
2637.606	123.29167
2639.914	120.29167
2642.22	122.29167
2644.525	124.95833
2646.829	122.95833
2649.131	140.95833
2651.432	127.29167
2653.731	120.95833
2656.028	137.29167
2658.324	129.95833
2660.619	117.29167
2662.912	131.29167
2665.204	113.29167
2667.494	130.29167
2669.782	117.95833
2672.07	135.625
2674.355	135.29167
2676.639	137.29167
2678.922	120.625
2681.203	132.625
2683.483	121.95833
2685.761	116.29167
2688.038	128.95833
2690.313	138.95833
2692.587	127.95833
2694.859	122.95833
2697.13	120.625
2699.399	129.29167
2701.667	132.95833
2703.933	132.29167
2706.198	134.95833
2708.461	137.29167
2710.723	132.95833
2712.984	128.29167
2715.243	133.95833
2717.5	128.625
2719.757	134.95833
2722.011	129.625
2724.264	138.625
2726.516	146.625
2728.766	125.625
2731.015	133.95833
2733.262	128.95833
2735.508	127.29167
2737.753	132.29167
2739.996	118.625
2742.237	123.95833
2744.477	134.625
2746.716	141.29167
2748.953	137.625
2751.189	136.625
2753.423	135.95833
2755.656	126.625
2757.887	118.95833
2760.117	120.29167
2762.346	119.29167
2764.573	110.625
2766.798	121.29167
2769.022	122.95833
2771.245	116.95833
2773.467	122.625
2775.686	116.29167
2777.905	123.95833
2780.122	126.29167
2782.337	126.95833
2784.552	119.625
2786.764	118.625
2788.976	116.95833
2791.186	127.625
2793.394	125.95833
2795.601	133.29167
2797.807	133.95833
2800.011	126.29167
2802.214	132.29167
2804.415	127.95833
2806.615	126.95833
2808.814	135.95833
2811.011	138.29167
2813.206	138.95833
2815.401	143.95833
2817.594	142.95833
2819.785	145.95833
2821.975	132.29167
2824.164	134.95833
2826.351	140.95833
2828.537	154.29167
2830.722	151.625
2832.905	147.29167
2835.086	150.625
2837.267	170.625
2839.445	169.29167
2841.623	161.95833
2843.799	167.29167
2845.974	170.95833
2848.147	173.625
2850.319	184.625
2852.489	187.29167
2854.659	197.29167
2856.826	197.625
2858.993	216.95833
2861.158	189.95833
2863.321	198.625
2865.483	217.95833
2867.644	206.29167
2869.804	207.29167
2871.962	203.95833
2874.118	209.29167
2876.274	217.95833
2878.428	212.95833
2880.58	209.625
2882.731	196.95833
2884.881	204.625
2887.03	214.29167
2889.177	203.95833
2891.322	215.625
2893.467	198.625
2895.61	199.95833
2897.751	213.29167
2899.892	201.625
2902.03	208.625
2904.168	208.29167
2906.304	209.625
2908.439	218.29167
2910.572	197.95833
2912.704	210.29167
2914.835	216.95833
2916.965	213.95833
2919.093	231.95833
2921.219	202.29167
2923.345	230.95833
2925.469	211.625
2927.591	208.29167
2929.712	193.95833
2931.832	207.29167
2933.951	199.625
2936.068	193.95833
2938.184	192.29167
2940.299	188.29167
2942.412	186.625
2944.524	169.625
2946.634	181.625
2948.744	158.95833
2950.851	191.95833
2952.958	157.29167
2955.063	168.625
2957.167	158.625
2959.269	145.625
2961.371	172.95833
2963.471	147.29167
2965.569	162.95833
2967.666	136.95833
2969.762	139.29167
2971.857	131.29167
2973.95	132.95833
2976.042	138.29167
2978.133	128.29167
2980.222	130.29167
2982.31	125.29167
2984.396	107.95833
2986.482	110.95833
2988.566	116.29167
2990.648	117.95833
2992.73	114.625
2994.81	102.95833
2996.889	122.29167
2998.966	110.29167
3001.042	124.95833
3003.117	110.625
3005.191	114.625
3007.263	122.29167
3009.334	111.95833
3011.403	114.29167
3013.472	104.29167
3015.539	124.625
3017.604	128.29167
3019.669	100.95833
3021.732	106.29167
3023.794	106.29167
3025.854	102.95833
3027.914	102.95833
3029.971	100.625
3032.028	102.29167
3034.083	113.29167
3036.137	102.625
3038.19	91.95833
3040.242	88.29167
3042.292	85.29167
3044.341	93.625
3046.388	106.625
3048.435	87.95833
3050.48	102.29167
3052.524	96.29167
3054.566	77.95833
3056.607	96.29167
3058.647	86.95833
3060.686	76.29167
3062.723	77.95833
3064.759	78.625
3066.794	0.95833
3068.828	0.625
3070.86	4.29167
