-0.839	144.04167
3.438	157.70833
7.711	67.70833
11.981	43.375
16.247	27.04167
20.509	37.04167
24.768	36.04167
29.024	47.04167
33.276	31.375
37.524	41.04167
41.769	30.70833
46.01	28.375
50.247	42.70833
54.481	47.70833
58.712	51.04167
62.939	39.04167
67.162	54.70833
71.382	47.375
75.599	37.04167
79.812	44.04167
84.021	63.375
88.227	42.04167
92.429	50.04167
96.628	39.70833
100.823	51.04167
105.015	55.375
109.204	50.375
113.388	60.70833
117.57	48.70833
121.748	63.375
125.922	49.70833
130.093	70.375
134.261	64.04167
138.425	55.375
142.585	85.70833
146.742	66.375
150.896	84.04167
155.046	79.04167
159.193	119.04167
163.336	172.375
167.476	298.375
171.613	542.04167
175.746	862.70833
179.875	1275.04167
184.002	1653.04167
188.124	1977.04167
192.244	2082.70833
196.36	2077.70833
200.472	2085.375
204.581	2081.375
208.687	2007.70833
212.79	2022.375
216.889	2043.375
220.984	2072.04167
225.077	2092.375
229.165	2092.70833
233.251	2091.375
237.333	2109.375
241.412	2098.70833
245.487	2076.375
249.559	2047.375
253.628	2039.375
257.694	2025.70833
261.756	2035.70833
265.814	1984.375
269.87	1927.70833
273.922	1886.375
277.97	1871.04167
282.016	1829.375
286.058	1823.04167
290.097	1871.70833
294.132	1884.70833
298.164	1874.375
302.193	1801.375
306.219	1714.04167
310.241	1612.375
314.26	1518.04167
318.276	1449.70833
322.288	1422.70833
326.297	1359.70833
330.303	1345.04167
334.305	1328.375
338.305	1321.04167
342.301	1297.70833
346.294	1308.04167
350.283	1300.04167
354.269	1285.70833
358.252	1289.375
362.232	1307.70833
366.209	1291.375
370.182	1291.70833
374.152	1277.70833
378.119	1291.04167
382.083	1265.375
386.043	1285.375
390	1280.04167
393.954	1289.70833
397.905	1300.70833
401.852	1322.375
405.797	1288.70833
409.738	1311.04167
413.676	1356.70833
417.61	1386.375
421.542	1315.70833
425.47	1273.375
429.396	1257.70833
433.318	1255.04167
437.236	1249.70833
441.152	1287.70833
445.065	1224.04167
448.974	1235.04167
452.88	1254.04167
456.783	1234.04167
460.683	1236.70833
464.58	1237.375
468.473	1247.70833
472.364	1239.375
476.251	1241.375
480.135	1249.70833
484.016	1256.04167
487.894	1280.04167
491.769	1284.375
495.641	1262.70833
499.509	1273.375
503.375	1274.375
507.237	1256.04167
511.096	1252.70833
514.952	1265.70833
518.805	1265.375
522.655	1243.04167
526.502	1254.375
530.346	1260.04167
534.187	1253.70833
538.024	1254.375
541.859	1255.04167
545.69	1277.04167
549.519	1267.375
553.344	1255.70833
557.166	1233.04167
560.985	1241.375
564.802	1245.70833
568.615	1211.70833
572.425	1190.375
576.232	1203.375
580.036	1198.70833
583.836	1204.375
587.634	1201.70833
591.429	1199.70833
595.221	1235.04167
599.01	1229.70833
602.796	1213.70833
606.578	1238.375
610.358	1229.04167
614.135	1211.70833
617.909	1217.375
621.679	1218.375
625.447	1204.375
629.212	1205.375
632.973	1211.04167
636.732	1213.375
640.488	1224.04167
644.241	1180.70833
647.991	1186.04167
651.737	1217.375
655.481	1179.70833
659.222	1173.04167
662.96	1169.04167
666.695	1197.375
670.427	1200.70833
674.156	1199.70833
677.882	1212.70833
681.605	1194.70833
685.325	1177.70833
689.043	1197.375
692.757	1183.04167
696.468	1197.70833
700.177	1187.375
703.882	1152.375
707.585	1161.70833
711.284	1161.70833
714.981	1148.70833
718.675	1156.04167
722.366	1167.375
726.054	1140.70833
729.739	1140.70833
733.421	1152.04167
737.1	1151.70833
740.777	1158.04167
744.45	1150.70833
748.121	1154.70833
751.789	1188.70833
755.453	1168.70833
759.115	1184.04167
762.774	1177.375
766.431	1171.375
770.084	1184.375
773.734	1177.375
777.382	1202.04167
781.027	1201.70833
784.669	1182.04167
788.308	1178.04167
791.944	1193.375
795.577	1200.70833
799.208	1198.04167
802.835	1217.04167
806.46	1222.375
810.082	1229.375
813.701	1226.04167
817.317	1226.70833
820.931	1224.70833
824.542	1233.375
828.149	1198.70833
831.754	1187.70833
835.357	1187.70833
838.956	1198.04167
842.553	1214.04167
846.146	1206.70833
849.737	1158.04167
853.326	1172.375
856.911	1150.70833
860.493	1171.375
864.073	1202.70833
867.65	1234.70833
871.225	1242.375
874.796	1194.04167
878.365	1177.70833
881.931	1190.04167
885.494	1201.375
889.054	1197.375
892.612	1198.375
896.166	1180.375
899.719	1158.375
903.268	1148.375
906.814	1147.04167
910.358	1145.04167
913.899	1125.375
917.438	1125.70833
920.973	1114.04167
924.506	1137.04167
928.036	1149.04167
931.564	1152.70833
935.088	1177.04167
938.61	1157.04167
942.129	1163.375
945.646	1175.70833
949.16	1182.375
952.671	1198.04167
956.179	1212.04167
959.685	1198.375
963.188	1209.04167
966.688	1175.70833
970.185	1154.04167
973.68	1120.70833
977.173	1128.04167
980.662	1113.70833
984.149	1126.375
987.633	1104.04167
991.114	1143.04167
994.593	1138.375
998.069	1165.70833
1001.542	1181.70833
1005.013	1178.70833
1008.481	1115.70833
1011.947	1102.70833
1015.409	1090.70833
1018.869	1102.70833
1022.327	1087.375
1025.782	1078.375
1029.234	1051.70833
1032.683	1058.70833
1036.13	1024.375
1039.574	989.375
1043.016	979.70833
1046.455	966.04167
1049.891	949.04167
1053.325	960.70833
1056.756	967.70833
1060.184	977.04167
1063.61	940.70833
1067.033	956.375
1070.454	947.04167
1073.872	986.04167
1077.287	953.375
1080.7	964.375
1084.11	964.375
1087.517	946.375
1090.922	952.375
1094.325	941.70833
1097.724	933.70833
1101.122	917.70833
1104.516	908.04167
1107.908	911.375
1111.298	915.70833
1114.684	930.375
1118.069	923.04167
1121.45	945.04167
1124.83	933.04167
1128.206	948.70833
1131.58	957.70833
1134.951	983.04167
1138.32	980.375
1141.687	1017.70833
1145.05	1029.70833
1148.412	1030.375
1151.77	1020.70833
1155.126	1028.04167
1158.48	1008.04167
1161.831	1006.375
1165.18	1014.70833
1168.525	1032.375
1171.869	1043.04167
1175.21	1052.04167
1178.548	1051.70833
1181.884	1050.04167
1185.217	1056.375
1188.548	1089.375
1191.877	1085.70833
1195.202	1137.375
1198.526	1163.04167
1201.846	1152.04167
1205.165	1152.70833
1208.48	1163.70833
1211.794	1153.375
1215.104	1152.70833
1218.413	1162.04167
1221.719	1154.70833
1225.022	1115.375
1228.323	1109.70833
1231.621	1126.04167
1234.917	1109.375
1238.21	1141.04167
1241.501	1121.04167
1244.79	1097.70833
1248.076	1092.04167
1251.359	1114.04167
1254.64	1134.375
1257.919	1124.70833
1261.195	1145.70833
1264.468	1157.70833
1267.74	1169.04167
1271.008	1168.375
1274.275	1167.375
1277.538	1157.70833
1280.8	1152.375
1284.059	1159.375
1287.315	1160.04167
1290.569	1173.375
1293.821	1177.375
1297.07	1157.375
1300.317	1181.70833
1303.562	1172.04167
1306.803	1159.04167
1310.043	1182.70833
1313.28	1150.04167
1316.515	1137.70833
1319.747	1146.04167
1322.977	1136.70833
1326.204	1130.70833
1329.429	1112.70833
1332.652	1129.375
1335.872	1116.375
1339.09	1099.375
1342.306	1101.375
1345.519	1101.04167
1348.729	1090.375
1351.938	1089.375
1355.144	1073.375
1358.347	1066.04167
1361.548	1062.70833
1364.747	1068.04167
1367.944	1033.375
1371.138	1047.375
1374.329	1043.375
1377.518	1043.375
1380.705	1038.375
1383.89	1069.375
1387.072	1032.04167
1390.252	1012.375
1393.429	973.375
1396.605	950.04167
1399.777	911.375
1402.948	922.375
1406.116	902.70833
1409.282	906.70833
1412.445	896.70833
1415.606	910.375
1418.765	920.375
1421.921	931.04167
1425.075	937.375
1428.227	947.375
1431.376	994.375
1434.524	1015.04167
1437.668	1051.04167
1440.811	1055.70833
1443.951	1056.375
1447.089	1061.70833
1450.224	1057.04167
1453.357	1052.70833
1456.488	1041.04167
1459.617	1031.04167
1462.743	1028.375
1465.867	998.70833
1468.989	995.375
1472.108	968.375
1475.225	949.04167
1478.34	937.375
1481.453	925.375
1484.563	919.70833
1487.671	937.375
1490.776	951.375
1493.88	948.70833
1496.981	981.04167
1500.08	983.04167
1503.176	976.04167
1506.271	992.375
1509.363	1010.375
1512.452	1008.375
1515.54	1016.70833
1518.625	1028.04167
1521.708	1065.70833
1524.789	1096.04167
1527.867	1124.70833
1530.944	1173.70833
1534.018	1210.04167
1537.089	1279.70833
1540.159	1270.04167
1543.226	1262.04167
1546.291	1235.04167
1549.354	1218.375
1552.415	1201.375
1555.473	1171.375
1558.529	1151.375
1561.583	1151.04167
1564.634	1135.375
1567.684	1122.375
1570.731	1129.375
1573.776	1135.70833
1576.819	1148.04167
1579.859	1138.70833
1582.898	1170.70833
1585.934	1171.04167
1588.968	1182.375
1591.999	1161.375
1595.029	1161.375
1598.056	1176.375
1601.081	1191.70833
1604.104	1202.04167
1607.125	1177.375
1610.144	1162.70833
1613.16	1112.375
1616.174	1112.70833
1619.186	1090.70833
1622.196	1057.375
1625.203	1042.04167
1628.209	1026.70833
1631.212	1018.04167
1634.213	1031.04167
1637.212	1038.04167
1640.209	1030.70833
1643.203	990.70833
1646.196	972.04167
1649.186	941.375
1652.174	929.70833
1655.16	889.70833
1658.144	883.04167
1661.125	841.04167
1664.105	821.70833
1667.082	794.04167
1670.057	755.70833
1673.03	712.70833
1676.001	679.04167
1678.97	634.04167
1681.937	622.04167
1684.901	581.04167
1687.863	578.375
1690.824	544.04167
1693.782	550.04167
1696.738	518.375
1699.692	506.70833
1702.643	494.375
1705.593	488.70833
1708.54	485.375
1711.486	495.70833
1714.429	481.375
1717.37	479.375
1720.309	463.04167
1723.246	473.04167
1726.181	454.375
1729.113	464.70833
1732.044	464.375
1734.972	451.375
1737.899	467.375
1740.823	465.70833
1743.745	479.04167
1746.665	442.04167
1749.583	447.04167
1752.499	425.70833
1755.413	434.70833
1758.325	421.375
1761.235	417.375
1764.142	410.04167
1767.048	411.04167
1769.951	409.375
1772.852	405.375
1775.752	431.04167
1778.649	444.375
1781.544	446.375
1784.437	395.70833
1787.328	413.70833
1790.217	397.70833
1793.104	377.375
1795.989	381.375
1798.872	382.70833
1801.753	400.375
1804.631	379.70833
1807.508	390.70833
1810.383	386.04167
1813.255	382.375
1816.126	373.375
1818.994	382.70833
1821.861	373.375
1824.725	379.04167
1827.587	379.375
1830.448	377.375
1833.306	363.04167
1836.162	376.70833
1839.017	372.375
1841.869	373.375
1844.719	373.70833
1847.567	349.04167
1850.414	345.375
1853.258	348.04167
1856.1	373.70833
1858.94	366.04167
1861.778	371.70833
1864.614	347.04167
1867.448	354.70833
1870.28	342.04167
1873.111	363.04167
1875.939	350.04167
1878.765	364.375
1881.589	346.375
1884.411	353.70833
1887.231	355.375
1890.049	356.375
1892.865	362.70833
1895.68	348.04167
1898.492	351.375
1901.302	341.70833
1904.11	342.04167
1906.916	331.375
1909.721	343.375
1912.523	343.70833
1915.323	328.375
1918.122	333.375
1920.918	333.04167
1923.712	329.375
1926.505	334.04167
1929.295	315.70833
1932.084	339.70833
1934.87	327.70833
1937.655	325.70833
1940.438	324.04167
1943.218	322.375
1945.997	333.70833
1948.774	332.70833
1951.549	337.375
1954.322	321.70833
1957.093	323.04167
1959.862	314.04167
1962.629	320.70833
1965.394	320.375
1968.157	306.70833
1970.918	321.70833
1973.678	307.04167
1976.435	323.04167
1979.19	307.04167
1981.944	296.375
1984.696	304.04167
1987.445	301.04167
1990.193	309.70833
1992.939	318.04167
1995.683	304.04167
1998.425	283.70833
2001.165	326.375
2003.903	293.04167
2006.639	296.375
2009.374	302.04167
2012.106	310.04167
2014.837	277.70833
2017.566	305.375
2020.292	292.375
2023.017	295.04167
2025.74	289.375
2028.461	280.04167
2031.18	298.375
2033.898	279.70833
2036.613	291.375
2039.327	286.375
2042.038	283.375
2044.748	286.70833
2047.456	291.70833
2050.162	274.04167
2052.866	283.04167
2055.568	287.375
2058.268	282.375
2060.967	289.70833
2063.663	268.70833
2066.358	271.70833
2069.051	273.04167
2071.742	274.70833
2074.431	282.70833
2077.118	272.04167
2079.804	266.375
2082.487	276.70833
2085.169	283.04167
2087.849	287.70833
2090.527	273.70833
2093.203	274.375
2095.877	277.375
2098.55	277.04167
2101.22	287.04167
2103.889	285.70833
2106.556	279.70833
2109.221	292.04167
2111.884	289.70833
2114.546	312.70833
2117.205	316.70833
2119.863	356.375
2122.519	348.04167
2125.173	377.375
2127.825	407.375
2130.475	418.04167
2133.124	385.04167
2135.771	367.70833
2138.416	385.70833
2141.059	345.375
2143.7	349.04167
2146.339	312.04167
2148.977	285.375
2151.613	306.375
2154.247	292.04167
2156.879	294.70833
2159.51	277.04167
2162.138	278.375
2164.765	268.04167
2167.39	258.04167
2170.013	287.70833
2172.634	270.375
2175.254	265.70833
2177.872	295.70833
2180.488	251.70833
2183.102	253.04167
2185.714	249.04167
2188.325	249.04167
2190.934	252.375
2193.541	258.70833
2196.146	248.375
2198.75	233.04167
2201.351	237.70833
2203.951	228.04167
2206.549	243.375
2209.146	236.70833
2211.74	224.04167
2214.333	231.70833
2216.924	222.375
2219.514	225.375
2222.101	231.375
2224.687	235.70833
2227.271	222.375
2229.853	222.70833
2232.433	206.70833
2235.012	233.375
2237.589	226.70833
2240.164	238.70833
2242.738	218.04167
2245.309	209.70833
2247.879	230.70833
2250.448	230.375
2253.014	211.04167
2255.579	203.04167
2258.142	215.04167
2260.703	210.375
2263.262	203.70833
2265.82	198.375
2268.376	219.04167
2270.93	210.375
2273.483	196.04167
2276.033	218.04167
2278.583	197.375
2281.13	199.70833
2283.675	202.04167
2286.219	191.70833
2288.761	209.04167
2291.302	207.375
2293.841	216.70833
2296.377	194.70833
2298.913	205.04167
2301.446	209.70833
2303.978	202.04167
2306.508	196.375
2309.037	200.04167
2311.563	200.70833
2314.088	197.04167
2316.612	188.04167
2319.133	203.04167
2321.653	196.70833
2324.171	185.375
2326.688	203.70833
2329.202	198.04167
2331.715	197.04167
2334.227	193.375
2336.736	184.70833
2339.244	184.04167
2341.751	177.04167
2344.255	193.375
2346.758	194.04167
2349.259	178.375
2351.759	190.04167
2354.257	181.70833
2356.753	170.375
2359.247	178.04167
2361.74	177.375
2364.231	178.04167
2366.721	194.04167
2369.209	176.375
2371.695	176.70833
2374.179	174.04167
2376.662	170.04167
2379.143	191.04167
2381.622	176.375
2384.1	188.70833
2386.576	179.70833
2389.051	183.04167
2391.524	188.70833
2393.995	186.375
2396.464	178.04167
2398.932	169.04167
2401.398	180.70833
2403.863	173.04167
2406.325	169.70833
2408.787	176.70833
2411.246	175.04167
2413.704	174.04167
2416.16	168.04167
2418.615	165.04167
2421.068	172.70833
2423.519	162.375
2425.969	162.70833
2428.417	178.04167
2430.863	187.375
2433.308	175.375
2435.751	173.04167
2438.193	175.375
2440.633	169.04167
2443.071	176.04167
2445.508	162.70833
2447.943	168.70833
2450.376	161.04167
2452.808	169.70833
2455.238	154.375
2457.667	190.04167
2460.093	159.375
2462.519	147.04167
2464.942	149.04167
2467.365	165.04167
2469.785	161.04167
2472.204	157.04167
2474.621	155.375
2477.037	176.375
2479.451	148.04167
2481.863	143.375
2484.274	151.70833
2486.683	158.375
2489.091	169.70833
2491.497	165.375
2493.901	160.04167
2496.304	157.04167
2498.705	167.04167
2501.105	151.04167
2503.503	176.70833
2505.899	150.70833
2508.294	169.04167
2510.687	154.70833
2513.079	149.375
2515.469	147.04167
2517.858	150.04167
2520.245	166.375
2522.63	157.04167
2525.014	153.375
2527.396	146.70833
2529.776	147.70833
2532.156	152.375
2534.533	140.04167
2536.909	142.70833
2539.283	131.70833
2541.656	141.70833
2544.027	158.375
2546.397	151.04167
2548.765	142.70833
2551.131	142.375
2553.496	149.375
2555.86	146.375
2558.221	156.04167
2560.582	137.70833
2562.94	135.04167
2565.298	144.375
2567.653	154.04167
2570.007	134.70833
2572.36	148.04167
2574.711	131.70833
2577.06	151.375
2579.408	142.375
2581.754	143.70833
2584.099	144.70833
2586.442	141.04167
2588.784	150.04167
2591.124	143.04167
2593.463	141.375
2595.8	147.04167
2598.135	133.70833
2600.469	136.375
2602.802	146.375
2605.133	148.375
2607.462	134.70833
2609.79	120.70833
2612.116	147.375
2614.441	135.04167
2616.764	140.375
2619.086	135.04167
2621.406	133.04167
2623.725	149.375
2626.042	133.70833
2628.358	131.70833
2630.672	141.04167
2632.985	148.04167
2635.296	140.70833
2637.606	135.375
2639.914	129.70833
2642.22	134.70833
2644.525	138.70833
2646.829	136.04167
2649.131	151.04167
2651.432	144.04167
2653.731	133.70833
2656.028	150.04167
2658.324	140.375
2660.619	131.04167
2662.912	142.375
2665.204	127.375
2667.494	142.70833
2669.782	127.70833
2672.07	142.04167
2674.355	148.375
2676.639	141.70833
2678.922	130.375
2681.203	141.375
2683.483	128.70833
2685.761	125.04167
2688.038	146.04167
2690.313	148.375
2692.587	138.04167
2694.859	135.375
2697.13	135.375
2699.399	140.04167
2701.667	144.70833
2703.933	136.375
2706.198	147.375
2708.461	145.70833
2710.723	144.375
2712.984	140.04167
2715.243	147.70833
2717.5	135.70833
2719.757	151.375
2722.011	140.70833
2724.264	147.70833
2726.516	154.375
2728.766	136.70833
2731.015	144.375
2733.262	140.375
2735.508	139.375
2737.753	144.70833
2739.996	131.04167
2742.237	131.04167
2744.477	147.375
2746.716	149.04167
2748.953	145.375
2751.189	146.04167
2753.423	138.375
2755.656	126.70833
2757.887	131.04167
2760.117	130.375
2762.346	126.375
2764.573	120.04167
2766.798	127.375
2769.022	134.70833
2771.245	126.375
2773.467	129.375
2775.686	129.04167
2777.905	136.04167
2780.122	130.04167
2782.337	136.375
2784.552	134.04167
2786.764	127.04167
2788.976	121.70833
2791.186	135.70833
2793.394	132.04167
2795.601	140.04167
2797.807	140.375
2800.011	137.04167
2802.214	144.375
2804.415	137.04167
2806.615	134.375
2808.814	141.04167
2811.011	150.70833
2813.206	143.70833
2815.401	154.70833
2817.594	155.04167
2819.785	156.375
2821.975	139.04167
2824.164	151.375
2826.351	142.04167
2828.537	162.70833
2830.722	157.375
2832.905	158.04167
2835.086	163.04167
2837.267	188.375
2839.445	179.70833
2841.623	181.04167
2843.799	180.70833
2845.974	189.375
2848.147	193.04167
2850.319	204.375
2852.489	212.70833
2854.659	217.70833
2856.826	220.375
2858.993	240.04167
2861.158	211.70833
2863.321	222.04167
2865.483	236.04167
2867.644	226.70833
2869.804	221.04167
2871.962	223.70833
2874.118	235.04167
2876.274	248.04167
2878.428	244.70833
2880.58	233.375
2882.731	228.375
2884.881	232.04167
2887.03	236.04167
2889.177	237.70833
2891.322	236.70833
2893.467	221.375
2895.61	224.375
2897.751	237.375
2899.892	224.04167
2902.03	232.70833
2904.168	231.375
2906.304	234.04167
2908.439	251.70833
2910.572	225.04167
2912.704	237.375
2914.835	241.70833
2916.965	234.375
2919.093	253.04167
2921.219	224.04167
2923.345	245.70833
2925.469	227.70833
2927.591	225.04167
2929.712	214.04167
2931.832	226.04167
2933.951	221.375
2936.068	210.375
2938.184	213.375
2940.299	209.375
2942.412	194.04167
2944.524	180.375
2946.634	191.04167
2948.744	165.04167
2950.851	197.375
2952.958	166.375
2955.063	172.70833
2957.167	172.04167
2959.269	154.70833
2961.371	180.375
2963.471	152.70833
2965.569	166.70833
2967.666	147.04167
2969.762	144.375
2971.857	137.04167
2973.95	131.70833
2976.042	144.375
2978.133	134.70833
2980.222	135.375
2982.31	121.70833
2984.396	108.375
2986.482	113.04167
2988.566	116.375
2990.648	117.70833
2992.73	120.04167
2994.81	101.375
2996.889	115.375
2998.966	113.04167
3001.042	124.04167
3003.117	105.375
3005.191	114.70833
3007.263	123.375
3009.334	106.70833
3011.403	112.04167
3013.472	110.04167
3015.539	119.375
3017.604	127.70833
3019.669	99.70833
3021.732	101.375
3023.794	103.04167
3025.854	97.04167
3027.914	93.375
3029.971	94.70833
3032.028	97.04167
3034.083	106.375
3036.137	101.04167
3038.19	93.04167
3040.242	86.375
3042.292	86.70833
3044.341	89.375
3046.388	111.04167
3048.435	85.04167
3050.48	104.70833
3052.524	97.375
3054.566	73.375
3056.607	89.70833
3058.647	88.70833
3060.686	73.70833
3062.723	72.375
3064.759	74.375
3066.794	1.375
3068.828	0.04167
3070.86	3.04167
