-0.839	140.91667
3.438	155.25
7.711	64.91667
11.981	41.58333
16.247	31.58333
20.509	45.25
24.768	34.91667
29.024	46.58333
33.276	33.58333
37.524	41.25
41.769	28.91667
46.01	26.58333
50.247	46.91667
54.481	51.25
58.712	56.25
62.939	37.25
67.162	53.25
71.382	41.91667
75.599	40.58333
79.812	42.58333
84.021	63.25
88.227	41.25
92.429	53.25
96.628	36.91667
100.823	50.25
105.015	54.25
109.204	46.25
113.388	56.25
117.57	38.91667
121.748	61.58333
125.922	48.58333
130.093	61.58333
134.261	67.91667
138.425	51.91667
142.585	82.25
146.742	63.91667
150.896	72.58333
155.046	67.25
159.193	106.25
163.336	151.91667
167.476	250.91667
171.613	446.58333
175.746	726.91667
179.875	1033.91667
184.002	1330.25
188.124	1561.58333
192.244	1660.58333
196.36	1645.25
200.472	1621.25
204.581	1590.25
208.687	1550.25
212.79	1534.91667
216.889	1546.25
220.984	1582.91667
225.077	1572.58333
229.165	1581.25
233.251	1559.58333
237.333	1582.25
241.412	1557.91667
245.487	1568.25
249.559	1535.91667
253.628	1524.58333
257.694	1513.25
261.756	1503.58333
265.814	1496.25
269.87	1439.91667
273.922	1402.91667
277.97	1376.25
282.016	1366.91667
286.058	1368.58333
290.097	1386.58333
294.132	1393.91667
298.164	1406.25
302.193	1336.91667
306.219	1270.25
310.241	1188.25
314.26	1105.25
318.276	1050.58333
322.288	1037.58333
326.297	1001.25
330.303	973.58333
334.305	951.91667
338.305	949.58333
342.301	931.25
346.294	929.58333
350.283	919.91667
354.269	916.58333
358.252	910.58333
362.232	908.58333
366.209	910.91667
370.182	910.91667
374.152	899.58333
378.119	901.58333
382.083	890.25
386.043	914.58333
390	890.58333
393.954	917.25
397.905	899.25
401.852	912.58333
405.797	890.58333
409.738	893.58333
413.676	907.91667
417.61	918.91667
421.542	903.25
425.47	884.58333
429.396	877.58333
433.318	870.91667
437.236	881.25
441.152	918.25
445.065	856.91667
448.974	870.58333
452.88	860.91667
456.783	848.58333
460.683	850.91667
464.58	863.91667
468.473	867.91667
472.364	897.25
476.251	1244.25
480.135	868.25
484.016	873.58333
487.894	890.58333
491.769	882.25
495.641	893.58333
499.509	894.91667
503.375	874.58333
507.237	882.91667
511.096	886.58333
514.952	890.91667
518.805	908.58333
522.655	909.58333
526.502	888.25
530.346	900.58333
534.187	892.25
538.024	879.58333
541.859	877.58333
545.69	911.25
549.519	891.91667
553.344	905.91667
557.166	856.58333
560.985	877.91667
564.802	874.25
568.615	847.91667
572.425	849.58333
576.232	840.25
580.036	836.91667
583.836	843.91667
587.634	839.25
591.429	839.58333
595.221	858.91667
599.01	856.58333
602.796	860.58333
606.578	853.91667
610.358	868.91667
614.135	863.25
617.909	857.91667
621.679	846.25
625.447	841.25
629.212	838.25
632.973	847.25
636.732	838.25
640.488	850.91667
644.241	832.58333
647.991	835.91667
651.737	853.91667
655.481	826.25
659.222	823.25
662.96	829.58333
666.695	828.25
670.427	843.91667
674.156	844.91667
677.882	852.58333
681.605	840.58333
685.325	819.91667
689.043	856.58333
692.757	836.25
696.468	835.91667
700.177	829.58333
703.882	822.58333
707.585	814.25
711.284	817.91667
714.981	801.91667
718.675	804.91667
722.366	823.25
726.054	812.91667
729.739	817.91667
733.421	828.25
737.1	795.25
740.777	822.58333
744.45	815.91667
748.121	811.25
751.789	852.91667
755.453	827.58333
759.115	828.91667
762.774	832.58333
766.431	835.58333
770.084	849.91667
773.734	830.25
777.382	870.25
781.027	863.91667
784.669	848.25
788.308	854.58333
791.944	866.58333
795.577	867.58333
799.208	859.25
802.835	867.25
806.46	873.25
810.082	884.25
813.701	871.91667
817.317	892.58333
820.931	878.25
824.542	886.58333
828.149	877.58333
831.754	848.25
835.357	847.58333
838.956	869.58333
842.553	867.25
846.146	855.58333
849.737	839.25
853.326	850.91667
856.911	817.58333
860.493	864.25
864.073	849.91667
867.65	872.25
871.225	880.91667
874.796	859.58333
878.365	858.58333
881.931	865.25
885.494	875.58333
889.054	864.25
892.612	873.91667
896.166	848.91667
899.719	831.58333
903.268	810.91667
906.814	839.58333
910.358	820.58333
913.899	826.58333
917.438	819.91667
920.973	799.91667
924.506	799.91667
928.036	835.25
931.564	844.91667
935.088	854.58333
938.61	823.91667
942.129	832.91667
945.646	842.58333
949.16	854.58333
952.671	867.91667
956.179	889.91667
959.685	865.58333
963.188	881.91667
966.688	861.58333
970.185	830.25
973.68	820.91667
977.173	811.58333
980.662	808.25
984.149	810.25
987.633	791.91667
991.114	798.91667
994.593	811.91667
998.069	828.91667
1001.542	834.91667
1005.013	839.91667
1008.481	789.25
1011.947	789.91667
1015.409	773.25
1018.869	785.58333
1022.327	777.58333
1025.782	770.91667
1029.234	747.58333
1032.683	747.25
1036.13	729.25
1039.574	710.58333
1043.016	711.58333
1046.455	691.91667
1049.891	669.58333
1053.325	695.58333
1056.756	696.25
1060.184	685.91667
1063.61	672.91667
1067.033	693.25
1070.454	690.58333
1073.872	703.25
1077.287	679.58333
1080.7	684.58333
1084.11	681.25
1087.517	687.58333
1090.922	688.25
1094.325	660.91667
1097.724	663.91667
1101.122	664.58333
1104.516	664.91667
1107.908	659.58333
1111.298	665.58333
1114.684	668.58333
1118.069	675.25
1121.45	691.25
1124.83	674.91667
1128.206	695.25
1131.58	680.91667
1134.951	703.91667
1138.32	721.25
1141.687	742.58333
1145.05	743.58333
1148.412	750.58333
1151.77	740.91667
1155.126	746.91667
1158.48	744.91667
1161.831	742.58333
1165.18	735.25
1168.525	746.25
1171.869	763.25
1175.21	761.91667
1178.548	773.91667
1181.884	776.25
1185.217	781.25
1188.548	806.58333
1191.877	798.58333
1195.202	857.25
1198.526	870.58333
1201.846	858.25
1205.165	863.25
1208.48	866.25
1211.794	865.58333
1215.104	854.91667
1218.413	835.58333
1221.719	848.91667
1225.022	835.58333
1228.323	820.25
1231.621	824.25
1234.917	828.58333
1238.21	841.91667
1241.501	815.58333
1244.79	806.91667
1248.076	798.91667
1251.359	817.58333
1254.64	852.25
1257.919	831.58333
1261.195	850.91667
1264.468	858.25
1267.74	848.91667
1271.008	867.25
1274.275	850.91667
1277.538	856.91667
1280.8	860.91667
1284.059	837.91667
1287.315	863.25
1290.569	858.91667
1293.821	860.25
1297.07	872.58333
1300.317	874.58333
1303.562	881.91667
1306.803	877.91667
1310.043	860.58333
1313.28	862.25
1316.515	846.91667
1319.747	858.91667
1322.977	841.58333
1326.204	826.91667
1329.429	816.25
1332.652	827.25
1335.872	817.25
1339.09	804.58333
1342.306	817.91667
1345.519	800.58333
1348.729	792.58333
1351.938	800.25
1355.144	777.25
1358.347	788.91667
1361.548	798.25
1364.747	783.25
1367.944	764.58333
1371.138	778.58333
1374.329	772.25
1377.518	772.25
1380.705	775.91667
1383.89	782.58333
1387.072	748.25
1390.252	726.91667
1393.429	717.25
1396.605	700.58333
1399.777	675.25
1402.948	673.91667
1406.116	653.91667
1409.282	663.25
1412.445	658.58333
1415.606	674.58333
1418.765	679.91667
1421.921	685.91667
1425.075	687.25
1428.227	707.58333
1431.376	740.25
1434.524	759.91667
1437.668	772.25
1440.811	776.58333
1443.951	773.58333
1447.089	797.58333
1450.224	783.91667
1453.357	776.58333
1456.488	769.58333
1459.617	765.91667
1462.743	768.91667
1465.867	736.25
1468.989	728.25
1472.108	723.91667
1475.225	703.25
1478.34	702.25
1481.453	698.58333
1484.563	687.25
1487.671	709.91667
1490.776	703.58333
1493.88	708.91667
1496.981	732.25
1500.08	743.25
1503.176	734.25
1506.271	743.91667
1509.363	747.91667
1512.452	741.91667
1515.54	761.25
1518.625	764.25
1521.708	799.25
1524.789	826.25
1527.867	829.58333
1530.944	888.58333
1534.018	891.25
1537.089	930.91667
1540.159	957.25
1543.226	940.25
1546.291	924.91667
1549.354	900.91667
1552.415	897.91667
1555.473	890.58333
1558.529	867.58333
1561.583	875.25
1564.634	854.58333
1567.684	844.58333
1570.731	842.25
1573.776	856.25
1576.819	865.58333
1579.859	868.25
1582.898	882.58333
1585.934	898.58333
1588.968	885.25
1591.999	870.58333
1595.029	885.58333
1598.056	890.25
1601.081	921.91667
1604.104	900.58333
1607.125	878.25
1610.144	869.91667
1613.16	835.58333
1616.174	820.58333
1619.186	824.25
1622.196	793.58333
1625.203	773.91667
1628.209	765.91667
1631.212	761.25
1634.213	761.91667
1637.212	775.91667
1640.209	756.91667
1643.203	729.58333
1646.196	717.58333
1649.186	697.25
1652.174	683.25
1655.16	654.91667
1658.144	652.91667
1661.125	619.25
1664.105	603.58333
1667.082	590.91667
1670.057	548.58333
1673.03	527.91667
1676.001	511.91667
1678.97	468.25
1681.937	461.91667
1684.901	431.25
1687.863	423.58333
1690.824	403.25
1693.782	416.25
1696.738	373.25
1699.692	381.58333
1702.643	371.58333
1705.593	366.91667
1708.54	357.25
1711.486	368.25
1714.429	340.91667
1717.37	364.58333
1720.309	355.91667
1723.246	356.58333
1726.181	331.25
1729.113	334.58333
1732.044	344.91667
1734.972	335.58333
1737.899	352.91667
1740.823	349.58333
1743.745	373.91667
1746.665	324.91667
1749.583	325.91667
1752.499	321.58333
1755.413	326.25
1758.325	312.58333
1761.235	319.25
1764.142	306.58333
1767.048	304.25
1769.951	299.91667
1772.852	296.91667
1775.752	309.58333
1778.649	315.58333
1781.544	320.25
1784.437	290.91667
1787.328	304.25
1790.217	304.91667
1793.104	277.58333
1795.989	284.58333
1798.872	279.25
1801.753	299.58333
1804.631	281.91667
1807.508	290.91667
1810.383	282.91667
1813.255	287.58333
1816.126	286.25
1818.994	279.25
1821.861	277.58333
1824.725	291.91667
1827.587	284.91667
1830.448	280.91667
1833.306	268.58333
1836.162	285.25
1839.017	279.58333
1841.869	277.25
1844.719	271.25
1847.567	264.58333
1850.414	259.58333
1853.258	257.58333
1856.1	278.58333
1858.94	274.91667
1861.778	274.91667
1864.614	255.25
1867.448	269.91667
1870.28	250.58333
1873.111	276.91667
1875.939	265.25
1878.765	274.91667
1881.589	263.25
1884.411	267.91667
1887.231	270.58333
1890.049	262.91667
1892.865	269.25
1895.68	263.58333
1898.492	266.25
1901.302	260.58333
1904.11	254.91667
1906.916	254.58333
1909.721	257.58333
1912.523	261.58333
1915.323	247.91667
1918.122	247.58333
1920.918	265.91667
1923.712	251.91667
1926.505	253.91667
1929.295	239.91667
1932.084	254.58333
1934.87	253.25
1937.655	252.58333
1940.438	240.25
1943.218	245.91667
1945.997	245.58333
1948.774	251.58333
1951.549	255.58333
1954.322	241.58333
1957.093	246.25
1959.862	245.91667
1962.629	238.25
1965.394	240.58333
1968.157	232.91667
1970.918	251.58333
1973.678	232.91667
1976.435	245.91667
1979.19	234.91667
1981.944	219.58333
1984.696	237.25
1987.445	225.25
1990.193	232.58333
1992.939	239.25
1995.683	233.91667
1998.425	212.91667
2001.165	250.91667
2003.903	221.25
2006.639	224.25
2009.374	234.91667
2012.106	234.91667
2014.837	217.91667
2017.566	232.91667
2020.292	232.91667
2023.017	222.58333
2025.74	220.58333
2028.461	212.25
2031.18	227.58333
2033.898	209.25
2036.613	221.91667
2039.327	224.91667
2042.038	216.58333
2044.748	219.25
2047.456	229.25
2050.162	209.25
2052.866	212.58333
2055.568	224.25
2058.268	210.25
2060.967	225.91667
2063.663	207.58333
2066.358	212.91667
2069.051	199.58333
2071.742	208.58333
2074.431	220.91667
2077.118	207.91667
2079.804	200.91667
2082.487	207.91667
2085.169	224.58333
2087.849	234.58333
2090.527	203.91667
2093.203	210.91667
2095.877	211.91667
2098.55	214.25
2101.22	215.58333
2103.889	224.91667
2106.556	208.25
2109.221	231.25
2111.884	216.91667
2114.546	235.91667
2117.205	238.58333
2119.863	260.58333
2122.519	257.91667
2125.173	273.91667
2127.825	299.58333
2130.475	298.91667
2133.124	283.91667
2135.771	277.91667
2138.416	285.58333
2141.059	258.25
2143.7	263.25
2146.339	240.58333
2148.977	213.58333
2151.613	228.58333
2154.247	231.91667
2156.879	222.25
2159.51	214.58333
2162.138	203.25
2164.765	206.58333
2167.39	200.58333
2170.013	216.91667
2172.634	217.25
2175.254	201.91667
2177.872	237.25
2180.488	191.25
2183.102	199.25
2185.714	198.91667
2188.325	185.58333
2190.934	201.58333
2193.541	204.91667
2196.146	199.91667
2198.75	184.25
2201.351	180.25
2203.951	171.91667
2206.549	196.25
2209.146	184.91667
2211.74	182.25
2214.333	192.58333
2216.924	177.91667
2219.514	187.58333
2222.101	180.58333
2224.687	194.25
2227.271	168.58333
2229.853	180.58333
2232.433	165.25
2235.012	187.91667
2237.589	179.58333
2240.164	198.91667
2242.738	171.25
2245.309	170.25
2247.879	189.58333
2250.448	185.91667
2253.014	169.58333
2255.579	159.58333
2258.142	168.58333
2260.703	166.58333
2263.262	162.25
2265.82	161.91667
2268.376	177.91667
2270.93	169.25
2273.483	159.25
2276.033	178.25
2278.583	164.91667
2281.13	161.25
2283.675	156.58333
2286.219	166.25
2288.761	165.25
2291.302	176.58333
2293.841	179.58333
2296.377	156.91667
2298.913	167.25
2301.446	175.25
2303.978	161.91667
2306.508	162.25
2309.037	167.91667
2311.563	162.91667
2314.088	166.91667
2316.612	148.25
2319.133	160.58333
2321.653	165.58333
2324.171	160.58333
2326.688	168.25
2329.202	163.58333
2331.715	166.58333
2334.227	158.58333
2336.736	156.91667
2339.244	150.91667
2341.751	147.91667
2344.255	157.58333
2346.758	158.58333
2349.259	156.25
2351.759	164.25
2354.257	144.91667
2356.753	146.91667
2359.247	152.25
2361.74	151.91667
2364.231	149.58333
2366.721	166.25
2369.209	149.58333
2371.695	148.91667
2374.179	147.58333
2376.662	136.25
2379.143	160.91667
2381.622	148.58333
2384.1	153.91667
2386.576	145.58333
2389.051	164.58333
2391.524	158.91667
2393.995	159.58333
2396.464	147.25
2398.932	149.58333
2401.398	150.58333
2403.863	142.25
2406.325	147.25
2408.787	152.58333
2411.246	151.58333
2413.704	146.58333
2416.16	149.58333
2418.615	144.25
2421.068	148.91667
2423.519	148.25
2425.969	138.58333
2428.417	158.25
2430.863	172.25
2433.308	160.25
2435.751	151.25
2438.193	145.25
2440.633	154.25
2443.071	156.91667
2445.508	140.58333
2447.943	146.91667
2450.376	142.25
2452.808	154.58333
2455.238	140.25
2457.667	164.91667
2460.093	141.58333
2462.519	141.25
2464.942	134.91667
2467.365	143.91667
2469.785	147.25
2472.204	142.58333
2474.621	139.25
2477.037	158.25
2479.451	129.91667
2481.863	130.25
2484.274	137.25
2486.683	144.91667
2489.091	151.91667
2491.497	150.58333
2493.901	147.25
2496.304	138.58333
2498.705	151.91667
2501.105	147.25
2503.503	165.58333
2505.899	137.91667
2508.294	160.25
2510.687	141.58333
2513.079	144.25
2515.469	135.58333
2517.858	141.25
2520.245	153.91667
2522.63	144.25
2525.014	138.25
2527.396	138.58333
2529.776	138.91667
2532.156	141.58333
2534.533	136.91667
2536.909	131.91667
2539.283	121.25
2541.656	134.25
2544.027	152.25
2546.397	144.58333
2548.765	130.58333
2551.131	135.91667
2553.496	138.91667
2555.86	142.25
2558.221	142.91667
2560.582	138.25
2562.94	128.91667
2565.298	145.25
2567.653	153.58333
2570.007	131.58333
2572.36	147.25
2574.711	136.58333
2577.06	151.91667
2579.408	141.25
2581.754	134.25
2584.099	134.25
2586.442	132.58333
2588.784	142.91667
2591.124	139.25
2593.463	138.91667
2595.8	140.91667
2598.135	132.91667
2600.469	131.25
2602.802	142.58333
2605.133	145.91667
2607.462	132.58333
2609.79	129.58333
2612.116	138.25
2614.441	141.25
2616.764	140.25
2619.086	135.91667
2621.406	137.58333
2623.725	147.91667
2626.042	141.58333
2628.358	127.25
2630.672	141.91667
2632.985	142.58333
2635.296	138.91667
2637.606	137.25
2639.914	137.25
2642.22	136.25
2644.525	142.91667
2646.829	141.58333
2649.131	148.91667
2651.432	147.91667
2653.731	139.58333
2656.028	151.58333
2658.324	141.91667
2660.619	134.58333
2662.912	150.91667
2665.204	134.25
2667.494	144.91667
2669.782	129.25
2672.07	148.91667
2674.355	151.58333
2676.639	148.25
2678.922	130.91667
2681.203	143.91667
2683.483	137.25
2685.761	133.25
2688.038	151.25
2690.313	150.25
2692.587	147.91667
2694.859	135.58333
2697.13	141.25
2699.399	144.25
2701.667	151.91667
2703.933	142.58333
2706.198	150.25
2708.461	149.58333
2710.723	150.91667
2712.984	146.91667
2715.243	155.25
2717.5	144.25
2719.757	159.58333
2722.011	143.58333
2724.264	158.25
2726.516	158.25
2728.766	140.58333
2731.015	151.58333
2733.262	150.58333
2735.508	147.91667
2737.753	151.58333
2739.996	139.25
2742.237	140.91667
2744.477	155.25
2746.716	156.91667
2748.953	157.91667
2751.189	161.58333
2753.423	147.91667
2755.656	146.58333
2757.887	132.25
2760.117	145.58333
2762.346	142.25
2764.573	128.91667
2766.798	143.58333
2769.022	144.58333
2771.245	134.25
2773.467	141.58333
2775.686	141.25
2777.905	153.58333
2780.122	144.25
2782.337	147.91667
2784.552	142.58333
2786.764	139.58333
2788.976	139.58333
2791.186	148.25
2793.394	150.25
2795.601	157.25
2797.807	155.25
2800.011	151.91667
2802.214	167.58333
2804.415	153.25
2806.615	151.25
2808.814	156.91667
2811.011	161.25
2813.206	161.58333
2815.401	171.91667
2817.594	165.58333
2819.785	168.91667
2821.975	156.58333
2824.164	162.25
2826.351	155.91667
2828.537	178.25
2830.722	172.25
2832.905	169.25
2835.086	170.58333
2837.267	189.91667
2839.445	188.25
2841.623	190.91667
2843.799	188.58333
2845.974	195.25
2848.147	196.58333
2850.319	206.91667
2852.489	213.25
2854.659	216.58333
2856.826	212.25
2858.993	229.91667
2861.158	208.58333
2863.321	211.58333
2865.483	239.25
2867.644	228.91667
2869.804	227.25
2871.962	220.91667
2874.118	226.58333
2876.274	228.58333
2878.428	221.91667
2880.58	232.91667
2882.731	220.58333
2884.881	222.25
2887.03	231.58333
2889.177	225.58333
2891.322	234.58333
2893.467	224.58333
2895.61	222.58333
2897.751	237.25
2899.892	226.25
2902.03	230.25
2904.168	231.25
2906.304	226.25
2908.439	246.58333
2910.572	230.91667
2912.704	238.25
2914.835	239.58333
2916.965	238.25
2919.093	248.25
2921.219	224.25
2923.345	252.58333
2925.469	239.25
2927.591	226.25
2929.712	222.25
2931.832	230.58333
2933.951	227.25
2936.068	221.58333
2938.184	216.58333
2940.299	209.58333
2942.412	216.91667
2944.524	196.91667
2946.634	199.91667
2948.744	178.91667
2950.851	216.58333
2952.958	190.91667
2955.063	193.25
2957.167	192.58333
2959.269	179.25
2961.371	208.58333
2963.471	182.91667
2965.569	195.25
2967.666	168.91667
2969.762	167.91667
2971.857	168.25
2973.95	163.58333
2976.042	172.25
2978.133	166.25
2980.222	161.58333
2982.31	153.91667
2984.396	143.58333
2986.482	146.58333
2988.566	152.91667
2990.648	156.91667
2992.73	156.25
2994.81	138.91667
2996.889	151.58333
2998.966	148.58333
3001.042	160.91667
3003.117	145.91667
3005.191	152.91667
3007.263	157.91667
3009.334	148.91667
3011.403	149.58333
3013.472	146.58333
3015.539	160.91667
3017.604	165.91667
3019.669	133.58333
3021.732	145.25
3023.794	142.91667
3025.854	138.25
3027.914	130.58333
3029.971	135.91667
3032.028	134.91667
3034.083	147.91667
3036.137	137.91667
3038.19	130.25
3040.242	122.91667
3042.292	120.58333
3044.341	130.58333
3046.388	146.91667
3048.435	121.25
3050.48	141.25
3052.524	129.91667
3054.566	109.58333
3056.607	129.58333
3058.647	129.25
3060.686	108.91667
3062.723	107.25
3064.759	109.58333
3066.794	1.58333
3068.828	-0.75
3070.86	1.25
