-0.839	140.16667
3.438	153.83333
7.711	59.5
11.981	42.83333
16.247	30.83333
20.509	34.83333
24.768	34.5
29.024	44.16667
33.276	31.16667
37.524	39.83333
41.769	25.16667
46.01	24.16667
50.247	40.16667
54.481	51.16667
58.712	53.16667
62.939	35.5
67.162	52.83333
71.382	46.16667
75.599	37.5
79.812	40.5
84.021	63.16667
88.227	43.83333
92.429	50.16667
96.628	38.16667
100.823	52.16667
105.015	54.83333
109.204	46.16667
113.388	51.83333
117.57	44.83333
121.748	60.16667
125.922	48.5
130.093	59.83333
134.261	64.5
138.425	51.83333
142.585	80.5
146.742	63.16667
150.896	79.83333
155.046	74.16667
159.193	110.5
163.336	156.83333
167.476	277.5
171.613	500.5
175.746	801.16667
179.875	1158.16667
184.002	1486.16667
188.124	1761.83333
192.244	1865.5
196.36	1888.5
200.472	1859.83333
204.581	1832.83333
208.687	1790.83333
212.79	1790.5
216.889	1813.5
220.984	1842.16667
225.077	1834.5
229.165	1851.16667
233.251	1836.83333
237.333	1836.83333
241.412	1839.83333
245.487	1825.5
249.559	1805.83333
253.628	1806.5
257.694	1788.5
261.756	1806.83333
265.814	1751.83333
269.87	1693.16667
273.922	1645.5
277.97	1633.5
282.016	1628.83333
286.058	1612.16667
290.097	1631.5
294.132	1663.83333
298.164	1646.83333
302.193	1607.16667
306.219	1507.83333
310.241	1426.16667
314.26	1330.5
318.276	1273.16667
322.288	1254.83333
326.297	1216.83333
330.303	1191.83333
334.305	1170.16667
338.305	1161.16667
342.301	1160.5
346.294	1153.83333
350.283	1147.5
354.269	1129.83333
358.252	1126.16667
362.232	1136.83333
366.209	1134.5
370.182	1127.5
374.152	1099.83333
378.119	1120.83333
382.083	1122.83333
386.043	1147.83333
390	1122.5
393.954	1128.83333
397.905	1137.16667
401.852	1155.16667
405.797	1125.83333
409.738	1133.16667
413.676	1161.5
417.61	1183.83333
421.542	1148.16667
425.47	1110.83333
429.396	1105.83333
433.318	1080.16667
437.236	1109.83333
441.152	1128.83333
445.065	1089.16667
448.974	1097.5
452.88	1081.5
456.783	1078.5
460.683	1068.5
464.58	1078.5
468.473	1093.5
472.364	1080.5
476.251	1080.5
480.135	1097.5
484.016	1112.5
487.894	1110.16667
491.769	1110.16667
495.641	1112.83333
499.509	1122.5
503.375	1102.5
507.237	1116.16667
511.096	1098.83333
514.952	1103.5
518.805	1106.83333
522.655	1111.16667
526.502	1100.5
530.346	1110.5
534.187	1112.83333
538.024	1100.5
541.859	1105.16667
545.69	1124.5
549.519	1117.16667
553.344	1105.83333
557.166	1085.83333
560.985	1082.16667
564.802	1095.83333
568.615	1078.16667
572.425	1063.16667
576.232	1043.83333
580.036	1044.83333
583.836	1061.5
587.634	1061.16667
591.429	1052.83333
595.221	1103.5
599.01	1082.16667
602.796	1081.5
606.578	1083.83333
610.358	1083.83333
614.135	1080.83333
617.909	1086.16667
621.679	1086.5
625.447	1071.5
629.212	1075.16667
632.973	1065.83333
636.732	1060.5
640.488	1078.83333
644.241	1045.5
647.991	1057.83333
651.737	1079.16667
655.481	1058.83333
659.222	1043.16667
662.96	1049.83333
666.695	1057.16667
670.427	1063.16667
674.156	1062.16667
677.882	1066.16667
681.605	1051.16667
685.325	1046.16667
689.043	1063.5
692.757	1046.83333
696.468	1050.5
700.177	1057.16667
703.882	1026.83333
707.585	1032.5
711.284	1029.16667
714.981	1009.16667
718.675	1016.16667
722.366	1023.5
726.054	1026.83333
729.739	1021.83333
733.421	1014.83333
737.1	1013.83333
740.777	1033.83333
744.45	1007.5
748.121	1019.83333
751.789	1045.16667
755.453	1038.83333
759.115	1040.83333
762.774	1036.5
766.431	1036.83333
770.084	1041.16667
773.734	1029.16667
777.382	1046.83333
781.027	1062.5
784.669	1058.83333
788.308	1048.16667
791.944	1063.5
795.577	1076.5
799.208	1069.5
802.835	1060.16667
806.46	1084.5
810.082	1068.83333
813.701	1081.5
817.317	1076.16667
820.931	1068.83333
824.542	1089.5
828.149	1064.5
831.754	1058.16667
835.357	1053.83333
838.956	1062.5
842.553	1078.16667
846.146	1050.83333
849.737	1025.16667
853.326	1031.16667
856.911	1009.5
860.493	1033.83333
864.073	1046.5
867.65	1073.5
871.225	1091.5
874.796	1060.16667
878.365	1035.5
881.931	1062.5
885.494	1069.5
889.054	1047.83333
892.612	1056.5
896.166	1037.83333
899.719	1016.5
903.268	1009.83333
906.814	1005.5
910.358	1005.83333
913.899	984.83333
917.438	998.5
920.973	976.83333
924.506	1003.16667
928.036	1010.83333
931.564	1020.5
935.088	1043.5
938.61	1018.83333
942.129	1011.16667
945.646	1028.5
949.16	1033.83333
952.671	1056.16667
956.179	1069.16667
959.685	1049.83333
963.188	1058.5
966.688	1048.5
970.185	1035.83333
973.68	972.5
977.173	995.83333
980.662	970.83333
984.149	979.83333
987.633	957.83333
991.114	972.16667
994.593	986.83333
998.069	1006.5
1001.542	1029.83333
1005.013	1019.5
1008.481	968.16667
1011.947	945.83333
1015.409	941.5
1018.869	950.83333
1022.327	940.83333
1025.782	926.16667
1029.234	917.5
1032.683	906.5
1036.13	903.16667
1039.574	864.16667
1043.016	839.5
1046.455	848.5
1049.891	826.16667
1053.325	844.5
1056.756	839.16667
1060.184	839.5
1063.61	807.83333
1067.033	838.16667
1070.454	834.5
1073.872	858.83333
1077.287	829.16667
1080.7	829.16667
1084.11	843.83333
1087.517	837.83333
1090.922	827.83333
1094.325	808.83333
1097.724	806.83333
1101.122	796.16667
1104.516	798.83333
1107.908	782.16667
1111.298	789.83333
1114.684	805.83333
1118.069	814.16667
1121.45	828.16667
1124.83	804.16667
1128.206	812.16667
1131.58	828.5
1134.951	849.5
1138.32	854.5
1141.687	887.83333
1145.05	888.16667
1148.412	889.83333
1151.77	896.5
1155.126	889.83333
1158.48	877.83333
1161.831	884.16667
1165.18	877.5
1168.525	894.83333
1171.869	907.16667
1175.21	904.5
1178.548	900.5
1181.884	928.16667
1185.217	922.5
1188.548	941.16667
1191.877	956.16667
1195.202	1002.16667
1198.526	1018.5
1201.846	1003.16667
1205.165	1009.83333
1208.48	1015.83333
1211.794	1025.5
1215.104	1005.16667
1218.413	999.5
1221.719	1001.16667
1225.022	982.5
1228.323	969.5
1231.621	984.83333
1234.917	970.83333
1238.21	985.83333
1241.501	963.16667
1244.79	943.83333
1248.076	942.16667
1251.359	954.5
1254.64	994.83333
1257.919	985.16667
1261.195	983.5
1264.468	1006.16667
1267.74	1019.83333
1271.008	1013.83333
1274.275	1006.83333
1277.538	1017.16667
1280.8	1000.16667
1284.059	1006.5
1287.315	994.83333
1290.569	1001.83333
1293.821	1014.5
1297.07	1026.16667
1300.317	1014.16667
1303.562	1023.5
1306.803	1001.5
1310.043	1012.83333
1313.28	996.5
1316.515	1003.83333
1319.747	1006.5
1322.977	1008.83333
1326.204	983.16667
1329.429	968.83333
1332.652	970.5
1335.872	974.83333
1339.09	958.16667
1342.306	959.83333
1345.519	962.83333
1348.729	948.5
1351.938	943.83333
1355.144	927.83333
1358.347	922.83333
1361.548	936.16667
1364.747	934.83333
1367.944	903.16667
1371.138	905.16667
1374.329	894.83333
1377.518	914.83333
1380.705	924.83333
1383.89	918.16667
1387.072	875.16667
1390.252	856.16667
1393.429	840.83333
1396.605	816.83333
1399.777	791.83333
1402.948	802.83333
1406.116	766.83333
1409.282	783.5
1412.445	781.5
1415.606	787.16667
1418.765	799.16667
1421.921	805.83333
1425.075	798.16667
1428.227	827.16667
1431.376	858.83333
1434.524	885.5
1437.668	900.83333
1440.811	904.16667
1443.951	909.16667
1447.089	915.5
1450.224	913.83333
1453.357	904.5
1456.488	902.5
1459.617	894.83333
1462.743	886.16667
1465.867	850.16667
1468.989	851.16667
1472.108	847.83333
1475.225	829.83333
1478.34	813.5
1481.453	812.83333
1484.563	811.5
1487.671	821.83333
1490.776	826.5
1493.88	841.5
1496.981	856.83333
1500.08	847.5
1503.176	852.5
1506.271	860.5
1509.363	889.83333
1512.452	882.16667
1515.54	887.83333
1518.625	898.83333
1521.708	934.83333
1524.789	951.83333
1527.867	966.16667
1530.944	1007.5
1534.018	1030.16667
1537.089	1080.16667
1540.159	1089.16667
1543.226	1089.83333
1546.291	1069.83333
1549.354	1037.5
1552.415	1033.16667
1555.473	1019.5
1558.529	1004.16667
1561.583	981.5
1564.634	984.83333
1567.684	980.83333
1570.731	971.83333
1573.776	986.5
1576.819	1000.83333
1579.859	1006.16667
1582.898	1009.5
1585.934	1021.16667
1588.968	1033.16667
1591.999	1014.83333
1595.029	1007.16667
1598.056	1014.83333
1601.081	1062.83333
1604.104	1038.83333
1607.125	1037.83333
1610.144	1015.83333
1613.16	991.5
1616.174	964.5
1619.186	940.5
1622.196	923.16667
1625.203	900.83333
1628.209	913.16667
1631.212	888.83333
1634.213	890.83333
1637.212	904.83333
1640.209	905.16667
1643.203	858.83333
1646.196	850.16667
1649.186	813.83333
1652.174	809.16667
1655.16	759.5
1658.144	765.16667
1661.125	731.16667
1664.105	706.5
1667.082	685.5
1670.057	646.83333
1673.03	610.16667
1676.001	597.5
1678.97	549.16667
1681.937	531.16667
1684.901	509.16667
1687.863	503.16667
1690.824	476.5
1693.782	481.16667
1696.738	454.5
1699.692	449.83333
1702.643	434.16667
1705.593	437.83333
1708.54	436.16667
1711.486	438.83333
1714.429	413.83333
1717.37	428.5
1720.309	408.5
1723.246	423.16667
1726.181	407.5
1729.113	405.16667
1732.044	415.83333
1734.972	399.5
1737.899	410.5
1740.823	410.16667
1743.745	421.16667
1746.665	383.5
1749.583	389.5
1752.499	382.16667
1755.413	382.5
1758.325	367.16667
1761.235	380.83333
1764.142	362.83333
1767.048	361.83333
1769.951	355.5
1772.852	356.5
1775.752	377.16667
1778.649	386.16667
1781.544	377.5
1784.437	351.5
1787.328	361.5
1790.217	355.16667
1793.104	330.83333
1795.989	334.83333
1798.872	334.16667
1801.753	351.16667
1804.631	342.16667
1807.508	348.5
1810.383	343.16667
1813.255	341.5
1816.126	337.83333
1818.994	336.5
1821.861	329.5
1824.725	336.16667
1827.587	338.16667
1830.448	338.83333
1833.306	321.16667
1836.162	333.16667
1839.017	318.83333
1841.869	323.16667
1844.719	335.16667
1847.567	308.16667
1850.414	306.16667
1853.258	307.83333
1856.1	322.16667
1858.94	325.16667
1861.778	315.5
1864.614	308.83333
1867.448	315.16667
1870.28	297.5
1873.111	327.83333
1875.939	309.83333
1878.765	322.5
1881.589	307.16667
1884.411	315.5
1887.231	320.83333
1890.049	308.5
1892.865	315.5
1895.68	302.16667
1898.492	305.5
1901.302	304.5
1904.11	301.16667
1906.916	298.83333
1909.721	303.5
1912.523	315.16667
1915.323	290.83333
1918.122	281.5
1920.918	301.16667
1923.712	289.83333
1926.505	295.83333
1929.295	278.5
1932.084	303.83333
1934.87	296.5
1937.655	287.5
1940.438	276.83333
1943.218	282.5
1945.997	287.5
1948.774	290.16667
1951.549	296.5
1954.322	279.5
1957.093	276.5
1959.862	282.5
1962.629	276.5
1965.394	282.83333
1968.157	272.5
1970.918	289.16667
1973.678	269.16667
1976.435	282.83333
1979.19	273.83333
1981.944	269.5
1984.696	269.5
1987.445	264.5
1990.193	276.16667
1992.939	282.5
1995.683	274.83333
1998.425	259.83333
2001.165	287.83333
2003.903	259.16667
2006.639	269.16667
2009.374	275.83333
2012.106	259.83333
2014.837	244.83333
2017.566	274.16667
2020.292	261.16667
2023.017	258.5
2025.74	258.5
2028.461	252.83333
2031.18	255.5
2033.898	252.5
2036.613	255.83333
2039.327	264.83333
2042.038	251.16667
2044.748	250.16667
2047.456	257.5
2050.162	246.16667
2052.866	254.83333
2055.568	268.16667
2058.268	248.83333
2060.967	254.16667
2063.663	240.5
2066.358	242.5
2069.051	243.5
2071.742	255.16667
2074.431	255.83333
2077.118	241.16667
2079.804	235.83333
2082.487	248.83333
2085.169	258.16667
2087.849	269.16667
2090.527	235.5
2093.203	243.5
2095.877	244.83333
2098.55	245.16667
2101.22	249.83333
2103.889	250.83333
2106.556	238.16667
2109.221	256.16667
2111.884	245.83333
2114.546	268.16667
2117.205	272.83333
2119.863	293.83333
2122.519	286.16667
2125.173	317.83333
2127.825	342.16667
2130.475	350.83333
2133.124	321.83333
2135.771	320.5
2138.416	322.16667
2141.059	288.83333
2143.7	294.5
2146.339	269.5
2148.977	249.16667
2151.613	272.16667
2154.247	252.5
2156.879	247.83333
2159.51	235.83333
2162.138	243.83333
2164.765	234.5
2167.39	228.5
2170.013	245.5
2172.634	238.5
2175.254	229.16667
2177.872	267.5
2180.488	217.5
2183.102	219.83333
2185.714	222.5
2188.325	215.83333
2190.934	224.16667
2193.541	234.83333
2196.146	220.83333
2198.75	209.5
2201.351	214.5
2203.951	200.16667
2206.549	220.83333
2209.146	206.83333
2211.74	201.5
2214.333	203.5
2216.924	198.16667
2219.514	203.16667
2222.101	196.83333
2224.687	213.5
2227.271	192.16667
2229.853	196.83333
2232.433	185.5
2235.012	208.16667
2237.589	198.5
2240.164	212.5
2242.738	195.5
2245.309	181.5
2247.879	210.83333
2250.448	202.83333
2253.014	183.16667
2255.579	180.83333
2258.142	186.5
2260.703	190.16667
2263.262	183.5
2265.82	173.16667
2268.376	200.16667
2270.93	185.16667
2273.483	175.83333
2276.033	188.5
2278.583	177.83333
2281.13	181.83333
2283.675	170.83333
2286.219	175.83333
2288.761	179.83333
2291.302	189.83333
2293.841	191.16667
2296.377	180.16667
2298.913	184.5
2301.446	189.5
2303.978	179.5
2306.508	174.16667
2309.037	178.83333
2311.563	180.16667
2314.088	182.5
2316.612	167.83333
2319.133	176.16667
2321.653	180.5
2324.171	167.83333
2326.688	181.83333
2329.202	175.5
2331.715	170.5
2334.227	175.16667
2336.736	172.16667
2339.244	168.83333
2341.751	163.5
2344.255	178.16667
2346.758	175.16667
2349.259	162.5
2351.759	170.5
2354.257	163.5
2356.753	156.83333
2359.247	164.83333
2361.74	164.83333
2364.231	165.83333
2366.721	179.83333
2369.209	163.5
2371.695	162.5
2374.179	159.5
2376.662	149.16667
2379.143	173.5
2381.622	159.5
2384.1	167.83333
2386.576	164.16667
2389.051	170.16667
2391.524	166.5
2393.995	167.5
2396.464	157.83333
2398.932	156.16667
2401.398	158.83333
2403.863	152.5
2406.325	151.16667
2408.787	155.5
2411.246	156.5
2413.704	149.16667
2416.16	152.83333
2418.615	149.16667
2421.068	156.5
2423.519	152.83333
2425.969	145.83333
2428.417	164.5
2430.863	174.16667
2433.308	156.5
2435.751	154.16667
2438.193	157.5
2440.633	155.5
2443.071	158.83333
2445.508	142.83333
2447.943	150.83333
2450.376	150.83333
2452.808	153.83333
2455.238	141.16667
2457.667	174.16667
2460.093	142.83333
2462.519	137.16667
2464.942	142.83333
2467.365	154.83333
2469.785	157.16667
2472.204	138.5
2474.621	143.16667
2477.037	161.5
2479.451	135.16667
2481.863	132.16667
2484.274	135.5
2486.683	142.5
2489.091	155.16667
2491.497	145.83333
2493.901	145.83333
2496.304	145.5
2498.705	156.83333
2501.105	147.16667
2503.503	161.5
2505.899	137.16667
2508.294	156.83333
2510.687	138.83333
2513.079	143.83333
2515.469	131.83333
2517.858	132.83333
2520.245	152.5
2522.63	135.16667
2525.014	137.83333
2527.396	133.83333
2529.776	133.5
2532.156	144.16667
2534.533	130.5
2536.909	130.16667
2539.283	123.83333
2541.656	135.5
2544.027	154.5
2546.397	137.16667
2548.765	133.5
2551.131	130.83333
2553.496	139.83333
2555.86	140.5
2558.221	140.5
2560.582	137.83333
2562.94	123.83333
2565.298	132.83333
2567.653	147.5
2570.007	121.16667
2572.36	140.16667
2574.711	124.16667
2577.06	146.16667
2579.408	132.83333
2581.754	127.83333
2584.099	126.83333
2586.442	127.5
2588.784	141.5
2591.124	129.5
2593.463	133.83333
2595.8	134.16667
2598.135	120.83333
2600.469	126.16667
2602.802	137.83333
2605.133	139.5
2607.462	125.83333
2609.79	114.5
2612.116	134.16667
2614.441	128.16667
2616.764	130.83333
2619.086	135.16667
2621.406	128.16667
2623.725	136.83333
2626.042	126.83333
2628.358	118.83333
2630.672	133.83333
2632.985	136.16667
2635.296	130.16667
2637.606	127.5
2639.914	126.16667
2642.22	125.16667
2644.525	126.16667
2646.829	130.5
2649.131	137.83333
2651.432	130.5
2653.731	120.83333
2656.028	142.5
2658.324	131.16667
2660.619	118.83333
2662.912	134.83333
2665.204	118.5
2667.494	130.16667
2669.782	120.16667
2672.07	136.5
2674.355	137.83333
2676.639	131.16667
2678.922	123.16667
2681.203	132.16667
2683.483	123.16667
2685.761	112.5
2688.038	129.5
2690.313	139.83333
2692.587	129.16667
2694.859	123.16667
2697.13	123.83333
2699.399	133.83333
2701.667	134.16667
2703.933	127.5
2706.198	138.5
2708.461	137.5
2710.723	139.83333
2712.984	133.16667
2715.243	140.16667
2717.5	130.5
2719.757	139.5
2722.011	124.83333
2724.264	145.16667
2726.516	149.16667
2728.766	128.16667
2731.015	133.83333
2733.262	133.83333
2735.508	126.16667
2737.753	137.16667
2739.996	118.83333
2742.237	123.83333
2744.477	141.5
2746.716	146.16667
2748.953	138.5
2751.189	141.83333
2753.423	136.83333
2755.656	123.83333
2757.887	116.83333
2760.117	120.83333
2762.346	121.5
2764.573	114.16667
2766.798	119.5
2769.022	127.5
2771.245	119.5
2773.467	127.5
2775.686	122.83333
2777.905	131.5
2780.122	128.16667
2782.337	127.16667
2784.552	121.83333
2786.764	121.83333
2788.976	115.83333
2791.186	125.5
2793.394	127.83333
2795.601	131.16667
2797.807	134.16667
2800.011	130.16667
2802.214	141.16667
2804.415	134.16667
2806.615	132.16667
2808.814	135.5
2811.011	137.83333
2813.206	146.83333
2815.401	146.5
2817.594	144.16667
2819.785	151.16667
2821.975	135.5
2824.164	138.83333
2826.351	144.83333
2828.537	156.5
2830.722	152.5
2832.905	142.5
2835.086	154.16667
2837.267	176.16667
2839.445	170.5
2841.623	165.83333
2843.799	170.5
2845.974	175.16667
2848.147	175.83333
2850.319	191.5
2852.489	197.16667
2854.659	195.83333
2856.826	202.5
2858.993	212.5
2861.158	188.5
2863.321	202.5
2865.483	216.5
2867.644	214.16667
2869.804	209.83333
2871.962	201.5
2874.118	216.16667
2876.274	219.83333
2878.428	214.16667
2880.58	220.16667
2882.731	199.83333
2884.881	208.5
2887.03	210.5
2889.177	209.16667
2891.322	216.16667
2893.467	204.16667
2895.61	206.83333
2897.751	215.83333
2899.892	208.5
2902.03	214.83333
2904.168	203.5
2906.304	212.5
2908.439	236.83333
2910.572	204.5
2912.704	219.83333
2914.835	215.83333
2916.965	217.83333
2919.093	229.83333
2921.219	203.5
2923.345	230.5
2925.469	210.16667
2927.591	205.16667
2929.712	194.16667
2931.832	208.5
2933.951	202.5
2936.068	198.5
2938.184	192.5
2940.299	189.16667
2942.412	186.83333
2944.524	173.16667
2946.634	179.16667
2948.744	158.83333
2950.851	193.83333
2952.958	160.16667
2955.063	163.5
2957.167	163.83333
2959.269	146.83333
2961.371	173.83333
2963.471	151.5
2965.569	169.83333
2967.666	138.83333
2969.762	139.16667
2971.857	133.5
2973.95	127.5
2976.042	136.16667
2978.133	132.83333
2980.222	131.16667
2982.31	124.16667
2984.396	108.5
2986.482	113.83333
2988.566	122.83333
2990.648	116.5
2992.73	122.5
2994.81	103.16667
2996.889	115.83333
2998.966	117.83333
3001.042	131.83333
3003.117	111.5
3005.191	118.5
3007.263	123.5
3009.334	117.83333
3011.403	118.5
3013.472	113.83333
3015.539	123.83333
3017.604	134.5
3019.669	103.16667
3021.732	110.83333
3023.794	110.16667
3025.854	103.83333
3027.914	98.83333
3029.971	95.5
3032.028	103.16667
3034.083	108.5
3036.137	109.83333
3038.19	92.83333
3040.242	90.83333
3042.292	86.16667
3044.341	94.16667
3046.388	113.83333
3048.435	85.83333
3050.48	105.83333
3052.524	99.83333
3054.566	78.16667
3056.607	93.5
3058.647	85.5
3060.686	79.16667
3062.723	73.5
3064.759	74.5
3066.794	1.5
3068.828	0.5
3070.86	0.16667
