-0.839	370.5
3.438	433.5
7.711	140.16667
11.981	53.5
16.247	44.5
20.509	44.5
24.768	44.83333
29.024	51.5
33.276	37.16667
37.524	46.83333
41.769	44.83333
46.01	30.16667
50.247	43.83333
54.481	55.83333
58.712	61.16667
62.939	44.16667
67.162	59.5
71.382	52.83333
75.599	46.16667
79.812	57.16667
84.021	73.16667
88.227	57.5
92.429	54.16667
96.628	46.83333
100.823	64.16667
105.015	68.16667
109.204	65.83333
113.388	71.16667
117.57	67.16667
121.748	77.16667
125.922	73.16667
130.093	89.16667
134.261	87.16667
138.425	82.16667
142.585	119.16667
146.742	109.5
150.896	133.16667
155.046	165.5
159.193	255.5
163.336	415.5
167.476	755.16667
171.613	1395.16667
175.746	2330.5
179.875	3433.5
184.002	4490.16667
188.124	5212.83333
192.244	5423.16667
196.36	5315.83333
200.472	5180.83333
204.581	4967.16667
208.687	4822.83333
212.79	4759.5
216.889	4722.83333
220.984	4662.16667
225.077	4639.83333
229.165	4628.83333
233.251	4610.5
237.333	4609.83333
241.412	4521.5
245.487	4449.16667
249.559	4414.5
253.628	4364.16667
257.694	4288.83333
261.756	4240.5
265.814	4153.5
269.87	4009.83333
273.922	3865.5
277.97	3767.5
282.016	3689.5
286.058	3684.83333
290.097	3701.5
294.132	3748.83333
298.164	3701.5
302.193	3575.16667
306.219	3305.83333
310.241	3074.5
314.26	2864.83333
318.276	2693.83333
322.288	2586.5
326.297	2462.5
330.303	2382.83333
334.305	2323.83333
338.305	2308.5
342.301	2265.5
346.294	2236.83333
350.283	2232.83333
354.269	2200.5
358.252	2186.16667
362.232	2150.83333
366.209	2166.83333
370.182	2133.5
374.152	2128.16667
378.119	2127.16667
382.083	2123.83333
386.043	2128.5
390	2095.83333
393.954	2120.16667
397.905	2084.16667
401.852	2090.83333
405.797	2065.83333
409.738	2070.16667
413.676	2083.83333
417.61	2087.16667
421.542	2048.5
425.47	2028.83333
429.396	2024.83333
433.318	2025.16667
437.236	1995.83333
441.152	2027.16667
445.065	1973.83333
448.974	1960.5
452.88	1939.83333
456.783	1913.83333
460.683	1907.83333
464.58	1916.5
468.473	1918.83333
472.364	1935.83333
476.251	1927.16667
480.135	1941.16667
484.016	1952.5
487.894	1970.83333
491.769	2001.5
495.641	1987.5
499.509	1986.5
503.375	1998.16667
507.237	2007.83333
511.096	2097.83333
514.952	2371.5
518.805	2680.5
522.655	2803.5
526.502	2411.5
530.346	2107.16667
534.187	2025.5
538.024	2011.5
541.859	2006.83333
545.69	2030.5
549.519	2007.16667
553.344	1978.5
557.166	1962.83333
560.985	1926.5
564.802	1881.83333
568.615	1874.83333
572.425	1844.16667
576.232	1834.83333
580.036	1820.5
583.836	1829.16667
587.634	1840.83333
591.429	1839.16667
595.221	1884.5
599.01	1894.83333
602.796	1912.83333
606.578	1932.16667
610.358	1941.5
614.135	1904.83333
617.909	1915.83333
621.679	1878.5
625.447	1858.83333
629.212	1862.16667
632.973	1865.83333
636.732	1858.5
640.488	1854.83333
644.241	1833.83333
647.991	1846.16667
651.737	1868.16667
655.481	1840.83333
659.222	1861.83333
662.96	1867.83333
666.695	1872.16667
670.427	1858.16667
674.156	1890.16667
677.882	1865.83333
681.605	1829.83333
685.325	1801.16667
689.043	1828.5
692.757	1817.83333
696.468	1814.16667
700.177	1814.83333
703.882	1797.5
707.585	1771.5
711.284	1796.83333
714.981	1785.5
718.675	1783.5
722.366	1801.83333
726.054	1796.83333
729.739	1789.83333
733.421	1801.5
737.1	1784.83333
740.777	1819.83333
744.45	1822.83333
748.121	1813.83333
751.789	1867.16667
755.453	1855.5
759.115	1861.83333
762.774	1860.16667
766.431	1856.83333
770.084	1886.16667
773.734	1899.16667
777.382	1928.16667
781.027	1946.83333
784.669	1949.5
788.308	1982.16667
791.944	1994.5
795.577	1981.16667
799.208	2019.83333
802.835	2019.16667
806.46	2029.5
810.082	2042.5
813.701	2052.83333
817.317	2073.16667
820.931	2063.5
824.542	2071.83333
828.149	2025.83333
831.754	2000.5
835.357	1976.83333
838.956	1994.5
842.553	1993.83333
846.146	1971.5
849.737	1959.83333
853.326	1968.5
856.911	1962.83333
860.493	1972.5
864.073	1976.5
867.65	2011.83333
871.225	2041.16667
874.796	2029.16667
878.365	2024.83333
881.931	2034.83333
885.494	2071.83333
889.054	2055.83333
892.612	2064.83333
896.166	2016.5
899.719	1996.83333
903.268	1977.83333
906.814	1975.5
910.358	1952.5
913.899	1954.16667
917.438	1938.83333
920.973	1939.5
924.506	1977.16667
928.036	2011.5
931.564	2073.16667
935.088	2116.83333
938.61	2098.5
942.129	2105.5
945.646	2169.83333
949.16	2207.5
952.671	2231.83333
956.179	2248.16667
959.685	2202.83333
963.188	2237.16667
966.688	2195.83333
970.185	2130.16667
973.68	2091.16667
977.173	2031.83333
980.662	2008.83333
984.149	2011.16667
987.633	2002.5
991.114	2022.5
994.593	2059.16667
998.069	2107.83333
1001.542	2161.83333
1005.013	2132.16667
1008.481	2014.16667
1011.947	1966.16667
1015.409	1953.5
1018.869	1954.5
1022.327	1964.16667
1025.782	1937.16667
1029.234	1957.16667
1032.683	1912.16667
1036.13	1859.83333
1039.574	1788.83333
1043.016	1740.83333
1046.455	1715.83333
1049.891	1685.83333
1053.325	1710.16667
1056.756	1727.5
1060.184	1732.16667
1063.61	1732.16667
1067.033	1742.5
1070.454	1757.5
1073.872	1775.83333
1077.287	1764.5
1080.7	1784.83333
1084.11	1759.83333
1087.517	1761.5
1090.922	1724.16667
1094.325	1679.83333
1097.724	1687.16667
1101.122	1683.83333
1104.516	1692.83333
1107.908	1684.16667
1111.298	1713.5
1114.684	1720.83333
1118.069	1758.83333
1121.45	1766.83333
1124.83	1765.16667
1128.206	1797.5
1131.58	1802.5
1134.951	1862.16667
1138.32	1893.16667
1141.687	1970.83333
1145.05	1996.5
1148.412	2013.83333
1151.77	2002.5
1155.126	2000.83333
1158.48	1973.16667
1161.831	1983.16667
1165.18	1990.5
1168.525	2020.5
1171.869	2043.83333
1175.21	2045.16667
1178.548	2043.5
1181.884	2071.83333
1185.217	2095.5
1188.548	2159.5
1191.877	2191.5
1195.202	2246.83333
1198.526	2307.5
1201.846	2311.5
1205.165	2319.83333
1208.48	2322.16667
1211.794	2300.5
1215.104	2306.5
1218.413	2325.5
1221.719	2314.5
1225.022	2271.83333
1228.323	2234.16667
1231.621	2217.16667
1234.917	2213.83333
1238.21	2236.5
1241.501	2221.16667
1244.79	2180.5
1248.076	2179.83333
1251.359	2201.83333
1254.64	2277.16667
1257.919	2267.16667
1261.195	2320.83333
1264.468	2344.5
1267.74	2379.5
1271.008	2372.16667
1274.275	2364.83333
1277.538	2353.5
1280.8	2351.16667
1284.059	2343.16667
1287.315	2373.83333
1290.569	2392.5
1293.821	2387.5
1297.07	2403.5
1300.317	2425.16667
1303.562	2430.5
1306.803	2397.5
1310.043	2411.16667
1313.28	2379.16667
1316.515	2359.16667
1319.747	2347.16667
1322.977	2356.5
1326.204	2310.5
1329.429	2286.83333
1332.652	2294.16667
1335.872	2253.83333
1339.09	2232.83333
1342.306	2217.5
1345.519	2196.16667
1348.729	2186.83333
1351.938	2186.16667
1355.144	2181.5
1358.347	2128.16667
1361.548	2120.83333
1364.747	2099.16667
1367.944	2092.83333
1371.138	2108.5
1374.329	2097.83333
1377.518	2107.16667
1380.705	2152.5
1383.89	2112.16667
1387.072	2038.16667
1390.252	1987.5
1393.429	1905.83333
1396.605	1854.5
1399.777	1796.83333
1402.948	1794.5
1406.116	1762.5
1409.282	1756.5
1412.445	1752.5
1415.606	1776.83333
1418.765	1787.5
1421.921	1824.16667
1425.075	1843.16667
1428.227	1908.5
1431.376	1989.5
1434.524	2061.16667
1437.668	2127.5
1440.811	2139.83333
1443.951	2179.16667
1447.089	2169.5
1450.224	2180.16667
1453.357	2162.5
1456.488	2138.83333
1459.617	2103.83333
1462.743	2107.83333
1465.867	2029.83333
1468.989	2010.16667
1472.108	1962.5
1475.225	1931.5
1478.34	1910.5
1481.453	1910.16667
1484.563	1897.5
1487.671	1940.83333
1490.776	1938.83333
1493.88	1983.16667
1496.981	2011.83333
1500.08	2037.83333
1503.176	2050.16667
1506.271	2077.83333
1509.363	2097.5
1512.452	2117.5
1515.54	2154.83333
1518.625	2172.16667
1521.708	2253.5
1524.789	2274.16667
1527.867	2343.16667
1530.944	2463.83333
1534.018	2560.5
1537.089	2662.16667
1540.159	2654.83333
1543.226	2674.16667
1546.291	2597.5
1549.354	2561.83333
1552.415	2504.83333
1555.473	2452.83333
1558.529	2408.5
1561.583	2389.5
1564.634	2373.83333
1567.684	2384.5
1570.731	2409.5
1573.776	2473.5
1576.819	2497.5
1579.859	2512.5
1582.898	2538.5
1585.934	2580.83333
1588.968	2575.5
1591.999	2577.5
1595.029	2590.83333
1598.056	2590.5
1601.081	2611.83333
1604.104	2602.16667
1607.125	2599.5
1610.144	2537.83333
1613.16	2484.16667
1616.174	2452.16667
1619.186	2397.83333
1622.196	2334.16667
1625.203	2279.5
1628.209	2258.16667
1631.212	2231.5
1634.213	2228.83333
1637.212	2241.5
1640.209	2237.5
1643.203	2189.16667
1646.196	2119.83333
1649.186	2049.5
1652.174	1992.16667
1655.16	1898.16667
1658.144	1872.83333
1661.125	1760.5
1664.105	1684.16667
1667.082	1617.5
1670.057	1515.83333
1673.03	1444.16667
1676.001	1349.83333
1678.97	1291.83333
1681.937	1198.5
1684.901	1137.83333
1687.863	1105.5
1690.824	1043.16667
1693.782	1043.83333
1696.738	984.5
1699.692	982.83333
1702.643	937.83333
1705.593	937.83333
1708.54	943.5
1711.486	941.83333
1714.429	903.5
1717.37	914.83333
1720.309	894.83333
1723.246	904.5
1726.181	877.5
1729.113	888.16667
1732.044	871.5
1734.972	859.5
1737.899	877.16667
1740.823	871.5
1743.745	880.16667
1746.665	827.5
1749.583	820.16667
1752.499	810.16667
1755.413	813.5
1758.325	793.16667
1761.235	790.83333
1764.142	776.5
1767.048	761.83333
1769.951	764.83333
1772.852	770.5
1775.752	759.83333
1778.649	747.83333
1781.544	767.83333
1784.437	734.83333
1787.328	740.16667
1790.217	742.5
1793.104	715.16667
1795.989	727.5
1798.872	722.5
1801.753	741.83333
1804.631	730.5
1807.508	743.16667
1810.383	725.16667
1813.255	724.83333
1816.126	729.83333
1818.994	725.5
1821.861	719.16667
1824.725	723.83333
1827.587	730.16667
1830.448	721.16667
1833.306	688.5
1836.162	706.5
1839.017	701.5
1841.869	702.16667
1844.719	695.16667
1847.567	683.83333
1850.414	681.5
1853.258	685.5
1856.1	706.83333
1858.94	694.5
1861.778	701.16667
1864.614	694.16667
1867.448	693.83333
1870.28	685.16667
1873.111	712.5
1875.939	692.5
1878.765	710.5
1881.589	684.83333
1884.411	695.83333
1887.231	686.83333
1890.049	693.16667
1892.865	699.83333
1895.68	694.16667
1898.492	699.5
1901.302	695.16667
1904.11	685.83333
1906.916	681.83333
1909.721	662.5
1912.523	679.16667
1915.323	675.16667
1918.122	660.16667
1920.918	692.83333
1923.712	679.83333
1926.505	673.16667
1929.295	656.5
1932.084	681.83333
1934.87	670.16667
1937.655	662.83333
1940.438	673.5
1943.218	671.83333
1945.997	678.16667
1948.774	684.5
1951.549	677.16667
1954.322	670.16667
1957.093	681.16667
1959.862	665.83333
1962.629	671.5
1965.394	669.16667
1968.157	657.16667
1970.918	669.16667
1973.678	647.83333
1976.435	671.5
1979.19	655.83333
1981.944	653.5
1984.696	668.5
1987.445	639.83333
1990.193	656.83333
1992.939	671.16667
1995.683	658.5
1998.425	642.83333
2001.165	676.16667
2003.903	656.5
2006.639	672.16667
2009.374	675.16667
2012.106	667.16667
2014.837	645.16667
2017.566	673.16667
2020.292	668.83333
2023.017	671.5
2025.74	671.83333
2028.461	656.83333
2031.18	667.5
2033.898	663.16667
2036.613	661.83333
2039.327	676.16667
2042.038	651.5
2044.748	658.83333
2047.456	666.83333
2050.162	652.16667
2052.866	653.83333
2055.568	662.5
2058.268	655.16667
2060.967	659.83333
2063.663	639.5
2066.358	660.83333
2069.051	649.5
2071.742	662.83333
2074.431	668.83333
2077.118	656.83333
2079.804	653.5
2082.487	654.5
2085.169	669.16667
2087.849	686.5
2090.527	654.5
2093.203	672.5
2095.877	687.5
2098.55	682.16667
2101.22	688.16667
2103.889	698.16667
2106.556	690.83333
2109.221	705.5
2111.884	704.83333
2114.546	738.5
2117.205	760.5
2119.863	806.5
2122.519	795.83333
2125.173	849.83333
2127.825	880.83333
2130.475	888.83333
2133.124	865.16667
2135.771	852.83333
2138.416	828.5
2141.059	800.5
2143.7	780.16667
2146.339	764.16667
2148.977	733.83333
2151.613	735.5
2154.247	729.5
2156.879	710.83333
2159.51	702.83333
2162.138	698.5
2164.765	715.5
2167.39	687.16667
2170.013	708.5
2172.634	706.83333
2175.254	685.83333
2177.872	723.83333
2180.488	683.83333
2183.102	693.83333
2185.714	679.16667
2188.325	672.5
2190.934	683.83333
2193.541	694.16667
2196.146	686.5
2198.75	675.83333
2201.351	677.16667
2203.951	661.16667
2206.549	689.83333
2209.146	686.16667
2211.74	678.16667
2214.333	690.83333
2216.924	684.16667
2219.514	678.83333
2222.101	680.5
2224.687	688.5
2227.271	675.83333
2229.853	680.83333
2232.433	664.5
2235.012	699.16667
2237.589	691.5
2240.164	697.5
2242.738	688.83333
2245.309	698.16667
2247.879	685.16667
2250.448	699.83333
2253.014	678.16667
2255.579	663.5
2258.142	684.83333
2260.703	672.5
2263.262	680.5
2265.82	687.83333
2268.376	687.83333
2270.93	676.5
2273.483	663.83333
2276.033	694.83333
2278.583	676.5
2281.13	682.83333
2283.675	677.83333
2286.219	680.5
2288.761	692.5
2291.302	681.83333
2293.841	695.16667
2296.377	680.83333
2298.913	690.83333
2301.446	707.83333
2303.978	699.16667
2306.508	697.5
2309.037	698.5
2311.563	698.5
2314.088	704.83333
2316.612	698.83333
2319.133	693.83333
2321.653	711.5
2324.171	699.83333
2326.688	704.83333
2329.202	703.5
2331.715	700.16667
2334.227	712.16667
2336.736	707.5
2339.244	705.83333
2341.751	701.5
2344.255	719.16667
2346.758	717.16667
2349.259	700.83333
2351.759	712.83333
2354.257	712.83333
2356.753	714.5
2359.247	726.83333
2361.74	724.5
2364.231	711.16667
2366.721	725.5
2369.209	722.5
2371.695	735.5
2374.179	731.5
2376.662	722.16667
2379.143	738.83333
2381.622	746.5
2384.1	760.16667
2386.576	746.83333
2389.051	748.5
2391.524	766.83333
2393.995	757.16667
2396.464	750.83333
2398.932	752.5
2401.398	754.5
2403.863	755.16667
2406.325	760.16667
2408.787	766.5
2411.246	769.83333
2413.704	760.83333
2416.16	759.5
2418.615	765.83333
2421.068	778.16667
2423.519	780.83333
2425.969	777.83333
2428.417	777.83333
2430.863	804.16667
2433.308	800.83333
2435.751	781.16667
2438.193	791.5
2440.633	793.5
2443.071	804.5
2445.508	785.5
2447.943	791.16667
2450.376	792.16667
2452.808	803.16667
2455.238	799.16667
2457.667	836.83333
2460.093	808.16667
2462.519	805.5
2464.942	807.16667
2467.365	814.16667
2469.785	818.5
2472.204	823.5
2474.621	812.16667
2477.037	839.83333
2479.451	813.5
2481.863	809.16667
2484.274	827.5
2486.683	826.16667
2489.091	840.5
2491.497	830.83333
2493.901	844.83333
2496.304	849.16667
2498.705	843.16667
2501.105	850.83333
2503.503	873.16667
2505.899	848.83333
2508.294	856.16667
2510.687	855.83333
2513.079	860.16667
2515.469	855.83333
2517.858	865.16667
2520.245	883.83333
2522.63	861.5
2525.014	863.5
2527.396	861.5
2529.776	870.16667
2532.156	886.5
2534.533	876.5
2536.909	885.5
2539.283	863.83333
2541.656	879.16667
2544.027	919.83333
2546.397	898.5
2548.765	890.5
2551.131	897.83333
2553.496	896.5
2555.86	907.5
2558.221	901.16667
2560.582	916.16667
2562.94	900.16667
2565.298	921.16667
2567.653	927.83333
2570.007	908.83333
2572.36	937.5
2574.711	924.16667
2577.06	932.16667
2579.408	948.83333
2581.754	942.83333
2584.099	938.83333
2586.442	942.83333
2588.784	953.5
2591.124	944.5
2593.463	949.5
2595.8	955.83333
2598.135	951.5
2600.469	953.16667
2602.802	955.5
2605.133	976.83333
2607.462	968.5
2609.79	958.83333
2612.116	986.16667
2614.441	978.16667
2616.764	967.16667
2619.086	979.83333
2621.406	971.83333
2623.725	999.16667
2626.042	1000.16667
2628.358	995.83333
2630.672	996.83333
2632.985	1021.5
2635.296	1019.83333
2637.606	1012.5
2639.914	1020.83333
2642.22	1016.16667
2644.525	1036.83333
2646.829	1035.5
2649.131	1047.16667
2651.432	1063.16667
2653.731	1059.16667
2656.028	1071.83333
2658.324	1062.83333
2660.619	1069.5
2662.912	1077.5
2665.204	1064.16667
2667.494	1085.83333
2669.782	1066.83333
2672.07	1082.83333
2674.355	1093.83333
2676.639	1083.83333
2678.922	1071.5
2681.203	1098.5
2683.483	1081.5
2685.761	1089.83333
2688.038	1096.83333
2690.313	1123.16667
2692.587	1111.5
2694.859	1096.83333
2697.13	1096.16667
2699.399	1128.83333
2701.667	1121.16667
2703.933	1104.83333
2706.198	1129.5
2708.461	1127.16667
2710.723	1136.16667
2712.984	1126.5
2715.243	1146.5
2717.5	1130.5
2719.757	1157.83333
2722.011	1151.16667
2724.264	1172.83333
2726.516	1185.16667
2728.766	1188.5
2731.015	1197.16667
2733.262	1189.83333
2735.508	1195.5
2737.753	1185.5
2739.996	1193.83333
2742.237	1186.16667
2744.477	1193.16667
2746.716	1194.16667
2748.953	1172.5
2751.189	1197.83333
2753.423	1182.83333
2755.656	1178.5
2757.887	1167.5
2760.117	1189.16667
2762.346	1168.5
2764.573	1176.5
2766.798	1185.83333
2769.022	1180.16667
2771.245	1214.83333
2773.467	1200.16667
2775.686	1208.16667
2777.905	1209.5
2780.122	1207.16667
2782.337	1235.16667
2784.552	1226.83333
2786.764	1221.83333
2788.976	1229.5
2791.186	1235.5
2793.394	1248.83333
2795.601	1274.16667
2797.807	1272.5
2800.011	1281.5
2802.214	1279.16667
2804.415	1282.5
2806.615	1289.83333
2808.814	1293.16667
2811.011	1298.16667
2813.206	1294.16667
2815.401	1306.83333
2817.594	1301.16667
2819.785	1321.5
2821.975	1298.5
2824.164	1290.83333
2826.351	1313.5
2828.537	1317.83333
2830.722	1347.16667
2832.905	1351.16667
2835.086	1362.16667
2837.267	1388.83333
2839.445	1397.83333
2841.623	1395.5
2843.799	1430.83333
2845.974	1431.83333
2848.147	1458.16667
2850.319	1476.83333
2852.489	1489.16667
2854.659	1512.16667
2856.826	1527.16667
2858.993	1565.5
2861.158	1540.16667
2863.321	1540.16667
2865.483	1551.5
2867.644	1548.16667
2869.804	1538.83333
2871.962	1532.16667
2874.118	1543.5
2876.274	1540.16667
2878.428	1528.83333
2880.58	1522.5
2882.731	1515.5
2884.881	1514.16667
2887.03	1526.83333
2889.177	1513.83333
2891.322	1537.5
2893.467	1516.83333
2895.61	1546.5
2897.751	1542.16667
2899.892	1567.5
2902.03	1572.83333
2904.168	1569.16667
2906.304	1595.16667
2908.439	1605.5
2910.572	1588.5
2912.704	1601.83333
2914.835	1619.83333
2916.965	1616.16667
2919.093	1632.5
2921.219	1620.5
2923.345	1634.83333
2925.469	1600.16667
2927.591	1595.16667
2929.712	1580.16667
2931.832	1565.16667
2933.951	1564.16667
2936.068	1551.5
2938.184	1524.16667
2940.299	1514.83333
2942.412	1512.16667
2944.524	1476.5
2946.634	1480.83333
2948.744	1466.16667
2950.851	1488.16667
2952.958	1467.83333
2955.063	1477.16667
2957.167	1474.5
2959.269	1454.83333
2961.371	1484.83333
2963.471	1443.5
2965.569	1468.16667
2967.666	1437.16667
2969.762	1425.16667
2971.857	1414.83333
2973.95	1399.83333
2976.042	1390.5
2978.133	1391.16667
2980.222	1385.83333
2982.31	1376.5
2984.396	1333.16667
2986.482	1340.16667
2988.566	1336.16667
2990.648	1348.83333
2992.73	1334.83333
2994.81	1336.83333
2996.889	1331.16667
2998.966	1355.83333
3001.042	1355.83333
3003.117	1345.16667
3005.191	1345.5
3007.263	1350.83333
3009.334	1341.5
3011.403	1333.83333
3013.472	1316.16667
3015.539	1299.83333
3017.604	1295.16667
3019.669	1263.5
3021.732	1254.16667
3023.794	1254.5
3025.854	1267.83333
3027.914	1255.16667
3029.971	1269.83333
3032.028	1274.16667
3034.083	1263.16667
3036.137	1264.5
3038.19	1215.5
3040.242	1181.83333
3042.292	1177.83333
3044.341	1173.83333
3046.388	1163.16667
3048.435	1129.83333
3050.48	1140.16667
3052.524	1132.5
3054.566	1125.16667
3056.607	1121.5
3058.647	1108.83333
3060.686	1081.5
3062.723	1037.5
3064.759	998.5
3066.794	-0.16667
3068.828	3.16667
3070.86	4.16667
