-0.839	452.45833
3.438	528.45833
7.711	159.45833
11.981	61.125
16.247	49.79167
20.509	52.45833
24.768	45.45833
29.024	58.125
33.276	45.45833
37.524	52.79167
41.769	52.45833
46.01	35.45833
50.247	48.79167
54.481	60.125
58.712	65.125
62.939	49.45833
67.162	70.125
71.382	58.125
75.599	47.79167
79.812	65.45833
84.021	81.45833
88.227	61.45833
92.429	61.79167
96.628	54.125
100.823	79.125
105.015	78.79167
109.204	73.79167
113.388	79.125
117.57	81.45833
121.748	95.125
125.922	88.125
130.093	103.125
134.261	106.45833
138.425	104.79167
142.585	146.125
146.742	142.45833
150.896	174.125
155.046	221.79167
159.193	336.125
163.336	576.45833
167.476	1054.125
171.613	1968.45833
175.746	3257.79167
179.875	4856.79167
184.002	6347.45833
188.124	7427.79167
192.244	7821.45833
196.36	7833.45833
200.472	7665.79167
204.581	7517.125
208.687	7326.125
212.79	7310.79167
216.889	7369.125
220.984	7372.79167
225.077	7408.45833
229.165	7459.79167
233.251	7526.125
237.333	7532.45833
241.412	7470.45833
245.487	7394.45833
249.559	7337.79167
253.628	7272.125
257.694	7190.79167
261.756	7145.45833
265.814	6989.125
269.87	6821.125
273.922	6571.125
277.97	6379.45833
282.016	6280.79167
286.058	6270.45833
290.097	6311.125
294.132	6320.125
298.164	6266.45833
302.193	6024.45833
306.219	5625.79167
310.241	5221.45833
314.26	4887.125
318.276	4573.79167
322.288	4383.125
326.297	4219.79167
330.303	4101.125
334.305	3970.45833
338.305	3950.45833
342.301	3884.79167
346.294	3858.45833
350.283	3834.45833
354.269	3841.125
358.252	3790.79167
362.232	3785.79167
366.209	3765.45833
370.182	3712.79167
374.152	3699.79167
378.119	3693.45833
382.083	3694.45833
386.043	3725.45833
390	3695.45833
393.954	3684.45833
397.905	3678.45833
401.852	3686.45833
405.797	3629.45833
409.738	3644.125
413.676	3633.79167
417.61	3648.79167
421.542	3611.125
425.47	3599.79167
429.396	3561.45833
433.318	3535.45833
437.236	3540.125
441.152	3557.79167
445.065	3492.45833
448.974	3506.79167
452.88	3467.45833
456.783	3476.79167
460.683	3448.79167
464.58	3428.125
468.473	3451.79167
472.364	3459.125
476.251	3472.79167
480.135	3473.79167
484.016	3520.125
487.894	3540.45833
491.769	3554.125
495.641	3565.45833
499.509	3538.45833
503.375	3558.79167
507.237	3545.45833
511.096	3525.45833
514.952	3554.45833
518.805	3557.45833
522.655	3551.79167
526.502	3535.45833
530.346	3529.125
534.187	3546.125
538.024	3560.79167
541.859	3578.125
545.69	3584.45833
549.519	3580.45833
553.344	3558.45833
557.166	3508.45833
560.985	3474.125
564.802	3430.125
568.615	3389.79167
572.425	3312.45833
576.232	3311.125
580.036	3292.79167
583.836	3309.79167
587.634	3354.45833
591.429	3336.79167
595.221	3406.125
599.01	3443.45833
602.796	3473.125
606.578	3481.125
610.358	3513.45833
614.135	3446.125
617.909	3431.45833
621.679	3399.125
625.447	3397.45833
629.212	3395.125
632.973	3392.79167
636.732	3370.45833
640.488	3373.45833
644.241	3354.125
647.991	3348.125
651.737	3364.79167
655.481	3336.45833
659.222	3380.45833
662.96	3360.79167
666.695	3363.45833
670.427	3391.125
674.156	3392.45833
677.882	3358.45833
681.605	3342.125
685.325	3329.79167
689.043	3320.79167
692.757	3301.125
696.468	3297.79167
700.177	3291.45833
703.882	3252.79167
707.585	3251.79167
711.284	3270.45833
714.981	3245.79167
718.675	3237.125
722.366	3266.79167
726.054	3223.125
729.739	3212.125
733.421	3236.79167
737.1	3225.125
740.777	3253.79167
744.45	3260.125
748.121	3273.45833
751.789	3335.79167
755.453	3323.45833
759.115	3336.79167
762.774	3364.45833
766.431	3369.125
770.084	3413.45833
773.734	3457.45833
777.382	3480.125
781.027	3512.45833
784.669	3539.79167
788.308	3530.79167
791.944	3554.79167
795.577	3550.79167
799.208	3570.79167
802.835	3588.125
806.46	3609.79167
810.082	3653.125
813.701	3651.125
817.317	3687.79167
820.931	3658.79167
824.542	3651.79167
828.149	3634.79167
831.754	3582.125
835.357	3567.79167
838.956	3595.125
842.553	3570.125
846.146	3548.125
849.737	3524.79167
853.326	3534.125
856.911	3545.79167
860.493	3577.79167
864.073	3572.45833
867.65	3607.45833
871.225	3646.79167
874.796	3622.45833
878.365	3651.45833
881.931	3687.45833
885.494	3683.125
889.054	3709.125
892.612	3717.45833
896.166	3662.45833
899.719	3632.45833
903.268	3582.45833
906.814	3570.45833
910.358	3527.45833
913.899	3535.79167
917.438	3509.79167
920.973	3519.45833
924.506	3546.79167
928.036	3612.79167
931.564	3666.125
935.088	3706.125
938.61	3715.79167
942.129	3759.125
945.646	3834.45833
949.16	3894.125
952.671	3933.79167
956.179	3928.79167
959.685	3948.125
963.188	3950.45833
966.688	3898.79167
970.185	3794.79167
973.68	3667.79167
977.173	3621.45833
980.662	3557.45833
984.149	3540.125
987.633	3539.45833
991.114	3612.45833
994.593	3658.45833
998.069	3752.45833
1001.542	3827.125
1005.013	3779.45833
1008.481	3594.45833
1011.947	3519.45833
1015.409	3516.79167
1018.869	3489.79167
1022.327	3509.125
1025.782	3472.79167
1029.234	3484.79167
1032.683	3406.125
1036.13	3291.45833
1039.574	3192.125
1043.016	3101.45833
1046.455	3072.79167
1049.891	3053.125
1053.325	3050.125
1056.756	3037.45833
1060.184	3047.45833
1063.61	3071.79167
1067.033	3082.125
1070.454	3085.79167
1073.872	3106.125
1077.287	3110.125
1080.7	3109.79167
1084.11	3090.79167
1087.517	3075.79167
1090.922	3027.79167
1094.325	3005.79167
1097.724	2975.125
1101.122	2957.79167
1104.516	2967.125
1107.908	2963.79167
1111.298	3032.79167
1114.684	3045.125
1118.069	3068.125
1121.45	3106.45833
1124.83	3112.45833
1128.206	3140.125
1131.58	3189.45833
1134.951	3257.125
1138.32	3341.125
1141.687	3477.125
1145.05	3539.125
1148.412	3553.79167
1151.77	3541.79167
1155.126	3557.125
1158.48	3516.45833
1161.831	3551.45833
1165.18	3576.45833
1168.525	3643.45833
1171.869	3672.45833
1175.21	3681.45833
1178.548	3708.79167
1181.884	3766.125
1185.217	3775.125
1188.548	3851.79167
1191.877	3925.45833
1195.202	4053.125
1198.526	4123.79167
1201.846	4132.125
1205.165	4119.79167
1208.48	4098.79167
1211.794	4067.125
1215.104	4047.45833
1218.413	4026.125
1221.719	4055.79167
1225.022	3966.125
1228.323	3914.45833
1231.621	3882.125
1234.917	3850.125
1238.21	3881.79167
1241.501	3822.125
1244.79	3830.45833
1248.076	3815.79167
1251.359	3867.45833
1254.64	3941.79167
1257.919	3941.45833
1261.195	4026.125
1264.468	4098.125
1267.74	4142.45833
1271.008	4154.45833
1274.275	4110.79167
1277.538	4088.45833
1280.8	4110.125
1284.059	4122.45833
1287.315	4129.125
1290.569	4141.79167
1293.821	4153.125
1297.07	4158.79167
1300.317	4179.125
1303.562	4157.79167
1306.803	4151.125
1310.043	4145.45833
1313.28	4082.45833
1316.515	4074.125
1319.747	4041.79167
1322.977	4031.125
1326.204	3986.79167
1329.429	3898.125
1332.652	3906.45833
1335.872	3881.45833
1339.09	3820.45833
1342.306	3808.79167
1345.519	3771.79167
1348.729	3720.45833
1351.938	3728.125
1355.144	3688.45833
1358.347	3628.125
1361.548	3623.45833
1364.747	3586.79167
1367.944	3561.45833
1371.138	3551.79167
1374.329	3565.79167
1377.518	3597.45833
1380.705	3624.125
1383.89	3579.45833
1387.072	3491.125
1390.252	3349.125
1393.429	3250.125
1396.605	3145.45833
1399.777	3056.125
1402.948	3019.125
1406.116	3005.45833
1409.282	2978.79167
1412.445	2973.125
1415.606	3026.45833
1418.765	3062.79167
1421.921	3088.45833
1425.075	3172.125
1428.227	3244.45833
1431.376	3378.79167
1434.524	3514.79167
1437.668	3581.79167
1440.811	3642.125
1443.951	3665.79167
1447.089	3699.79167
1450.224	3692.45833
1453.357	3672.45833
1456.488	3659.79167
1459.617	3591.45833
1462.743	3538.45833
1465.867	3469.79167
1468.989	3448.125
1472.108	3384.125
1475.225	3309.79167
1478.34	3298.125
1481.453	3317.125
1484.563	3323.79167
1487.671	3369.79167
1490.776	3396.79167
1493.88	3449.125
1496.981	3515.45833
1500.08	3583.79167
1503.176	3627.45833
1506.271	3669.125
1509.363	3722.79167
1512.452	3726.125
1515.54	3792.45833
1518.625	3838.125
1521.708	3904.79167
1524.789	4034.79167
1527.867	4179.79167
1530.944	4368.125
1534.018	4552.125
1537.089	4691.45833
1540.159	4743.125
1543.226	4711.125
1546.291	4625.125
1549.354	4529.79167
1552.415	4441.45833
1555.473	4348.79167
1558.529	4301.125
1561.583	4246.79167
1564.634	4221.79167
1567.684	4243.125
1570.731	4248.125
1573.776	4323.79167
1576.819	4380.125
1579.859	4411.45833
1582.898	4488.45833
1585.934	4549.45833
1588.968	4561.79167
1591.999	4514.79167
1595.029	4510.79167
1598.056	4534.125
1601.081	4552.79167
1604.104	4533.45833
1607.125	4519.125
1610.144	4412.125
1613.16	4332.79167
1616.174	4216.79167
1619.186	4145.45833
1622.196	4038.79167
1625.203	3951.125
1628.209	3884.45833
1631.212	3835.45833
1634.213	3813.79167
1637.212	3840.125
1640.209	3783.79167
1643.203	3661.125
1646.196	3543.45833
1649.186	3382.79167
1652.174	3250.79167
1655.16	3122.79167
1658.144	3043.79167
1661.125	2882.125
1664.105	2724.125
1667.082	2601.79167
1670.057	2500.79167
1673.03	2346.45833
1676.001	2196.79167
1678.97	2078.79167
1681.937	1950.125
1684.901	1855.125
1687.863	1801.125
1690.824	1715.125
1693.782	1686.125
1696.738	1617.79167
1699.692	1583.45833
1702.643	1541.45833
1705.593	1518.79167
1708.54	1505.125
1711.486	1509.125
1714.429	1461.45833
1717.37	1467.125
1720.309	1451.45833
1723.246	1418.79167
1726.181	1419.45833
1729.113	1407.79167
1732.044	1388.45833
1734.972	1367.79167
1737.899	1379.79167
1740.823	1367.125
1743.745	1357.125
1746.665	1322.125
1749.583	1318.79167
1752.499	1274.125
1755.413	1270.125
1758.325	1234.79167
1761.235	1234.79167
1764.142	1220.79167
1767.048	1217.79167
1769.951	1206.125
1772.852	1197.79167
1775.752	1203.125
1778.649	1175.45833
1781.544	1197.125
1784.437	1155.125
1787.328	1174.79167
1790.217	1154.125
1793.104	1129.79167
1795.989	1138.79167
1798.872	1127.45833
1801.753	1133.45833
1804.631	1117.45833
1807.508	1137.125
1810.383	1120.125
1813.255	1114.45833
1816.126	1115.45833
1818.994	1111.79167
1821.861	1102.79167
1824.725	1091.79167
1827.587	1111.125
1830.448	1071.45833
1833.306	1043.45833
1836.162	1070.79167
1839.017	1064.125
1841.869	1049.45833
1844.719	1053.125
1847.567	1036.45833
1850.414	1029.79167
1853.258	1023.45833
1856.1	1040.79167
1858.94	1042.79167
1861.778	1034.45833
1864.614	1033.45833
1867.448	1017.45833
1870.28	1008.79167
1873.111	1037.45833
1875.939	1033.45833
1878.765	1022.45833
1881.589	1017.125
1884.411	1023.45833
1887.231	1013.45833
1890.049	1013.79167
1892.865	1006.45833
1895.68	976.79167
1898.492	1005.79167
1901.302	978.125
1904.11	998.79167
1906.916	979.45833
1909.721	957.79167
1912.523	980.79167
1915.323	960.79167
1918.122	955.79167
1920.918	969.125
1923.712	941.125
1926.505	949.125
1929.295	917.45833
1932.084	946.79167
1934.87	943.45833
1937.655	939.79167
1940.438	936.45833
1943.218	950.45833
1945.997	940.79167
1948.774	947.45833
1951.549	940.79167
1954.322	927.79167
1957.093	923.125
1959.862	921.125
1962.629	903.45833
1965.394	903.45833
1968.157	901.45833
1970.918	897.79167
1973.678	893.45833
1976.435	905.45833
1979.19	884.125
1981.944	894.79167
1984.696	885.45833
1987.445	869.45833
1990.193	873.125
1992.939	887.79167
1995.683	876.125
1998.425	851.125
2001.165	884.79167
2003.903	858.125
2006.639	865.45833
2009.374	869.45833
2012.106	865.79167
2014.837	839.79167
2017.566	862.45833
2020.292	858.125
2023.017	853.79167
2025.74	851.45833
2028.461	845.125
2031.18	839.45833
2033.898	837.45833
2036.613	834.45833
2039.327	831.125
2042.038	831.45833
2044.748	830.79167
2047.456	837.45833
2050.162	818.45833
2052.866	809.45833
2055.568	823.125
2058.268	803.45833
2060.967	826.125
2063.663	797.125
2066.358	801.79167
2069.051	805.45833
2071.742	812.79167
2074.431	810.125
2077.118	803.45833
2079.804	785.79167
2082.487	794.125
2085.169	808.79167
2087.849	820.79167
2090.527	793.45833
2093.203	802.79167
2095.877	811.45833
2098.55	812.125
2101.22	820.45833
2103.889	829.79167
2106.556	824.45833
2109.221	843.125
2111.884	850.79167
2114.546	896.45833
2117.205	929.79167
2119.863	1004.45833
2122.519	1041.45833
2125.173	1122.45833
2127.825	1183.79167
2130.475	1182.79167
2133.124	1148.79167
2135.771	1108.45833
2138.416	1088.79167
2141.059	1020.125
2143.7	981.125
2146.339	919.125
2148.977	886.125
2151.613	860.45833
2154.247	849.79167
2156.879	831.45833
2159.51	808.45833
2162.138	793.45833
2164.765	785.125
2167.39	773.45833
2170.013	788.79167
2172.634	778.125
2175.254	764.125
2177.872	780.125
2180.488	750.45833
2183.102	752.79167
2185.714	736.79167
2188.325	714.79167
2190.934	718.125
2193.541	724.79167
2196.146	714.45833
2198.75	695.45833
2201.351	688.125
2203.951	696.45833
2206.549	702.79167
2209.146	685.45833
2211.74	686.125
2214.333	694.79167
2216.924	665.79167
2219.514	671.45833
2222.101	673.45833
2224.687	681.125
2227.271	665.125
2229.853	652.125
2232.433	657.45833
2235.012	669.45833
2237.589	661.125
2240.164	660.79167
2242.738	642.79167
2245.309	641.45833
2247.879	645.125
2250.448	647.79167
2253.014	617.125
2255.579	608.79167
2258.142	619.79167
2260.703	598.79167
2263.262	606.45833
2265.82	598.125
2268.376	603.79167
2270.93	585.125
2273.483	583.79167
2276.033	589.79167
2278.583	586.79167
2281.13	574.125
2283.675	573.45833
2286.219	567.45833
2288.761	575.79167
2291.302	578.125
2293.841	585.125
2296.377	559.125
2298.913	565.79167
2301.446	585.125
2303.978	568.79167
2306.508	558.45833
2309.037	558.45833
2311.563	559.125
2314.088	560.125
2316.612	541.79167
2319.133	568.125
2321.653	548.125
2324.171	533.79167
2326.688	555.79167
2329.202	535.125
2331.715	534.79167
2334.227	534.45833
2336.736	534.79167
2339.244	535.79167
2341.751	515.79167
2344.255	533.125
2346.758	528.79167
2349.259	517.45833
2351.759	524.125
2354.257	519.79167
2356.753	516.45833
2359.247	514.79167
2361.74	524.125
2364.231	521.125
2366.721	520.79167
2369.209	507.45833
2371.695	511.125
2374.179	508.45833
2376.662	500.79167
2379.143	522.125
2381.622	492.79167
2384.1	500.45833
2386.576	505.45833
2389.051	521.125
2391.524	518.125
2393.995	511.125
2396.464	498.125
2398.932	498.79167
2401.398	493.79167
2403.863	492.125
2406.325	488.79167
2408.787	490.79167
2411.246	501.125
2413.704	481.79167
2416.16	473.45833
2418.615	476.45833
2421.068	495.79167
2423.519	493.79167
2425.969	473.125
2428.417	476.125
2430.863	492.125
2433.308	488.125
2435.751	470.45833
2438.193	470.45833
2440.633	474.79167
2443.071	473.79167
2445.508	467.45833
2447.943	467.45833
2450.376	464.125
2452.808	462.45833
2455.238	458.45833
2457.667	492.79167
2460.093	459.125
2462.519	444.45833
2464.942	457.45833
2467.365	456.45833
2469.785	465.125
2472.204	449.79167
2474.621	440.79167
2477.037	471.79167
2479.451	435.45833
2481.863	437.45833
2484.274	438.79167
2486.683	449.45833
2489.091	454.45833
2491.497	442.125
2493.901	450.45833
2496.304	439.45833
2498.705	446.45833
2501.105	437.125
2503.503	464.79167
2505.899	423.45833
2508.294	453.79167
2510.687	439.79167
2513.079	422.125
2515.469	426.79167
2517.858	424.79167
2520.245	434.45833
2522.63	424.79167
2525.014	422.79167
2527.396	408.79167
2529.776	407.125
2532.156	424.79167
2534.533	413.45833
2536.909	411.125
2539.283	391.79167
2541.656	410.79167
2544.027	431.79167
2546.397	405.125
2548.765	403.125
2551.131	405.45833
2553.496	406.45833
2555.86	410.79167
2558.221	414.79167
2560.582	398.79167
2562.94	393.45833
2565.298	403.79167
2567.653	430.125
2570.007	388.79167
2572.36	407.45833
2574.711	393.125
2577.06	411.45833
2579.408	410.45833
2581.754	401.125
2584.099	402.125
2586.442	393.45833
2588.784	397.79167
2591.124	394.79167
2593.463	393.45833
2595.8	398.125
2598.135	382.125
2600.469	383.45833
2602.802	389.45833
2605.133	406.45833
2607.462	383.125
2609.79	378.79167
2612.116	403.125
2614.441	387.79167
2616.764	385.45833
2619.086	389.45833
2621.406	378.125
2623.725	399.125
2626.042	397.79167
2628.358	378.79167
2630.672	378.45833
2632.985	399.125
2635.296	387.45833
2637.606	375.125
2639.914	368.125
2642.22	379.79167
2644.525	374.125
2646.829	387.79167
2649.131	389.45833
2651.432	394.45833
2653.731	387.79167
2656.028	392.125
2658.324	400.45833
2660.619	387.79167
2662.912	391.45833
2665.204	377.79167
2667.494	381.45833
2669.782	376.79167
2672.07	380.45833
2674.355	385.45833
2676.639	384.45833
2678.922	375.125
2681.203	381.125
2683.483	372.45833
2685.761	375.79167
2688.038	387.45833
2690.313	400.125
2692.587	390.125
2694.859	372.45833
2697.13	385.45833
2699.399	395.45833
2701.667	395.45833
2703.933	396.79167
2706.198	404.45833
2708.461	397.45833
2710.723	392.125
2712.984	397.125
2715.243	397.125
2717.5	392.45833
2719.757	412.45833
2722.011	396.79167
2724.264	412.79167
2726.516	423.45833
2728.766	400.125
2731.015	408.79167
2733.262	410.79167
2735.508	414.79167
2737.753	409.45833
2739.996	389.125
2742.237	392.125
2744.477	399.45833
2746.716	396.79167
2748.953	389.79167
2751.189	383.45833
2753.423	390.79167
2755.656	374.125
2757.887	374.45833
2760.117	379.125
2762.346	362.125
2764.573	370.45833
2766.798	376.125
2769.022	371.125
2771.245	370.125
2773.467	370.45833
2775.686	381.125
2777.905	381.45833
2780.122	378.125
2782.337	385.45833
2784.552	380.125
2786.764	382.45833
2788.976	386.79167
2791.186	394.125
2793.394	398.79167
2795.601	390.45833
2797.807	413.79167
2800.011	406.45833
2802.214	417.125
2804.415	414.125
2806.615	416.79167
2808.814	426.45833
2811.011	431.125
2813.206	430.79167
2815.401	448.79167
2817.594	440.45833
2819.785	466.45833
2821.975	448.79167
2824.164	449.79167
2826.351	480.45833
2828.537	495.79167
2830.722	487.125
2832.905	490.125
2835.086	521.125
2837.267	563.125
2839.445	561.45833
2841.623	585.45833
2843.799	614.45833
2845.974	648.125
2848.147	685.79167
2850.319	689.125
2852.489	723.45833
2854.659	728.125
2856.826	744.45833
2858.993	784.45833
2861.158	761.125
2863.321	768.79167
2865.483	769.45833
2867.644	772.45833
2869.804	760.45833
2871.962	776.45833
2874.118	774.45833
2876.274	772.79167
2878.428	780.45833
2880.58	772.125
2882.731	758.125
2884.881	756.79167
2887.03	764.125
2889.177	754.79167
2891.322	782.79167
2893.467	778.79167
2895.61	770.79167
2897.751	795.45833
2899.892	792.45833
2902.03	798.125
2904.168	809.125
2906.304	807.45833
2908.439	827.125
2910.572	806.45833
2912.704	824.45833
2914.835	821.79167
2916.965	811.79167
2919.093	835.125
2921.219	807.45833
2923.345	827.79167
2925.469	798.79167
2927.591	797.45833
2929.712	758.45833
2931.832	768.79167
2933.951	750.125
2936.068	737.45833
2938.184	722.45833
2940.299	686.125
2942.412	665.125
2944.524	643.45833
2946.634	635.79167
2948.744	578.79167
2950.851	594.79167
2952.958	566.45833
2955.063	550.125
2957.167	546.125
2959.269	512.125
2961.371	530.79167
2963.471	491.79167
2965.569	500.125
2967.666	470.125
2969.762	465.45833
2971.857	450.45833
2973.95	435.45833
2976.042	431.125
2978.133	413.79167
2980.222	399.79167
2982.31	386.45833
2984.396	370.125
2986.482	375.125
2988.566	368.45833
2990.648	365.125
2992.73	351.45833
2994.81	346.79167
2996.889	348.79167
2998.966	343.125
3001.042	354.79167
3003.117	343.45833
3005.191	339.45833
3007.263	335.45833
3009.334	325.79167
3011.403	329.45833
3013.472	311.125
3015.539	320.79167
3017.604	322.79167
3019.669	289.79167
3021.732	293.45833
3023.794	301.125
3025.854	288.45833
3027.914	283.79167
3029.971	299.45833
3032.028	279.79167
3034.083	284.45833
3036.137	282.125
3038.19	266.45833
3040.242	264.45833
3042.292	260.125
3044.341	257.79167
3046.388	272.125
3048.435	242.45833
3050.48	265.79167
3052.524	258.45833
3054.566	241.79167
3056.607	251.45833
3058.647	241.125
3060.686	234.45833
3062.723	232.79167
3064.759	215.125
3066.794	-0.20833
3068.828	4.125
3070.86	3.125
