-0.839	374.04167
3.438	454.04167
7.711	136.04167
11.981	55.04167
16.247	42.04167
20.509	48.04167
24.768	41.04167
29.024	53.04167
33.276	40.375
37.524	48.375
41.769	42.04167
46.01	29.70833
50.247	47.70833
54.481	57.04167
58.712	60.70833
62.939	44.375
67.162	61.70833
71.382	56.375
75.599	42.375
79.812	60.04167
84.021	78.04167
88.227	53.375
92.429	58.04167
96.628	47.375
100.823	64.375
105.015	67.70833
109.204	60.04167
113.388	67.70833
117.57	68.04167
121.748	80.375
125.922	69.70833
130.093	86.04167
134.261	85.70833
138.425	79.04167
142.585	120.04167
146.742	108.70833
150.896	135.375
155.046	163.04167
159.193	252.70833
163.336	412.04167
167.476	766.375
171.613	1387.375
175.746	2310.70833
179.875	3377.375
184.002	4445.70833
188.124	5119.04167
192.244	5302.04167
196.36	5210.04167
200.472	5032.04167
204.581	4840.375
208.687	4658.375
212.79	4572.04167
216.889	4524.70833
220.984	4461.04167
225.077	4412.04167
229.165	4368.70833
233.251	4386.375
237.333	4338.375
241.412	4244.375
245.487	4182.70833
249.559	4116.04167
253.628	4069.70833
257.694	4044.70833
261.756	3983.70833
265.814	3865.04167
269.87	3724.04167
273.922	3622.04167
277.97	3518.70833
282.016	3447.375
286.058	3463.70833
290.097	3513.70833
294.132	3511.70833
298.164	3492.70833
302.193	3300.04167
306.219	3086.04167
310.241	2876.70833
314.26	2650.04167
318.276	2496.375
322.288	2395.04167
326.297	2283.70833
330.303	2195.375
334.305	2139.375
338.305	2114.70833
342.301	2055.70833
346.294	2059.04167
350.283	2047.375
354.269	2011.375
358.252	1994.04167
362.232	1985.375
366.209	1957.70833
370.182	1939.375
374.152	1922.04167
378.119	1926.70833
382.083	1900.04167
386.043	1944.04167
390	1893.375
393.954	1905.375
397.905	1895.375
401.852	1906.375
405.797	1878.70833
409.738	1852.375
413.676	1867.375
417.61	1884.04167
421.542	1843.70833
425.47	1837.04167
429.396	1825.70833
433.318	1788.04167
437.236	1810.70833
441.152	1825.375
445.065	1773.04167
448.974	1768.04167
452.88	1727.375
456.783	1723.04167
460.683	1708.04167
464.58	1701.04167
468.473	1715.375
472.364	1710.70833
476.251	1732.70833
480.135	1728.375
484.016	1773.04167
487.894	1777.70833
491.769	1759.375
495.641	1777.70833
499.509	1765.70833
503.375	1759.375
507.237	1824.04167
511.096	1898.04167
514.952	2194.04167
518.805	2508.04167
522.655	2661.375
526.502	2229.70833
530.346	1880.70833
534.187	1833.70833
538.024	1795.375
541.859	1805.375
545.69	1824.04167
549.519	1800.70833
553.344	1796.375
557.166	1758.375
560.985	1724.04167
564.802	1697.70833
568.615	1675.04167
572.425	1647.04167
576.232	1643.70833
580.036	1637.70833
583.836	1654.70833
587.634	1646.375
591.429	1639.70833
595.221	1697.04167
599.01	1698.04167
602.796	1720.70833
606.578	1713.04167
610.358	1725.375
614.135	1700.70833
617.909	1703.375
621.679	1686.375
625.447	1670.70833
629.212	1662.375
632.973	1658.04167
636.732	1668.70833
640.488	1683.375
644.241	1642.04167
647.991	1640.04167
651.737	1647.70833
655.481	1621.04167
659.222	1649.375
662.96	1620.04167
666.695	1661.375
670.427	1659.70833
674.156	1680.70833
677.882	1657.70833
681.605	1652.04167
685.325	1615.375
689.043	1640.70833
692.757	1633.04167
696.468	1640.70833
700.177	1609.70833
703.882	1603.375
707.585	1586.375
711.284	1596.04167
714.981	1601.04167
718.675	1624.04167
722.366	1617.375
726.054	1608.04167
729.739	1605.375
733.421	1602.375
737.1	1601.04167
740.777	1618.375
744.45	1623.70833
748.121	1617.375
751.789	1681.70833
755.453	1649.04167
759.115	1654.70833
762.774	1696.375
766.431	1681.70833
770.084	1695.70833
773.734	1709.04167
777.382	1761.375
781.027	1782.375
784.669	1785.375
788.308	1764.70833
791.944	1794.70833
795.577	1805.04167
799.208	1819.375
802.835	1813.70833
806.46	1820.70833
810.082	1820.04167
813.701	1825.04167
817.317	1834.70833
820.931	1851.04167
824.542	1856.04167
828.149	1827.70833
831.754	1803.375
835.357	1825.70833
838.956	1796.70833
842.553	1822.70833
846.146	1813.375
849.737	1806.375
853.326	1812.04167
856.911	1805.375
860.493	1819.04167
864.073	1838.04167
867.65	1856.04167
871.225	1872.04167
874.796	1874.375
878.365	1872.04167
881.931	1869.70833
885.494	1888.70833
889.054	1874.70833
892.612	1901.375
896.166	1865.375
899.719	1859.04167
903.268	1821.375
906.814	1821.04167
910.358	1802.70833
913.899	1786.04167
917.438	1776.70833
920.973	1768.70833
924.506	1805.70833
928.036	1852.375
931.564	1883.70833
935.088	1921.04167
938.61	1926.375
942.129	1963.70833
945.646	1994.375
949.16	2021.04167
952.671	2054.04167
956.179	2030.375
959.685	2032.70833
963.188	2038.375
966.688	1996.375
970.185	1936.375
973.68	1890.375
977.173	1880.04167
980.662	1836.04167
984.149	1850.70833
987.633	1814.04167
991.114	1833.375
994.593	1878.70833
998.069	1931.04167
1001.542	1976.70833
1005.013	1949.04167
1008.481	1845.04167
1011.947	1813.375
1015.409	1795.04167
1018.869	1796.70833
1022.327	1822.04167
1025.782	1773.04167
1029.234	1779.375
1032.683	1748.04167
1036.13	1693.04167
1039.574	1638.04167
1043.016	1604.04167
1046.455	1565.375
1049.891	1561.70833
1053.325	1571.70833
1056.756	1575.375
1060.184	1582.04167
1063.61	1582.70833
1067.033	1604.375
1070.454	1609.375
1073.872	1621.04167
1077.287	1627.375
1080.7	1618.70833
1084.11	1601.04167
1087.517	1598.04167
1090.922	1573.04167
1094.325	1548.04167
1097.724	1544.04167
1101.122	1570.70833
1104.516	1574.375
1107.908	1541.70833
1111.298	1579.375
1114.684	1598.04167
1118.069	1609.375
1121.45	1629.04167
1124.83	1616.70833
1128.206	1656.04167
1131.58	1676.04167
1134.951	1694.04167
1138.32	1761.375
1141.687	1817.70833
1145.05	1859.375
1148.412	1867.375
1151.77	1868.375
1155.126	1826.375
1158.48	1841.375
1161.831	1854.70833
1165.18	1858.70833
1168.525	1894.375
1171.869	1898.04167
1175.21	1909.70833
1178.548	1943.375
1181.884	1952.04167
1185.217	1947.70833
1188.548	2008.04167
1191.877	2032.70833
1195.202	2107.04167
1198.526	2141.70833
1201.846	2167.375
1205.165	2169.375
1208.48	2159.70833
1211.794	2156.375
1215.104	2142.375
1218.413	2136.375
1221.719	2141.375
1225.022	2115.04167
1228.323	2066.04167
1231.621	2068.375
1234.917	2062.70833
1238.21	2095.375
1241.501	2048.375
1244.79	2048.375
1248.076	2021.375
1251.359	2057.70833
1254.64	2124.70833
1257.919	2110.375
1261.195	2161.04167
1264.468	2196.375
1267.74	2228.375
1271.008	2242.375
1274.275	2205.375
1277.538	2186.70833
1280.8	2200.70833
1284.059	2184.04167
1287.315	2216.04167
1290.569	2222.70833
1293.821	2237.04167
1297.07	2266.70833
1300.317	2256.04167
1303.562	2276.04167
1306.803	2236.70833
1310.043	2261.70833
1313.28	2207.375
1316.515	2195.04167
1319.747	2199.375
1322.977	2157.70833
1326.204	2160.70833
1329.429	2090.375
1332.652	2078.70833
1335.872	2073.70833
1339.09	2051.375
1342.306	2025.04167
1345.519	2018.70833
1348.729	1986.375
1351.938	1995.04167
1355.144	1971.375
1358.347	1934.70833
1361.548	1953.70833
1364.747	1937.70833
1367.944	1893.04167
1371.138	1938.70833
1374.329	1929.375
1377.518	1944.04167
1380.705	1976.04167
1383.89	1956.04167
1387.072	1901.375
1390.252	1820.375
1393.429	1770.70833
1396.605	1719.70833
1399.777	1661.375
1402.948	1648.04167
1406.116	1629.375
1409.282	1630.04167
1412.445	1614.70833
1415.606	1648.04167
1418.765	1659.70833
1421.921	1694.375
1425.075	1730.70833
1428.227	1779.04167
1431.376	1860.04167
1434.524	1937.70833
1437.668	1987.70833
1440.811	2015.70833
1443.951	2039.375
1447.089	2022.70833
1450.224	2012.70833
1453.357	2004.04167
1456.488	1992.375
1459.617	1951.375
1462.743	1921.375
1465.867	1886.04167
1468.989	1849.04167
1472.108	1821.375
1475.225	1776.04167
1478.34	1771.375
1481.453	1768.70833
1484.563	1758.04167
1487.671	1804.04167
1490.776	1801.04167
1493.88	1841.04167
1496.981	1869.70833
1500.08	1905.70833
1503.176	1923.04167
1506.271	1931.70833
1509.363	1973.375
1512.452	1981.375
1515.54	2000.04167
1518.625	2026.04167
1521.708	2068.375
1524.789	2118.375
1527.867	2175.70833
1530.944	2322.04167
1534.018	2415.04167
1537.089	2487.70833
1540.159	2497.375
1543.226	2521.04167
1546.291	2471.04167
1549.354	2422.70833
1552.415	2395.375
1555.473	2332.70833
1558.529	2278.70833
1561.583	2274.375
1564.634	2256.70833
1567.684	2256.04167
1570.731	2269.70833
1573.776	2302.375
1576.819	2344.375
1579.859	2357.04167
1582.898	2397.70833
1585.934	2423.04167
1588.968	2435.04167
1591.999	2434.04167
1595.029	2443.375
1598.056	2475.375
1601.081	2490.70833
1604.104	2461.70833
1607.125	2457.375
1610.144	2412.04167
1613.16	2328.375
1616.174	2273.70833
1619.186	2252.70833
1622.196	2172.375
1625.203	2125.375
1628.209	2100.04167
1631.212	2041.04167
1634.213	2039.375
1637.212	2022.375
1640.209	2008.70833
1643.203	1948.375
1646.196	1900.70833
1649.186	1839.70833
1652.174	1801.70833
1655.16	1736.70833
1658.144	1701.04167
1661.125	1621.70833
1664.105	1562.375
1667.082	1480.70833
1670.057	1406.04167
1673.03	1322.375
1676.001	1257.70833
1678.97	1185.04167
1681.937	1135.04167
1684.901	1053.70833
1687.863	1032.375
1690.824	984.04167
1693.782	989.04167
1696.738	924.04167
1699.692	914.70833
1702.643	884.04167
1705.593	883.04167
1708.54	876.04167
1711.486	873.375
1714.429	849.70833
1717.37	848.04167
1720.309	828.70833
1723.246	844.70833
1726.181	817.70833
1729.113	812.375
1732.044	816.04167
1734.972	800.70833
1737.899	815.70833
1740.823	808.375
1743.745	818.04167
1746.665	776.375
1749.583	765.70833
1752.499	754.70833
1755.413	744.375
1758.325	736.04167
1761.235	733.375
1764.142	716.04167
1767.048	715.375
1769.951	709.375
1772.852	706.375
1775.752	717.04167
1778.649	707.04167
1781.544	707.70833
1784.437	688.375
1787.328	702.70833
1790.217	695.70833
1793.104	669.70833
1795.989	676.375
1798.872	668.375
1801.753	695.70833
1804.631	685.04167
1807.508	688.70833
1810.383	684.375
1813.255	677.375
1816.126	683.04167
1818.994	675.04167
1821.861	678.04167
1824.725	665.375
1827.587	667.70833
1830.448	677.70833
1833.306	655.04167
1836.162	654.04167
1839.017	667.04167
1841.869	658.375
1844.719	663.04167
1847.567	636.375
1850.414	636.375
1853.258	635.375
1856.1	652.375
1858.94	661.375
1861.778	661.375
1864.614	646.70833
1867.448	669.375
1870.28	641.375
1873.111	682.70833
1875.939	655.70833
1878.765	672.70833
1881.589	656.375
1884.411	656.04167
1887.231	655.04167
1890.049	657.70833
1892.865	666.375
1895.68	649.04167
1898.492	661.04167
1901.302	651.70833
1904.11	645.375
1906.916	635.70833
1909.721	636.04167
1912.523	654.04167
1915.323	626.375
1918.122	645.04167
1920.918	651.04167
1923.712	634.70833
1926.505	642.70833
1929.295	635.70833
1932.084	647.375
1934.87	640.375
1937.655	640.70833
1940.438	633.70833
1943.218	642.375
1945.997	655.04167
1948.774	660.70833
1951.549	653.375
1954.322	642.70833
1957.093	643.375
1959.862	639.375
1962.629	641.04167
1965.394	635.04167
1968.157	633.70833
1970.918	633.70833
1973.678	624.04167
1976.435	650.375
1979.19	642.04167
1981.944	635.70833
1984.696	628.70833
1987.445	620.04167
1990.193	636.375
1992.939	656.375
1995.683	642.375
1998.425	619.70833
2001.165	658.375
2003.903	634.70833
2006.639	636.375
2009.374	640.375
2012.106	639.375
2014.837	630.04167
2017.566	643.375
2020.292	655.04167
2023.017	649.70833
2025.74	641.375
2028.461	638.375
2031.18	637.70833
2033.898	634.375
2036.613	645.04167
2039.327	656.70833
2042.038	634.04167
2044.748	641.375
2047.456	653.04167
2050.162	643.375
2052.866	635.70833
2055.568	662.04167
2058.268	640.04167
2060.967	661.04167
2063.663	643.70833
2066.358	648.70833
2069.051	643.375
2071.742	649.70833
2074.431	662.04167
2077.118	643.70833
2079.804	646.70833
2082.487	653.375
2085.169	664.70833
2087.849	676.375
2090.527	651.70833
2093.203	665.04167
2095.877	677.375
2098.55	677.04167
2101.22	684.70833
2103.889	691.70833
2106.556	693.70833
2109.221	699.70833
2111.884	707.375
2114.546	729.375
2117.205	761.70833
2119.863	803.04167
2122.519	810.04167
2125.173	849.70833
2127.825	889.04167
2130.475	888.04167
2133.124	871.70833
2135.771	835.375
2138.416	829.70833
2141.059	805.70833
2143.7	773.375
2146.339	764.375
2148.977	737.375
2151.613	726.70833
2154.247	721.04167
2156.879	725.375
2159.51	707.375
2162.138	706.375
2164.765	702.04167
2167.39	698.375
2170.013	724.375
2172.634	710.375
2175.254	702.70833
2177.872	726.04167
2180.488	696.70833
2183.102	701.04167
2185.714	694.04167
2188.325	680.70833
2190.934	696.375
2193.541	696.375
2196.146	693.375
2198.75	696.70833
2201.351	698.70833
2203.951	681.04167
2206.549	705.70833
2209.146	696.70833
2211.74	706.375
2214.333	694.375
2216.924	689.04167
2219.514	696.04167
2222.101	685.04167
2224.687	716.70833
2227.271	701.04167
2229.853	692.04167
2232.433	692.04167
2235.012	715.70833
2237.589	695.04167
2240.164	726.375
2242.738	714.04167
2245.309	706.70833
2247.879	714.70833
2250.448	727.04167
2253.014	703.04167
2255.579	693.70833
2258.142	714.375
2260.703	705.04167
2263.262	705.04167
2265.82	692.70833
2268.376	706.04167
2270.93	699.70833
2273.483	692.04167
2276.033	714.04167
2278.583	710.70833
2281.13	709.04167
2283.675	697.70833
2286.219	707.70833
2288.761	721.375
2291.302	715.04167
2293.841	742.04167
2296.377	705.04167
2298.913	722.375
2301.446	737.375
2303.978	733.04167
2306.508	733.70833
2309.037	734.70833
2311.563	741.04167
2314.088	735.375
2316.612	733.375
2319.133	736.04167
2321.653	739.375
2324.171	737.375
2326.688	745.04167
2329.202	740.04167
2331.715	742.375
2334.227	749.04167
2336.736	762.375
2339.244	756.375
2341.751	741.70833
2344.255	767.04167
2346.758	751.375
2349.259	742.04167
2351.759	757.375
2354.257	763.375
2356.753	755.04167
2359.247	760.70833
2361.74	766.70833
2364.231	777.375
2366.721	789.70833
2369.209	760.375
2371.695	772.04167
2374.179	775.04167
2376.662	771.04167
2379.143	793.375
2381.622	782.04167
2384.1	806.375
2386.576	791.04167
2389.051	807.70833
2391.524	804.04167
2393.995	816.04167
2396.464	801.375
2398.932	813.375
2401.398	811.375
2403.863	817.70833
2406.325	815.04167
2408.787	807.70833
2411.246	829.70833
2413.704	821.70833
2416.16	812.375
2418.615	817.04167
2421.068	836.375
2423.519	845.375
2425.969	833.375
2428.417	847.70833
2430.863	858.375
2433.308	865.375
2435.751	850.375
2438.193	839.70833
2440.633	862.375
2443.071	862.70833
2445.508	843.70833
2447.943	865.04167
2450.376	866.375
2452.808	870.04167
2455.238	869.70833
2457.667	903.375
2460.093	886.70833
2462.519	872.70833
2464.942	893.375
2467.365	893.375
2469.785	897.70833
2472.204	894.04167
2474.621	891.04167
2477.037	915.04167
2479.451	886.375
2481.863	893.70833
2484.274	898.04167
2486.683	912.375
2489.091	920.375
2491.497	910.04167
2493.901	922.375
2496.304	912.70833
2498.705	944.04167
2501.105	924.70833
2503.503	964.375
2505.899	921.375
2508.294	952.375
2510.687	934.70833
2513.079	939.70833
2515.469	924.70833
2517.858	947.04167
2520.245	953.70833
2522.63	953.375
2525.014	951.04167
2527.396	939.375
2529.776	940.375
2532.156	972.04167
2534.533	959.70833
2536.909	969.04167
2539.283	954.04167
2541.656	971.375
2544.027	994.04167
2546.397	985.70833
2548.765	972.375
2551.131	999.04167
2553.496	996.70833
2555.86	995.375
2558.221	1003.70833
2560.582	995.70833
2562.94	997.375
2565.298	1004.70833
2567.653	1028.04167
2570.007	1007.70833
2572.36	1020.375
2574.711	1011.70833
2577.06	1036.375
2579.408	1040.375
2581.754	1029.375
2584.099	1039.375
2586.442	1041.04167
2588.784	1055.375
2591.124	1046.375
2593.463	1055.375
2595.8	1066.04167
2598.135	1041.375
2600.469	1058.04167
2602.802	1075.04167
2605.133	1073.375
2607.462	1056.04167
2609.79	1060.375
2612.116	1076.04167
2614.441	1085.375
2616.764	1078.04167
2619.086	1076.375
2621.406	1091.04167
2623.725	1110.375
2626.042	1116.375
2628.358	1088.04167
2630.672	1110.04167
2632.985	1119.70833
2635.296	1125.04167
2637.606	1118.375
2639.914	1113.04167
2642.22	1139.375
2644.525	1134.375
2646.829	1151.04167
2649.131	1174.04167
2651.432	1174.04167
2653.731	1165.04167
2656.028	1187.04167
2658.324	1185.375
2660.619	1177.375
2662.912	1199.70833
2665.204	1189.70833
2667.494	1199.70833
2669.782	1184.04167
2672.07	1205.04167
2674.355	1201.70833
2676.639	1192.04167
2678.922	1202.375
2681.203	1200.375
2683.483	1189.375
2685.761	1196.04167
2688.038	1217.375
2690.313	1227.70833
2692.587	1220.04167
2694.859	1206.70833
2697.13	1235.70833
2699.399	1238.70833
2701.667	1254.375
2703.933	1241.375
2706.198	1256.70833
2708.461	1273.70833
2710.723	1275.375
2712.984	1264.375
2715.243	1261.04167
2717.5	1260.375
2719.757	1315.375
2722.011	1298.04167
2724.264	1303.70833
2726.516	1312.375
2728.766	1300.70833
2731.015	1320.70833
2733.262	1317.70833
2735.508	1342.375
2737.753	1327.70833
2739.996	1333.70833
2742.237	1317.04167
2744.477	1326.70833
2746.716	1331.04167
2748.953	1334.04167
2751.189	1329.04167
2753.423	1316.375
2755.656	1309.70833
2757.887	1315.375
2760.117	1310.70833
2762.346	1317.70833
2764.573	1308.375
2766.798	1331.70833
2769.022	1337.04167
2771.245	1338.70833
2773.467	1331.04167
2775.686	1352.70833
2777.905	1362.70833
2780.122	1368.04167
2782.337	1373.70833
2784.552	1372.375
2786.764	1365.04167
2788.976	1382.375
2791.186	1398.70833
2793.394	1403.375
2795.601	1395.70833
2797.807	1422.375
2800.011	1429.70833
2802.214	1437.375
2804.415	1442.375
2806.615	1424.375
2808.814	1436.04167
2811.011	1431.04167
2813.206	1434.04167
2815.401	1447.70833
2817.594	1461.04167
2819.785	1464.375
2821.975	1443.04167
2824.164	1448.04167
2826.351	1474.04167
2828.537	1465.70833
2830.722	1492.375
2832.905	1494.375
2835.086	1521.375
2837.267	1523.04167
2839.445	1548.70833
2841.623	1542.70833
2843.799	1553.375
2845.974	1592.375
2848.147	1618.70833
2850.319	1626.70833
2852.489	1651.70833
2854.659	1676.04167
2856.826	1666.04167
2858.993	1725.04167
2861.158	1684.70833
2863.321	1697.70833
2865.483	1711.04167
2867.644	1689.70833
2869.804	1697.375
2871.962	1684.70833
2874.118	1671.70833
2876.274	1689.70833
2878.428	1681.375
2880.58	1650.375
2882.731	1654.70833
2884.881	1660.375
2887.03	1651.04167
2889.177	1668.375
2891.322	1690.375
2893.467	1668.70833
2895.61	1688.375
2897.751	1709.70833
2899.892	1696.375
2902.03	1696.70833
2904.168	1733.375
2906.304	1732.04167
2908.439	1756.70833
2910.572	1748.70833
2912.704	1765.375
2914.835	1766.04167
2916.965	1767.04167
2919.093	1777.375
2921.219	1756.04167
2923.345	1774.70833
2925.469	1766.70833
2927.591	1778.375
2929.712	1731.04167
2931.832	1728.04167
2933.951	1705.70833
2936.068	1710.375
2938.184	1687.70833
2940.299	1661.70833
2942.412	1662.70833
2944.524	1629.70833
2946.634	1647.70833
2948.744	1610.04167
2950.851	1647.375
2952.958	1617.04167
2955.063	1621.70833
2957.167	1627.04167
2959.269	1609.04167
2961.371	1649.70833
2963.471	1596.04167
2965.569	1617.70833
2967.666	1592.375
2969.762	1606.70833
2971.857	1594.70833
2973.95	1571.375
2976.042	1553.375
2978.133	1537.375
2980.222	1537.70833
2982.31	1524.70833
2984.396	1473.70833
2986.482	1485.70833
2988.566	1488.375
2990.648	1493.04167
2992.73	1505.375
2994.81	1485.04167
2996.889	1502.375
2998.966	1503.375
3001.042	1525.04167
3003.117	1513.375
3005.191	1507.375
3007.263	1501.375
3009.334	1487.375
3011.403	1485.375
3013.472	1452.70833
3015.539	1452.375
3017.604	1452.04167
3019.669	1422.70833
3021.732	1427.70833
3023.794	1419.375
3025.854	1413.04167
3027.914	1399.375
3029.971	1430.375
3032.028	1419.70833
3034.083	1420.70833
3036.137	1398.375
3038.19	1362.375
3040.242	1331.70833
3042.292	1302.375
3044.341	1285.375
3046.388	1307.375
3048.435	1277.04167
3050.48	1295.375
3052.524	1270.70833
3054.566	1258.375
3056.607	1267.04167
3058.647	1230.70833
3060.686	1196.70833
3062.723	1164.375
3064.759	1124.375
3066.794	0.04167
3068.828	3.70833
3070.86	1.70833
