-0.839	395.83333
3.438	483.5
7.711	146.83333
11.981	59.83333
16.247	44.16667
20.509	52.16667
24.768	43.5
29.024	51.83333
33.276	43.5
37.524	46.16667
41.769	46.16667
46.01	35.16667
50.247	48.5
54.481	58.5
58.712	65.16667
62.939	50.83333
67.162	58.5
71.382	59.83333
75.599	44.5
79.812	59.16667
84.021	77.5
88.227	58.16667
92.429	59.83333
96.628	50.5
100.823	69.5
105.015	74.5
109.204	66.83333
113.388	72.83333
117.57	71.83333
121.748	83.5
125.922	75.83333
130.093	98.16667
134.261	93.5
138.425	89.16667
142.585	134.16667
146.742	122.83333
150.896	153.83333
155.046	186.83333
159.193	281.83333
163.336	480.5
167.476	874.83333
171.613	1587.5
175.746	2664.5
179.875	3952.5
184.002	5195.16667
188.124	6036.5
192.244	6341.5
196.36	6300.5
200.472	6167.83333
204.581	5992.83333
208.687	5915.83333
212.79	5826.83333
216.889	5845.83333
220.984	5901.83333
225.077	5889.16667
229.165	5932.16667
233.251	5889.5
237.333	5910.16667
241.412	5838.5
245.487	5816.83333
249.559	5735.5
253.628	5711.5
257.694	5629.83333
261.756	5626.83333
265.814	5485.16667
269.87	5321.83333
273.922	5156.16667
277.97	5018.83333
282.016	4938.5
286.058	4905.5
290.097	5004.5
294.132	5067.5
298.164	5022.5
302.193	4781.83333
306.219	4487.83333
310.241	4125.16667
314.26	3804.5
318.276	3549.5
322.288	3401.16667
326.297	3212.16667
330.303	3131.16667
334.305	3059.16667
338.305	2995.83333
342.301	2952.83333
346.294	2921.83333
350.283	2915.16667
354.269	2894.16667
358.252	2856.16667
362.232	2865.5
366.209	2853.16667
370.182	2793.5
374.152	2792.83333
378.119	2811.16667
382.083	2766.83333
386.043	2795.83333
390	2751.83333
393.954	2773.83333
397.905	2755.83333
401.852	2782.83333
405.797	2736.83333
409.738	2727.16667
413.676	2766.16667
417.61	2753.16667
421.542	2710.83333
425.47	2678.5
429.396	2663.5
433.318	2657.83333
437.236	2632.5
441.152	2669.83333
445.065	2635.16667
448.974	2616.5
452.88	2561.83333
456.783	2559.5
460.683	2536.5
464.58	2551.16667
468.473	2542.16667
472.364	2560.5
476.251	2551.5
480.135	2595.5
484.016	2614.5
487.894	2631.5
491.769	2646.16667
495.641	2629.16667
499.509	2622.83333
503.375	2623.16667
507.237	2637.5
511.096	2641.5
514.952	2686.5
518.805	2757.16667
522.655	2772.5
526.502	2693.16667
530.346	2654.5
534.187	2647.83333
538.024	2660.16667
541.859	2664.83333
545.69	2686.16667
549.519	2659.5
553.344	2649.16667
557.166	2625.83333
560.985	2562.83333
564.802	2526.83333
568.615	2495.16667
572.425	2447.16667
576.232	2439.83333
580.036	2451.16667
583.836	2450.5
587.634	2462.83333
591.429	2452.83333
595.221	2522.83333
599.01	2557.83333
602.796	2565.83333
606.578	2582.83333
610.358	2600.5
614.135	2569.16667
617.909	2568.16667
621.679	2523.5
625.447	2512.83333
629.212	2489.16667
632.973	2510.5
636.732	2506.5
640.488	2494.5
644.241	2493.5
647.991	2499.16667
651.737	2510.83333
655.481	2497.5
659.222	2474.83333
662.96	2472.5
666.695	2488.83333
670.427	2493.5
674.156	2526.5
677.882	2500.5
681.605	2507.5
685.325	2449.83333
689.043	2468.16667
692.757	2429.16667
696.468	2441.5
700.177	2428.83333
703.882	2415.16667
707.585	2393.83333
711.284	2415.16667
714.981	2412.83333
718.675	2379.16667
722.366	2417.83333
726.054	2395.5
729.739	2396.83333
733.421	2422.5
737.1	2385.83333
740.777	2430.16667
744.45	2433.5
748.121	2452.83333
751.789	2499.5
755.453	2480.16667
759.115	2510.5
762.774	2488.5
766.431	2526.83333
770.084	2560.16667
773.734	2573.83333
777.382	2601.83333
781.027	2642.16667
784.669	2668.16667
788.308	2674.16667
791.944	2672.83333
795.577	2677.16667
799.208	2721.16667
802.835	2710.16667
806.46	2738.5
810.082	2754.16667
813.701	2731.5
817.317	2774.16667
820.931	2750.83333
824.542	2754.5
828.149	2731.5
831.754	2715.16667
835.357	2716.16667
838.956	2716.5
842.553	2703.16667
846.146	2701.83333
849.737	2660.5
853.326	2665.83333
856.911	2647.83333
860.493	2692.16667
864.073	2707.5
867.65	2725.5
871.225	2794.5
874.796	2751.5
878.365	2769.5
881.931	2799.16667
885.494	2815.5
889.054	2807.16667
892.612	2811.5
896.166	2790.83333
899.719	2747.83333
903.268	2736.5
906.814	2727.16667
910.358	2677.16667
913.899	2665.5
917.438	2676.5
920.973	2662.5
924.506	2697.16667
928.036	2741.83333
931.564	2775.5
935.088	2803.5
938.61	2827.16667
942.129	2863.16667
945.646	2928.16667
949.16	2974.83333
952.671	2975.5
956.179	2990.16667
959.685	2969.16667
963.188	2977.83333
966.688	2936.16667
970.185	2830.5
973.68	2789.83333
977.173	2740.83333
980.662	2694.5
984.149	2701.83333
987.633	2678.5
991.114	2731.83333
994.593	2764.5
998.069	2845.5
1001.542	2919.16667
1005.013	2885.83333
1008.481	2743.16667
1011.947	2689.5
1015.409	2675.16667
1018.869	2661.83333
1022.327	2679.16667
1025.782	2649.5
1029.234	2639.5
1032.683	2590.16667
1036.13	2530.83333
1039.574	2429.83333
1043.016	2358.5
1046.455	2327.5
1049.891	2298.83333
1053.325	2322.83333
1056.756	2303.5
1060.184	2336.83333
1063.61	2324.83333
1067.033	2356.5
1070.454	2365.5
1073.872	2382.16667
1077.287	2362.16667
1080.7	2363.16667
1084.11	2360.5
1087.517	2327.16667
1090.922	2291.16667
1094.325	2283.5
1097.724	2274.83333
1101.122	2282.16667
1104.516	2262.5
1107.908	2282.5
1111.298	2321.5
1114.684	2338.5
1118.069	2358.16667
1121.45	2400.5
1124.83	2389.16667
1128.206	2409.5
1131.58	2450.83333
1134.951	2509.16667
1138.32	2590.5
1141.687	2690.83333
1145.05	2752.83333
1148.412	2748.5
1151.77	2750.83333
1155.126	2760.5
1158.48	2711.16667
1161.831	2731.16667
1165.18	2743.83333
1168.525	2799.16667
1171.869	2814.16667
1175.21	2841.5
1178.548	2860.83333
1181.884	2894.5
1185.217	2918.5
1188.548	2982.5
1191.877	3045.5
1195.202	3116.5
1198.526	3192.83333
1201.846	3196.16667
1205.165	3220.16667
1208.48	3149.83333
1211.794	3139.83333
1215.104	3134.16667
1218.413	3122.83333
1221.719	3122.5
1225.022	3082.5
1228.323	3026.83333
1231.621	2977.16667
1234.917	2974.5
1238.21	2973.83333
1241.501	3002.83333
1244.79	2973.5
1248.076	2975.83333
1251.359	3000.16667
1254.64	3055.16667
1257.919	3073.83333
1261.195	3111.5
1264.468	3193.16667
1267.74	3242.16667
1271.008	3225.16667
1274.275	3215.5
1277.538	3183.16667
1280.8	3169.83333
1284.059	3174.83333
1287.315	3198.16667
1290.569	3218.5
1293.821	3260.16667
1297.07	3258.83333
1300.317	3261.5
1303.562	3281.5
1306.803	3240.16667
1310.043	3261.16667
1313.28	3203.16667
1316.515	3164.5
1319.747	3126.5
1322.977	3113.16667
1326.204	3090.83333
1329.429	3018.5
1332.652	3019.83333
1335.872	2995.16667
1339.09	2949.5
1342.306	2948.16667
1345.519	2921.83333
1348.729	2874.83333
1351.938	2871.16667
1355.144	2845.83333
1358.347	2793.16667
1361.548	2761.5
1364.747	2751.16667
1367.944	2713.16667
1371.138	2745.5
1374.329	2739.5
1377.518	2769.5
1380.705	2793.83333
1383.89	2756.5
1387.072	2676.5
1390.252	2592.5
1393.429	2467.83333
1396.605	2424.83333
1399.777	2359.16667
1402.948	2329.16667
1406.116	2319.16667
1409.282	2300.16667
1412.445	2276.16667
1415.606	2329.16667
1418.765	2357.16667
1421.921	2399.83333
1425.075	2460.16667
1428.227	2512.83333
1431.376	2625.16667
1434.524	2716.83333
1437.668	2798.16667
1440.811	2837.83333
1443.951	2872.16667
1447.089	2880.16667
1450.224	2869.5
1453.357	2861.5
1456.488	2832.83333
1459.617	2795.83333
1462.743	2774.16667
1465.867	2700.5
1468.989	2651.83333
1472.108	2620.5
1475.225	2558.16667
1478.34	2553.83333
1481.453	2544.16667
1484.563	2543.83333
1487.671	2587.83333
1490.776	2613.5
1493.88	2658.16667
1496.981	2700.5
1500.08	2751.5
1503.176	2785.5
1506.271	2859.83333
1509.363	2847.5
1512.452	2901.5
1515.54	2925.83333
1518.625	2941.83333
1521.708	3029.5
1524.789	3108.83333
1527.867	3197.5
1530.944	3376.5
1534.018	3495.83333
1537.089	3634.83333
1540.159	3710.5
1543.226	3668.5
1546.291	3585.16667
1549.354	3526.16667
1552.415	3461.5
1555.473	3381.16667
1558.529	3338.16667
1561.583	3281.16667
1564.634	3272.5
1567.684	3282.5
1570.731	3304.83333
1573.776	3347.83333
1576.819	3363.83333
1579.859	3440.83333
1582.898	3477.5
1585.934	3502.83333
1588.968	3506.83333
1591.999	3497.16667
1595.029	3508.16667
1598.056	3506.16667
1601.081	3530.16667
1604.104	3489.5
1607.125	3468.5
1610.144	3416.16667
1613.16	3359.5
1616.174	3260.16667
1619.186	3185.5
1622.196	3098.5
1625.203	3001.5
1628.209	2997.83333
1631.212	2911.83333
1634.213	2887.5
1637.212	2849.16667
1640.209	2820.83333
1643.203	2764.5
1646.196	2667.16667
1649.186	2552.16667
1652.174	2441.16667
1655.16	2363.5
1658.144	2315.83333
1661.125	2196.16667
1664.105	2096.5
1667.082	2026.16667
1670.057	1902.16667
1673.03	1806.5
1676.001	1683.83333
1678.97	1596.83333
1681.937	1500.5
1684.901	1427.16667
1687.863	1383.16667
1690.824	1316.16667
1693.782	1281.83333
1696.738	1240.83333
1699.692	1200.16667
1702.643	1171.16667
1705.593	1166.5
1708.54	1152.16667
1711.486	1138.5
1714.429	1115.83333
1717.37	1102.5
1720.309	1092.5
1723.246	1102.16667
1726.181	1063.5
1729.113	1075.83333
1732.044	1064.5
1734.972	1045.83333
1737.899	1054.83333
1740.823	1046.16667
1743.745	1047.16667
1746.665	997.5
1749.583	990.16667
1752.499	965.5
1755.413	966.5
1758.325	930.16667
1761.235	933.5
1764.142	916.5
1767.048	912.5
1769.951	911.16667
1772.852	910.16667
1775.752	911.16667
1778.649	911.16667
1781.544	892.16667
1784.437	865.5
1787.328	885.83333
1790.217	866.83333
1793.104	860.16667
1795.989	848.5
1798.872	844.83333
1801.753	861.83333
1804.631	846.5
1807.508	849.5
1810.383	837.83333
1813.255	840.5
1816.126	834.5
1818.994	838.5
1821.861	817.5
1824.725	826.5
1827.587	823.5
1830.448	826.83333
1833.306	788.83333
1836.162	802.16667
1839.017	790.5
1841.869	796.83333
1844.719	803.16667
1847.567	780.5
1850.414	765.83333
1853.258	773.83333
1856.1	790.5
1858.94	795.16667
1861.778	777.5
1864.614	780.16667
1867.448	765.16667
1870.28	762.5
1873.111	788.16667
1875.939	767.83333
1878.765	793.16667
1881.589	773.5
1884.411	767.83333
1887.231	773.83333
1890.049	765.83333
1892.865	760.83333
1895.68	758.83333
1898.492	766.83333
1901.302	750.16667
1904.11	741.83333
1906.916	736.16667
1909.721	737.5
1912.523	742.16667
1915.323	729.5
1918.122	726.16667
1920.918	732.83333
1923.712	720.83333
1926.505	734.5
1929.295	708.5
1932.084	728.16667
1934.87	720.16667
1937.655	717.5
1940.438	712.83333
1943.218	719.83333
1945.997	715.16667
1948.774	727.5
1951.549	728.83333
1954.322	717.5
1957.093	710.5
1959.862	699.83333
1962.629	700.83333
1965.394	702.5
1968.157	686.16667
1970.918	688.16667
1973.678	681.83333
1976.435	697.83333
1979.19	684.5
1981.944	675.83333
1984.696	675.5
1987.445	665.16667
1990.193	680.16667
1992.939	684.5
1995.683	680.16667
1998.425	655.83333
2001.165	694.16667
2003.903	665.5
2006.639	664.5
2009.374	676.16667
2012.106	659.83333
2014.837	650.5
2017.566	664.16667
2020.292	669.83333
2023.017	658.16667
2025.74	664.83333
2028.461	649.16667
2031.18	645.16667
2033.898	647.16667
2036.613	642.16667
2039.327	653.16667
2042.038	635.83333
2044.748	627.83333
2047.456	640.5
2050.162	632.5
2052.866	630.16667
2055.568	651.5
2058.268	637.83333
2060.967	648.5
2063.663	611.83333
2066.358	631.83333
2069.051	620.83333
2071.742	621.16667
2074.431	633.83333
2077.118	626.83333
2079.804	612.83333
2082.487	624.83333
2085.169	643.5
2087.849	644.83333
2090.527	624.83333
2093.203	628.16667
2095.877	632.16667
2098.55	640.83333
2101.22	646.5
2103.889	650.5
2106.556	644.5
2109.221	670.83333
2111.884	664.5
2114.546	700.5
2117.205	739.5
2119.863	783.16667
2122.519	803.83333
2125.173	867.83333
2127.825	909.83333
2130.475	909.5
2133.124	885.83333
2135.771	847.5
2138.416	823.83333
2141.059	782.83333
2143.7	758.83333
2146.339	709.5
2148.977	681.83333
2151.613	685.5
2154.247	665.5
2156.879	656.83333
2159.51	635.16667
2162.138	629.83333
2164.765	632.5
2167.39	602.16667
2170.013	637.16667
2172.634	622.83333
2175.254	614.16667
2177.872	638.83333
2180.488	589.5
2183.102	611.16667
2185.714	594.83333
2188.325	582.16667
2190.934	581.16667
2193.541	593.83333
2196.146	584.5
2198.75	568.16667
2201.351	572.83333
2203.951	554.83333
2206.549	570.83333
2209.146	559.83333
2211.74	558.83333
2214.333	565.16667
2216.924	548.83333
2219.514	555.83333
2222.101	551.16667
2224.687	572.16667
2227.271	550.83333
2229.853	542.83333
2232.433	526.5
2235.012	557.16667
2237.589	558.83333
2240.164	563.16667
2242.738	536.16667
2245.309	544.16667
2247.879	546.16667
2250.448	543.16667
2253.014	524.83333
2255.579	519.16667
2258.142	524.5
2260.703	523.83333
2263.262	518.83333
2265.82	508.16667
2268.376	517.5
2270.93	506.16667
2273.483	498.5
2276.033	509.16667
2278.583	501.16667
2281.13	503.83333
2283.675	502.16667
2286.219	502.83333
2288.761	492.16667
2291.302	497.16667
2293.841	508.5
2296.377	483.5
2298.913	496.5
2301.446	505.16667
2303.978	496.83333
2306.508	483.83333
2309.037	499.83333
2311.563	493.5
2314.088	498.5
2316.612	472.83333
2319.133	492.83333
2321.653	487.5
2324.171	474.16667
2326.688	501.16667
2329.202	483.16667
2331.715	484.16667
2334.227	489.16667
2336.736	486.83333
2339.244	489.16667
2341.751	470.16667
2344.255	484.16667
2346.758	479.5
2349.259	467.16667
2351.759	475.83333
2354.257	471.5
2356.753	458.5
2359.247	477.5
2361.74	474.16667
2364.231	481.83333
2366.721	484.83333
2369.209	466.5
2371.695	475.5
2374.179	471.83333
2376.662	457.83333
2379.143	482.16667
2381.622	456.16667
2384.1	477.83333
2386.576	470.16667
2389.051	483.83333
2391.524	483.83333
2393.995	470.16667
2396.464	471.83333
2398.932	469.83333
2401.398	473.83333
2403.863	460.83333
2406.325	469.16667
2408.787	474.5
2411.246	474.16667
2413.704	461.16667
2416.16	465.5
2418.615	461.16667
2421.068	473.83333
2423.519	478.83333
2425.969	453.83333
2428.417	464.16667
2430.863	488.16667
2433.308	472.83333
2435.751	477.16667
2438.193	461.5
2440.633	469.5
2443.071	466.16667
2445.508	463.5
2447.943	470.5
2450.376	456.16667
2452.808	467.83333
2455.238	464.83333
2457.667	496.16667
2460.093	462.83333
2462.519	457.5
2464.942	460.83333
2467.365	464.83333
2469.785	470.5
2472.204	465.5
2474.621	447.83333
2477.037	475.83333
2479.451	457.16667
2481.863	448.83333
2484.274	453.16667
2486.683	461.83333
2489.091	468.5
2491.497	460.83333
2493.901	468.16667
2496.304	460.83333
2498.705	459.83333
2501.105	458.5
2503.503	494.5
2505.899	451.5
2508.294	481.83333
2510.687	459.83333
2513.079	463.83333
2515.469	452.5
2517.858	463.16667
2520.245	467.5
2522.63	460.83333
2525.014	458.83333
2527.396	464.83333
2529.776	445.83333
2532.156	466.16667
2534.533	446.5
2536.909	462.5
2539.283	444.5
2541.656	456.16667
2544.027	474.5
2546.397	466.83333
2548.765	457.5
2551.131	468.83333
2553.496	458.83333
2555.86	472.16667
2558.221	462.16667
2560.582	463.5
2562.94	449.16667
2565.298	463.83333
2567.653	476.83333
2570.007	455.83333
2572.36	464.5
2574.711	454.16667
2577.06	477.5
2579.408	464.16667
2581.754	465.5
2584.099	472.16667
2586.442	467.83333
2588.784	473.5
2591.124	466.16667
2593.463	470.16667
2595.8	470.5
2598.135	454.83333
2600.469	463.5
2602.802	477.16667
2605.133	487.16667
2607.462	466.5
2609.79	466.83333
2612.116	479.5
2614.441	473.5
2616.764	472.5
2619.086	468.83333
2621.406	461.83333
2623.725	491.16667
2626.042	480.16667
2628.358	474.16667
2630.672	475.5
2632.985	483.5
2635.296	482.5
2637.606	479.83333
2639.914	468.16667
2642.22	479.16667
2644.525	477.16667
2646.829	488.83333
2649.131	493.83333
2651.432	496.16667
2653.731	490.83333
2656.028	493.16667
2658.324	501.83333
2660.619	492.5
2662.912	493.5
2665.204	483.16667
2667.494	500.5
2669.782	495.5
2672.07	509.16667
2674.355	503.83333
2676.639	505.5
2678.922	486.83333
2681.203	502.5
2683.483	482.83333
2685.761	490.16667
2688.038	502.5
2690.313	521.16667
2692.587	491.83333
2694.859	493.16667
2697.13	500.83333
2699.399	515.16667
2701.667	517.5
2703.933	523.5
2706.198	521.16667
2708.461	525.5
2710.723	528.16667
2712.984	528.5
2715.243	529.5
2717.5	522.5
2719.757	538.5
2722.011	526.16667
2724.264	542.5
2726.516	549.83333
2728.766	534.5
2731.015	542.5
2733.262	544.5
2735.508	538.83333
2737.753	544.5
2739.996	536.83333
2742.237	528.83333
2744.477	544.16667
2746.716	543.5
2748.953	542.16667
2751.189	542.5
2753.423	524.83333
2755.656	528.83333
2757.887	521.83333
2760.117	532.83333
2762.346	518.16667
2764.573	509.5
2766.798	521.83333
2769.022	526.16667
2771.245	524.83333
2773.467	529.16667
2775.686	536.16667
2777.905	533.16667
2780.122	542.16667
2782.337	558.5
2784.552	551.83333
2786.764	549.83333
2788.976	538.83333
2791.186	556.16667
2793.394	565.83333
2795.601	557.83333
2797.807	569.5
2800.011	575.16667
2802.214	572.83333
2804.415	582.16667
2806.615	586.5
2808.814	593.5
2811.011	585.83333
2813.206	599.5
2815.401	595.5
2817.594	607.16667
2819.785	619.16667
2821.975	602.5
2824.164	602.16667
2826.351	620.5
2828.537	632.5
2830.722	631.5
2832.905	650.5
2835.086	668.83333
2837.267	700.83333
2839.445	719.83333
2841.623	713.16667
2843.799	733.16667
2845.974	773.5
2848.147	800.16667
2850.319	806.5
2852.489	835.5
2854.659	854.5
2856.826	850.16667
2858.993	888.16667
2861.158	870.16667
2863.321	881.16667
2865.483	885.5
2867.644	888.5
2869.804	876.5
2871.962	873.16667
2874.118	870.83333
2876.274	861.5
2878.428	888.16667
2880.58	870.16667
2882.731	857.5
2884.881	862.5
2887.03	866.83333
2889.177	875.5
2891.322	868.5
2893.467	887.5
2895.61	880.5
2897.751	894.5
2899.892	881.16667
2902.03	895.83333
2904.168	905.16667
2906.304	902.16667
2908.439	927.5
2910.572	918.16667
2912.704	925.83333
2914.835	939.16667
2916.965	923.16667
2919.093	946.83333
2921.219	928.83333
2923.345	920.5
2925.469	908.16667
2927.591	913.5
2929.712	869.16667
2931.832	895.16667
2933.951	856.16667
2936.068	864.16667
2938.184	846.16667
2940.299	823.83333
2942.412	810.16667
2944.524	783.5
2946.634	782.83333
2948.744	738.16667
2950.851	767.16667
2952.958	726.16667
2955.063	735.83333
2957.167	720.16667
2959.269	697.83333
2961.371	718.16667
2963.471	686.16667
2965.569	695.5
2967.666	667.5
2969.762	668.16667
2971.857	653.83333
2973.95	644.5
2976.042	641.16667
2978.133	624.5
2980.222	619.83333
2982.31	604.5
2984.396	576.16667
2986.482	596.16667
2988.566	584.16667
2990.648	584.5
2992.73	572.83333
2994.81	566.83333
2996.889	572.83333
2998.966	576.5
3001.042	574.5
3003.117	565.16667
3005.191	565.83333
3007.263	574.5
3009.334	548.16667
3011.403	564.83333
3013.472	551.83333
3015.539	558.5
3017.604	558.16667
3019.669	515.16667
3021.732	530.83333
3023.794	524.83333
3025.854	525.5
3027.914	509.83333
3029.971	528.16667
3032.028	511.83333
3034.083	527.16667
3036.137	516.83333
3038.19	498.5
3040.242	479.83333
3042.292	472.83333
3044.341	477.5
3046.388	485.16667
3048.435	461.83333
3050.48	478.16667
3052.524	471.83333
3054.566	453.16667
3056.607	469.5
3058.647	445.5
3060.686	435.16667
3062.723	425.83333
3064.759	409.83333
3066.794	0.16667
3068.828	3.5
3070.86	2.5
