-0.839	393.45833
3.438	481.79167
7.711	145.79167
11.981	58.45833
16.247	43.79167
20.509	49.125
24.768	41.45833
29.024	52.79167
33.276	41.45833
37.524	53.45833
41.769	43.45833
46.01	32.125
50.247	47.45833
54.481	55.45833
58.712	58.125
62.939	46.125
67.162	60.79167
71.382	57.125
75.599	40.79167
79.812	60.45833
84.021	78.125
88.227	59.125
92.429	54.79167
96.628	51.45833
100.823	66.79167
105.015	74.125
109.204	65.125
113.388	74.125
117.57	71.79167
121.748	81.125
125.922	72.125
130.093	95.125
134.261	90.45833
138.425	92.79167
142.585	132.125
146.742	123.45833
150.896	149.125
155.046	185.45833
159.193	284.45833
163.336	468.79167
167.476	867.79167
171.613	1595.79167
175.746	2661.79167
179.875	3936.125
184.002	5170.79167
188.124	5998.125
192.244	6313.79167
196.36	6243.45833
200.472	6094.45833
204.581	5963.125
208.687	5823.45833
212.79	5797.125
216.889	5743.45833
220.984	5794.45833
225.077	5778.45833
229.165	5846.125
233.251	5851.79167
237.333	5833.45833
241.412	5783.125
245.487	5723.79167
249.559	5638.79167
253.628	5654.45833
257.694	5585.125
261.756	5526.125
265.814	5392.45833
269.87	5244.79167
273.922	5046.45833
277.97	4954.79167
282.016	4848.125
286.058	4867.79167
290.097	4938.79167
294.132	4974.125
298.164	4924.45833
302.193	4708.45833
306.219	4366.125
310.241	4036.45833
314.26	3723.125
318.276	3464.79167
322.288	3317.45833
326.297	3165.45833
330.303	3062.79167
334.305	2977.45833
338.305	2941.125
342.301	2893.125
346.294	2874.125
350.283	2835.79167
354.269	2811.45833
358.252	2799.79167
362.232	2788.125
366.209	2754.125
370.182	2713.45833
374.152	2729.79167
378.119	2717.45833
382.083	2691.79167
386.043	2723.45833
390	2719.79167
393.954	2703.125
397.905	2705.45833
401.852	2683.45833
405.797	2646.79167
409.738	2663.125
413.676	2666.125
417.61	2689.79167
421.542	2641.45833
425.47	2581.79167
429.396	2596.79167
433.318	2567.79167
437.236	2571.79167
441.152	2591.79167
445.065	2539.125
448.974	2547.125
452.88	2505.45833
456.783	2486.79167
460.683	2468.125
464.58	2463.45833
468.473	2449.45833
472.364	2490.125
476.251	2482.79167
480.135	2514.79167
484.016	2546.45833
487.894	2543.125
491.769	2542.45833
495.641	2571.79167
499.509	2555.125
503.375	2567.125
507.237	2546.79167
511.096	2568.125
514.952	2628.79167
518.805	2683.125
522.655	2716.45833
526.502	2619.125
530.346	2582.79167
534.187	2563.79167
538.024	2571.125
541.859	2587.125
545.69	2604.79167
549.519	2595.45833
553.344	2572.125
557.166	2531.79167
560.985	2519.45833
564.802	2449.79167
568.615	2408.45833
572.425	2366.79167
576.232	2374.125
580.036	2360.125
583.836	2368.45833
587.634	2371.79167
591.429	2374.125
595.221	2454.125
599.01	2465.79167
602.796	2489.45833
606.578	2509.45833
610.358	2524.79167
614.135	2487.45833
617.909	2494.125
621.679	2453.125
625.447	2411.79167
629.212	2413.45833
632.973	2434.45833
636.732	2431.45833
640.488	2421.79167
644.241	2399.125
647.991	2399.45833
651.737	2426.125
655.481	2384.45833
659.222	2403.125
662.96	2393.45833
666.695	2408.45833
670.427	2413.45833
674.156	2441.79167
677.882	2415.125
681.605	2427.125
685.325	2392.125
689.043	2404.45833
692.757	2383.79167
696.468	2363.79167
700.177	2379.79167
703.882	2346.79167
707.585	2341.45833
711.284	2353.79167
714.981	2331.125
718.675	2349.45833
722.366	2341.45833
726.054	2329.79167
729.739	2336.45833
733.421	2356.79167
737.1	2325.79167
740.777	2359.79167
744.45	2358.45833
748.121	2370.45833
751.789	2424.45833
755.453	2414.79167
759.115	2438.79167
762.774	2422.79167
766.431	2440.79167
770.084	2474.125
773.734	2488.45833
777.382	2519.125
781.027	2599.79167
784.669	2584.45833
788.308	2610.79167
791.944	2599.45833
795.577	2606.79167
799.208	2636.45833
802.835	2628.125
806.46	2667.125
810.082	2644.79167
813.701	2669.45833
817.317	2688.125
820.931	2685.79167
824.542	2674.125
828.149	2635.79167
831.754	2614.125
835.357	2629.125
838.956	2635.79167
842.553	2633.79167
846.146	2628.125
849.737	2611.125
853.326	2611.45833
856.911	2581.125
860.493	2637.125
864.073	2651.125
867.65	2681.45833
871.225	2711.45833
874.796	2705.45833
878.365	2704.79167
881.931	2744.125
885.494	2745.125
889.054	2745.45833
892.612	2735.125
896.166	2715.79167
899.719	2700.45833
903.268	2652.79167
906.814	2636.125
910.358	2613.79167
913.899	2610.79167
917.438	2599.125
920.973	2577.45833
924.506	2623.45833
928.036	2666.125
931.564	2699.125
935.088	2756.125
938.61	2735.79167
942.129	2810.79167
945.646	2862.45833
949.16	2924.45833
952.671	2954.125
956.179	2957.45833
959.685	2890.79167
963.188	2888.45833
966.688	2872.45833
970.185	2788.45833
973.68	2718.45833
977.173	2687.79167
980.662	2633.79167
984.149	2640.79167
987.633	2608.79167
991.114	2671.45833
994.593	2704.45833
998.069	2772.45833
1001.542	2864.125
1005.013	2832.125
1008.481	2674.79167
1011.947	2641.125
1015.409	2587.45833
1018.869	2588.45833
1022.327	2579.79167
1025.782	2574.45833
1029.234	2565.45833
1032.683	2528.79167
1036.13	2461.45833
1039.574	2368.45833
1043.016	2306.125
1046.455	2268.45833
1049.891	2246.125
1053.325	2256.45833
1056.756	2271.45833
1060.184	2293.45833
1063.61	2297.125
1067.033	2311.79167
1070.454	2328.45833
1073.872	2347.125
1077.287	2314.125
1080.7	2328.45833
1084.11	2325.45833
1087.517	2298.45833
1090.922	2248.45833
1094.325	2243.125
1097.724	2221.125
1101.122	2219.79167
1104.516	2216.45833
1107.908	2217.79167
1111.298	2269.125
1114.684	2290.125
1118.069	2304.125
1121.45	2344.45833
1124.83	2335.125
1128.206	2367.45833
1131.58	2405.79167
1134.951	2450.125
1138.32	2550.45833
1141.687	2625.79167
1145.05	2689.45833
1148.412	2694.125
1151.77	2705.45833
1155.126	2701.45833
1158.48	2680.79167
1161.831	2682.125
1165.18	2696.45833
1168.525	2754.79167
1171.869	2787.79167
1175.21	2787.79167
1178.548	2804.79167
1181.884	2857.45833
1185.217	2874.79167
1188.548	2951.45833
1191.877	3008.79167
1195.202	3100.125
1198.526	3132.125
1201.846	3148.125
1205.165	3121.45833
1208.48	3088.79167
1211.794	3079.45833
1215.104	3070.125
1218.413	3075.125
1221.719	3044.125
1225.022	3003.79167
1228.323	2949.125
1231.621	2943.45833
1234.917	2913.79167
1238.21	2948.45833
1241.501	2914.125
1244.79	2924.45833
1248.076	2910.125
1251.359	2938.45833
1254.64	3015.79167
1257.919	3038.125
1261.195	3064.125
1264.468	3110.45833
1267.74	3169.45833
1271.008	3176.125
1274.275	3150.45833
1277.538	3129.125
1280.8	3122.45833
1284.059	3100.45833
1287.315	3141.79167
1290.569	3170.125
1293.821	3195.125
1297.07	3224.125
1300.317	3215.125
1303.562	3233.79167
1306.803	3210.125
1310.043	3170.45833
1313.28	3129.45833
1316.515	3114.125
1319.747	3091.45833
1322.977	3063.79167
1326.204	3022.125
1329.429	2974.125
1332.652	2963.45833
1335.872	2939.125
1339.09	2886.45833
1342.306	2890.125
1345.519	2856.45833
1348.729	2828.79167
1351.938	2812.125
1355.144	2784.125
1358.347	2712.79167
1361.548	2711.79167
1364.747	2703.45833
1367.944	2675.79167
1371.138	2675.79167
1374.329	2679.45833
1377.518	2710.79167
1380.705	2728.45833
1383.89	2731.125
1387.072	2623.45833
1390.252	2536.45833
1393.429	2435.125
1396.605	2378.79167
1399.777	2308.79167
1402.948	2289.125
1406.116	2285.125
1409.282	2256.125
1412.445	2242.45833
1415.606	2277.79167
1418.765	2296.45833
1421.921	2344.45833
1425.075	2387.125
1428.227	2484.125
1431.376	2602.125
1434.524	2677.125
1437.668	2748.125
1440.811	2784.45833
1443.951	2807.79167
1447.089	2820.79167
1450.224	2822.79167
1453.357	2813.125
1456.488	2768.45833
1459.617	2765.125
1462.743	2702.79167
1465.867	2649.125
1468.989	2620.125
1472.108	2564.79167
1475.225	2521.45833
1478.34	2490.79167
1481.453	2505.125
1484.563	2504.45833
1487.671	2539.45833
1490.776	2576.125
1493.88	2612.125
1496.981	2645.79167
1500.08	2685.125
1503.176	2734.79167
1506.271	2770.79167
1509.363	2827.125
1512.452	2829.45833
1515.54	2838.45833
1518.625	2888.45833
1521.708	2964.45833
1524.789	3058.125
1527.867	3148.79167
1530.944	3314.125
1534.018	3451.79167
1537.089	3587.79167
1540.159	3620.45833
1543.226	3609.45833
1546.291	3547.125
1549.354	3453.45833
1552.415	3399.79167
1555.473	3334.45833
1558.529	3282.79167
1561.583	3230.125
1564.634	3221.79167
1567.684	3223.79167
1570.731	3282.45833
1573.776	3315.45833
1576.819	3363.125
1579.859	3393.45833
1582.898	3451.125
1585.934	3491.45833
1588.968	3481.125
1591.999	3458.125
1595.029	3475.125
1598.056	3501.125
1601.081	3471.45833
1604.104	3484.45833
1607.125	3438.125
1610.144	3368.45833
1613.16	3287.125
1616.174	3203.79167
1619.186	3135.79167
1622.196	3063.45833
1625.203	2959.45833
1628.209	2927.45833
1631.212	2873.45833
1634.213	2827.45833
1637.212	2804.125
1640.209	2770.79167
1643.203	2691.45833
1646.196	2596.45833
1649.186	2504.45833
1652.174	2426.125
1655.16	2325.45833
1658.144	2278.125
1661.125	2181.45833
1664.105	2067.125
1667.082	1982.79167
1670.057	1870.45833
1673.03	1767.45833
1676.001	1658.125
1678.97	1559.45833
1681.937	1482.79167
1684.901	1388.79167
1687.863	1351.125
1690.824	1283.125
1693.782	1256.45833
1696.738	1203.79167
1699.692	1191.125
1702.643	1149.45833
1705.593	1129.45833
1708.54	1127.79167
1711.486	1134.125
1714.429	1091.79167
1717.37	1103.79167
1720.309	1064.125
1723.246	1070.45833
1726.181	1050.125
1729.113	1034.45833
1732.044	1039.125
1734.972	1013.79167
1737.899	1035.125
1740.823	1012.45833
1743.745	1021.79167
1746.665	982.125
1749.583	964.45833
1752.499	949.125
1755.413	943.79167
1758.325	921.125
1761.235	916.125
1764.142	898.45833
1767.048	894.79167
1769.951	889.79167
1772.852	878.79167
1775.752	889.45833
1778.649	883.125
1781.544	884.79167
1784.437	856.125
1787.328	864.125
1790.217	849.79167
1793.104	832.125
1795.989	829.125
1798.872	816.125
1801.753	838.79167
1804.631	819.79167
1807.508	831.125
1810.383	832.45833
1813.255	812.45833
1816.126	828.45833
1818.994	814.45833
1821.861	800.125
1824.725	804.125
1827.587	810.79167
1830.448	796.125
1833.306	782.79167
1836.162	788.45833
1839.017	777.45833
1841.869	781.79167
1844.719	764.79167
1847.567	764.125
1850.414	759.125
1853.258	752.125
1856.1	765.79167
1858.94	772.45833
1861.778	755.45833
1864.614	756.79167
1867.448	748.125
1870.28	740.45833
1873.111	763.79167
1875.939	748.79167
1878.765	781.45833
1881.589	738.125
1884.411	734.125
1887.231	757.79167
1890.049	740.79167
1892.865	760.125
1895.68	738.125
1898.492	754.79167
1901.302	741.125
1904.11	730.45833
1906.916	721.79167
1909.721	715.79167
1912.523	736.79167
1915.323	709.125
1918.122	716.125
1920.918	717.45833
1923.712	714.79167
1926.505	709.125
1929.295	707.45833
1932.084	713.125
1934.87	715.125
1937.655	706.45833
1940.438	693.45833
1943.218	704.45833
1945.997	708.79167
1948.774	722.79167
1951.549	718.125
1954.322	689.79167
1957.093	692.125
1959.862	690.45833
1962.629	690.79167
1965.394	681.125
1968.157	671.79167
1970.918	674.79167
1973.678	670.79167
1976.435	689.125
1979.19	668.125
1981.944	659.125
1984.696	663.79167
1987.445	653.45833
1990.193	663.45833
1992.939	677.79167
1995.683	664.79167
1998.425	631.125
2001.165	663.45833
2003.903	644.45833
2006.639	654.125
2009.374	670.125
2012.106	650.45833
2014.837	633.125
2017.566	658.125
2020.292	656.79167
2023.017	653.45833
2025.74	649.45833
2028.461	642.45833
2031.18	639.79167
2033.898	635.45833
2036.613	637.45833
2039.327	641.79167
2042.038	631.79167
2044.748	622.125
2047.456	631.79167
2050.162	623.45833
2052.866	631.45833
2055.568	644.125
2058.268	612.125
2060.967	634.45833
2063.663	612.45833
2066.358	616.125
2069.051	611.125
2071.742	615.125
2074.431	618.45833
2077.118	612.125
2079.804	606.45833
2082.487	613.45833
2085.169	621.45833
2087.849	631.79167
2090.527	614.79167
2093.203	616.79167
2095.877	621.125
2098.55	626.125
2101.22	629.45833
2103.889	643.125
2106.556	638.125
2109.221	654.79167
2111.884	655.125
2114.546	694.45833
2117.205	721.125
2119.863	775.45833
2122.519	795.79167
2125.173	848.125
2127.825	892.125
2130.475	886.79167
2133.124	861.79167
2135.771	837.45833
2138.416	804.79167
2141.059	768.79167
2143.7	743.79167
2146.339	707.125
2148.977	670.79167
2151.613	667.125
2154.247	647.125
2156.879	640.125
2159.51	631.45833
2162.138	616.125
2164.765	621.79167
2167.39	600.45833
2170.013	616.125
2172.634	613.79167
2175.254	605.45833
2177.872	633.45833
2180.488	585.125
2183.102	602.125
2185.714	590.45833
2188.325	561.125
2190.934	588.45833
2193.541	589.125
2196.146	560.45833
2198.75	557.125
2201.351	559.125
2203.951	555.79167
2206.549	564.125
2209.146	560.45833
2211.74	551.45833
2214.333	549.45833
2216.924	536.45833
2219.514	553.45833
2222.101	547.79167
2224.687	558.125
2227.271	542.79167
2229.853	533.45833
2232.433	530.125
2235.012	548.45833
2237.589	536.79167
2240.164	551.45833
2242.738	537.45833
2245.309	595.79167
2247.879	566.125
2250.448	547.45833
2253.014	523.125
2255.579	497.45833
2258.142	509.79167
2260.703	508.45833
2263.262	514.125
2265.82	505.125
2268.376	514.45833
2270.93	485.45833
2273.483	493.45833
2276.033	498.45833
2278.583	496.45833
2281.13	495.45833
2283.675	485.45833
2286.219	503.45833
2288.761	501.125
2291.302	499.45833
2293.841	497.79167
2296.377	487.125
2298.913	496.125
2301.446	496.79167
2303.978	491.125
2306.508	495.125
2309.037	489.125
2311.563	490.45833
2314.088	487.79167
2316.612	469.79167
2319.133	487.79167
2321.653	482.45833
2324.171	474.45833
2326.688	490.45833
2329.202	474.79167
2331.715	480.45833
2334.227	481.79167
2336.736	483.45833
2339.244	475.45833
2341.751	460.45833
2344.255	482.125
2346.758	474.125
2349.259	462.79167
2351.759	476.125
2354.257	458.125
2356.753	469.79167
2359.247	474.125
2361.74	474.79167
2364.231	471.125
2366.721	476.79167
2369.209	466.125
2371.695	480.125
2374.179	465.45833
2376.662	460.125
2379.143	481.45833
2381.622	465.79167
2384.1	473.45833
2386.576	463.45833
2389.051	489.45833
2391.524	485.79167
2393.995	476.45833
2396.464	467.45833
2398.932	470.125
2401.398	458.79167
2403.863	465.79167
2406.325	456.79167
2408.787	469.79167
2411.246	475.79167
2413.704	460.45833
2416.16	459.45833
2418.615	465.79167
2421.068	477.45833
2423.519	469.45833
2425.969	460.79167
2428.417	470.45833
2430.863	488.79167
2433.308	481.125
2435.751	467.79167
2438.193	461.45833
2440.633	468.125
2443.071	470.79167
2445.508	462.125
2447.943	463.125
2450.376	458.125
2452.808	458.45833
2455.238	457.45833
2457.667	495.79167
2460.093	454.79167
2462.519	457.45833
2464.942	455.125
2467.365	458.125
2469.785	469.125
2472.204	468.125
2474.621	462.79167
2477.037	474.79167
2479.451	441.45833
2481.863	444.79167
2484.274	455.125
2486.683	463.125
2489.091	461.79167
2491.497	457.79167
2493.901	471.125
2496.304	456.79167
2498.705	468.125
2501.105	469.125
2503.503	494.79167
2505.899	453.79167
2508.294	471.125
2510.687	462.125
2513.079	459.45833
2515.469	450.79167
2517.858	470.45833
2520.245	467.45833
2522.63	459.79167
2525.014	457.125
2527.396	443.125
2529.776	451.79167
2532.156	472.45833
2534.533	459.125
2536.909	456.79167
2539.283	434.125
2541.656	452.79167
2544.027	474.125
2546.397	462.45833
2548.765	456.125
2551.131	460.45833
2553.496	465.125
2555.86	466.45833
2558.221	458.125
2560.582	461.79167
2562.94	449.79167
2565.298	456.45833
2567.653	474.45833
2570.007	451.45833
2572.36	474.45833
2574.711	457.125
2577.06	474.45833
2579.408	477.45833
2581.754	461.125
2584.099	467.45833
2586.442	466.79167
2588.784	472.125
2591.124	465.79167
2593.463	464.79167
2595.8	468.45833
2598.135	461.125
2600.469	463.125
2602.802	469.79167
2605.133	478.45833
2607.462	464.79167
2609.79	459.45833
2612.116	476.45833
2614.441	484.45833
2616.764	478.45833
2619.086	466.45833
2621.406	466.79167
2623.725	481.79167
2626.042	480.79167
2628.358	478.79167
2630.672	471.45833
2632.985	490.125
2635.296	480.45833
2637.606	486.125
2639.914	468.125
2642.22	475.45833
2644.525	480.79167
2646.829	487.125
2649.131	502.45833
2651.432	498.125
2653.731	480.79167
2656.028	500.45833
2658.324	502.45833
2660.619	489.45833
2662.912	507.45833
2665.204	485.45833
2667.494	496.79167
2669.782	486.79167
2672.07	502.79167
2674.355	506.79167
2676.639	499.125
2678.922	494.45833
2681.203	503.45833
2683.483	498.45833
2685.761	493.125
2688.038	499.79167
2690.313	517.45833
2692.587	510.125
2694.859	497.125
2697.13	509.79167
2699.399	510.125
2701.667	522.45833
2703.933	517.79167
2706.198	513.79167
2708.461	539.45833
2710.723	528.45833
2712.984	528.125
2715.243	532.125
2717.5	524.125
2719.757	534.125
2722.011	528.45833
2724.264	538.45833
2726.516	548.125
2728.766	541.79167
2731.015	544.79167
2733.262	549.45833
2735.508	540.79167
2737.753	544.79167
2739.996	541.125
2742.237	530.79167
2744.477	550.79167
2746.716	541.79167
2748.953	544.125
2751.189	547.125
2753.423	534.45833
2755.656	522.125
2757.887	526.45833
2760.117	522.79167
2762.346	524.45833
2764.573	516.79167
2766.798	523.45833
2769.022	527.45833
2771.245	529.45833
2773.467	533.125
2775.686	539.45833
2777.905	545.125
2780.122	549.45833
2782.337	545.45833
2784.552	552.45833
2786.764	551.125
2788.976	550.79167
2791.186	553.125
2793.394	567.45833
2795.601	564.125
2797.807	575.125
2800.011	589.79167
2802.214	587.45833
2804.415	587.79167
2806.615	573.45833
2808.814	593.79167
2811.011	589.45833
2813.206	589.79167
2815.401	610.125
2817.594	604.125
2819.785	617.79167
2821.975	613.125
2824.164	611.125
2826.351	631.45833
2828.537	646.79167
2830.722	640.79167
2832.905	644.45833
2835.086	670.79167
2837.267	697.45833
2839.445	710.45833
2841.623	723.79167
2843.799	747.79167
2845.974	771.79167
2848.147	799.79167
2850.319	813.125
2852.489	838.79167
2854.659	847.125
2856.826	867.45833
2858.993	877.125
2861.158	873.79167
2863.321	882.125
2865.483	887.125
2867.644	874.125
2869.804	884.125
2871.962	862.45833
2874.118	882.125
2876.274	883.45833
2878.428	881.79167
2880.58	874.45833
2882.731	860.45833
2884.881	871.45833
2887.03	879.45833
2889.177	876.125
2891.322	883.79167
2893.467	879.79167
2895.61	890.79167
2897.751	887.45833
2899.892	893.45833
2902.03	892.79167
2904.168	909.79167
2906.304	918.79167
2908.439	917.125
2910.572	913.45833
2912.704	931.45833
2914.835	929.79167
2916.965	928.79167
2919.093	944.79167
2921.219	915.79167
2923.345	948.125
2925.469	916.45833
2927.591	920.45833
2929.712	885.79167
2931.832	880.125
2933.951	868.79167
2936.068	861.45833
2938.184	838.125
2940.299	821.79167
2942.412	823.125
2944.524	782.125
2946.634	786.45833
2948.744	745.45833
2950.851	773.125
2952.958	743.45833
2955.063	731.79167
2957.167	739.79167
2959.269	710.45833
2961.371	731.125
2963.471	687.45833
2965.569	684.79167
2967.666	676.125
2969.762	671.79167
2971.857	665.79167
2973.95	644.125
2976.042	645.45833
2978.133	629.79167
2980.222	623.45833
2982.31	598.125
2984.396	595.125
2986.482	583.79167
2988.566	586.45833
2990.648	593.125
2992.73	589.79167
2994.81	577.125
2996.889	577.125
2998.966	575.125
3001.042	587.79167
3003.117	574.79167
3005.191	562.45833
3007.263	575.45833
3009.334	555.79167
3011.403	568.45833
3013.472	551.79167
3015.539	548.45833
3017.604	564.45833
3019.669	515.79167
3021.732	528.125
3023.794	528.79167
3025.854	530.79167
3027.914	525.125
3029.971	531.45833
3032.028	524.125
3034.083	524.125
3036.137	515.79167
3038.19	507.125
3040.242	487.125
3042.292	472.125
3044.341	484.45833
3046.388	487.125
3048.435	462.79167
3050.48	486.125
3052.524	473.79167
3054.566	456.125
3056.607	468.45833
3058.647	449.125
3060.686	441.79167
3062.723	424.79167
3064.759	411.79167
3066.794	-2.875
3068.828	4.45833
3070.86	3.125
