-0.839	452.75
3.438	532.75
7.711	163.75
11.981	58.41667
16.247	49.75
20.509	52.08333
24.768	52.75
29.024	57.41667
33.276	46.08333
37.524	55.41667
41.769	48.41667
46.01	37.08333
50.247	49.41667
54.481	62.08333
58.712	62.41667
62.939	53.75
67.162	66.41667
71.382	57.75
75.599	49.75
79.812	66.41667
84.021	82.08333
88.227	62.08333
92.429	60.75
96.628	59.41667
100.823	74.08333
105.015	78.41667
109.204	71.41667
113.388	79.41667
117.57	83.08333
121.748	92.75
125.922	83.08333
130.093	108.75
134.261	105.75
138.425	108.41667
142.585	145.41667
146.742	144.08333
150.896	176.08333
155.046	214.41667
159.193	341.08333
163.336	584.08333
167.476	1064.41667
171.613	1942.75
175.746	3214.08333
179.875	4814.75
184.002	6306.08333
188.124	7363.75
192.244	7714.08333
196.36	7716.08333
200.472	7571.41667
204.581	7398.08333
208.687	7250.41667
212.79	7233.41667
216.889	7227.41667
220.984	7238.41667
225.077	7321.41667
229.165	7344.41667
233.251	7367.75
237.333	7371.75
241.412	7349.08333
245.487	7238.75
249.559	7154.75
253.628	7151.75
257.694	7084.75
261.756	7019.08333
265.814	6855.08333
269.87	6647.08333
273.922	6424.08333
277.97	6266.41667
282.016	6125.41667
286.058	6123.08333
290.097	6226.75
294.132	6200.41667
298.164	6164.08333
302.193	5925.41667
306.219	5509.41667
310.241	5139.41667
314.26	4764.41667
318.276	4472.41667
322.288	4298.75
326.297	4082.08333
330.303	3985.08333
334.305	3871.08333
338.305	3834.75
342.301	3767.08333
346.294	3742.41667
350.283	3738.75
354.269	3680.08333
358.252	3663.75
362.232	3659.41667
366.209	3634.08333
370.182	3592.41667
374.152	3583.08333
378.119	3581.41667
382.083	3592.41667
386.043	3591.08333
390	3548.75
393.954	3543.41667
397.905	3559.08333
401.852	3543.08333
405.797	3518.75
409.738	3514.08333
413.676	3493.75
417.61	3487.75
421.542	3488.08333
425.47	3444.08333
429.396	3418.75
433.318	3415.08333
437.236	3387.75
441.152	3426.08333
445.065	3347.41667
448.974	3364.41667
452.88	3336.41667
456.783	3308.75
460.683	3279.08333
464.58	3280.75
468.473	3294.41667
472.364	3317.41667
476.251	3300.08333
480.135	3372.08333
484.016	3370.08333
487.894	3388.41667
491.769	3403.08333
495.641	3408.41667
499.509	3406.41667
503.375	3378.08333
507.237	3390.41667
511.096	3351.41667
514.952	3389.75
518.805	3405.41667
522.655	3412.41667
526.502	3413.75
530.346	3393.08333
534.187	3419.75
538.024	3404.75
541.859	3442.41667
545.69	3472.08333
549.519	3452.41667
553.344	3422.41667
557.166	3357.75
560.985	3321.41667
564.802	3268.75
568.615	3237.75
572.425	3179.08333
576.232	3173.41667
580.036	3172.41667
583.836	3147.08333
587.634	3182.75
591.429	3198.75
595.221	3268.08333
599.01	3302.08333
602.796	3339.75
606.578	3333.08333
610.358	3338.75
614.135	3322.75
617.909	3307.75
621.679	3247.08333
625.447	3222.41667
629.212	3244.75
632.973	3253.41667
636.732	3237.08333
640.488	3236.41667
644.241	3211.08333
647.991	3204.41667
651.737	3220.75
655.481	3222.41667
659.222	3220.41667
662.96	3199.08333
666.695	3250.08333
670.427	3250.08333
674.156	3241.75
677.882	3249.41667
681.605	3199.08333
685.325	3180.41667
689.043	3185.75
692.757	3156.41667
696.468	3154.75
700.177	3164.08333
703.882	3120.41667
707.585	3097.08333
711.284	3114.75
714.981	3108.41667
718.675	3112.41667
722.366	3128.41667
726.054	3086.41667
729.739	3087.41667
733.421	3092.08333
737.1	3114.75
740.777	3125.41667
744.45	3139.41667
748.121	3147.75
751.789	3232.41667
755.453	3210.75
759.115	3210.08333
762.774	3238.41667
766.431	3254.08333
770.084	3284.41667
773.734	3308.41667
777.382	3370.75
781.027	3379.08333
784.669	3405.08333
788.308	3419.08333
791.944	3410.41667
795.577	3436.08333
799.208	3437.41667
802.835	3468.75
806.46	3478.41667
810.082	3514.08333
813.701	3514.75
817.317	3533.41667
820.931	3540.75
824.542	3536.75
828.149	3500.75
831.754	3469.08333
835.357	3450.08333
838.956	3486.41667
842.553	3457.08333
846.146	3450.41667
849.737	3420.75
853.326	3418.08333
856.911	3425.08333
860.493	3471.75
864.073	3481.75
867.65	3501.41667
871.225	3552.08333
874.796	3556.08333
878.365	3573.41667
881.931	3579.75
885.494	3611.41667
889.054	3610.08333
892.612	3600.41667
896.166	3564.75
899.719	3539.41667
903.268	3505.75
906.814	3486.75
910.358	3446.08333
913.899	3432.41667
917.438	3433.75
920.973	3410.41667
924.506	3463.41667
928.036	3508.41667
931.564	3543.41667
935.088	3582.75
938.61	3603.75
942.129	3649.75
945.646	3745.08333
949.16	3786.75
952.671	3861.08333
956.179	3846.08333
959.685	3817.08333
963.188	3802.08333
966.688	3753.41667
970.185	3646.75
973.68	3580.08333
977.173	3509.75
980.662	3452.75
984.149	3440.08333
987.633	3439.75
991.114	3502.41667
994.593	3557.75
998.069	3669.08333
1001.542	3728.41667
1005.013	3663.41667
1008.481	3495.75
1011.947	3423.41667
1015.409	3418.75
1018.869	3406.08333
1022.327	3399.08333
1025.782	3363.75
1029.234	3361.75
1032.683	3289.75
1036.13	3214.08333
1039.574	3093.75
1043.016	3021.08333
1046.455	2993.75
1049.891	2933.41667
1053.325	2974.75
1056.756	2969.75
1060.184	2980.75
1063.61	2989.75
1067.033	3006.08333
1070.454	3013.08333
1073.872	3022.08333
1077.287	3028.75
1080.7	3030.41667
1084.11	3003.41667
1087.517	2974.75
1090.922	2954.08333
1094.325	2922.08333
1097.724	2917.75
1101.122	2913.41667
1104.516	2886.75
1107.908	2896.75
1111.298	2962.75
1114.684	2974.75
1118.069	3031.75
1121.45	3046.41667
1124.83	3037.75
1128.206	3067.75
1131.58	3131.75
1134.951	3184.41667
1138.32	3285.08333
1141.687	3417.08333
1145.05	3474.75
1148.412	3497.41667
1151.77	3490.08333
1155.126	3483.75
1158.48	3456.75
1161.831	3505.08333
1165.18	3516.41667
1168.525	3594.75
1171.869	3573.75
1175.21	3621.75
1178.548	3656.08333
1181.884	3686.41667
1185.217	3727.75
1188.548	3819.75
1191.877	3878.08333
1195.202	3992.75
1198.526	4066.08333
1201.846	4074.41667
1205.165	4062.75
1208.48	4033.41667
1211.794	3974.08333
1215.104	3977.08333
1218.413	3987.41667
1221.719	3976.75
1225.022	3907.41667
1228.323	3819.41667
1231.621	3833.08333
1234.917	3804.41667
1238.21	3808.75
1241.501	3781.41667
1244.79	3752.75
1248.076	3756.41667
1251.359	3814.41667
1254.64	3895.08333
1257.919	3920.41667
1261.195	3943.41667
1264.468	4029.41667
1267.74	4105.75
1271.008	4091.08333
1274.275	4068.75
1277.538	4057.08333
1280.8	4045.08333
1284.059	4022.08333
1287.315	4057.08333
1290.569	4090.08333
1293.821	4106.08333
1297.07	4136.75
1300.317	4119.75
1303.562	4107.08333
1306.803	4107.41667
1310.043	4098.41667
1313.28	4034.75
1316.515	4000.75
1319.747	3962.41667
1322.977	3911.08333
1326.204	3892.41667
1329.429	3831.41667
1332.652	3818.41667
1335.872	3804.75
1339.09	3760.41667
1342.306	3738.08333
1345.519	3665.41667
1348.729	3646.08333
1351.938	3639.41667
1355.144	3587.75
1358.347	3537.08333
1361.548	3562.75
1364.747	3520.41667
1367.944	3476.08333
1371.138	3491.75
1374.329	3500.41667
1377.518	3514.75
1380.705	3539.75
1383.89	3520.41667
1387.072	3409.75
1390.252	3278.75
1393.429	3177.41667
1396.605	3064.75
1399.777	3008.08333
1402.948	2960.08333
1406.116	2935.75
1409.282	2910.41667
1412.445	2923.75
1415.606	2957.41667
1418.765	2984.75
1421.921	3025.08333
1425.075	3113.41667
1428.227	3207.08333
1431.376	3331.75
1434.524	3439.75
1437.668	3548.08333
1440.811	3573.08333
1443.951	3620.41667
1447.089	3614.41667
1450.224	3618.75
1453.357	3619.41667
1456.488	3573.08333
1459.617	3530.41667
1462.743	3489.41667
1465.867	3418.75
1468.989	3397.08333
1472.108	3320.41667
1475.225	3286.41667
1478.34	3242.41667
1481.453	3272.08333
1484.563	3273.08333
1487.671	3304.08333
1490.776	3331.41667
1493.88	3424.41667
1496.981	3451.41667
1500.08	3529.41667
1503.176	3571.75
1506.271	3603.41667
1509.363	3666.75
1512.452	3671.08333
1515.54	3736.41667
1518.625	3801.08333
1521.708	3858.41667
1524.789	3989.41667
1527.867	4132.41667
1530.944	4330.08333
1534.018	4479.75
1537.089	4667.75
1540.159	4680.75
1543.226	4669.08333
1546.291	4575.41667
1549.354	4472.41667
1552.415	4421.75
1555.473	4304.08333
1558.529	4255.41667
1561.583	4220.41667
1564.634	4192.75
1567.684	4206.75
1570.731	4248.41667
1573.776	4280.41667
1576.819	4349.08333
1579.859	4402.08333
1582.898	4451.41667
1585.934	4490.08333
1588.968	4524.41667
1591.999	4478.08333
1595.029	4497.08333
1598.056	4504.08333
1601.081	4520.41667
1604.104	4501.08333
1607.125	4471.08333
1610.144	4351.41667
1613.16	4284.08333
1616.174	4159.75
1619.186	4073.41667
1622.196	3959.75
1625.203	3896.41667
1628.209	3819.08333
1631.212	3776.75
1634.213	3722.75
1637.212	3727.41667
1640.209	3655.75
1643.203	3558.41667
1646.196	3440.75
1649.186	3270.75
1652.174	3155.75
1655.16	3055.41667
1658.144	2948.41667
1661.125	2788.08333
1664.105	2683.75
1667.082	2529.08333
1670.057	2414.75
1673.03	2301.41667
1676.001	2145.41667
1678.97	2015.41667
1681.937	1900.75
1684.901	1800.08333
1687.863	1758.08333
1690.824	1679.08333
1693.782	1645.41667
1696.738	1576.75
1699.692	1560.08333
1702.643	1496.41667
1705.593	1496.75
1708.54	1462.41667
1711.486	1471.75
1714.429	1428.41667
1717.37	1410.75
1720.309	1420.08333
1723.246	1394.08333
1726.181	1379.08333
1729.113	1345.08333
1732.044	1339.41667
1734.972	1334.41667
1737.899	1335.75
1740.823	1332.08333
1743.745	1343.41667
1746.665	1271.41667
1749.583	1264.08333
1752.499	1243.08333
1755.413	1222.08333
1758.325	1199.41667
1761.235	1204.08333
1764.142	1187.41667
1767.048	1162.08333
1769.951	1169.41667
1772.852	1164.08333
1775.752	1141.08333
1778.649	1149.41667
1781.544	1146.08333
1784.437	1118.41667
1787.328	1137.08333
1790.217	1093.41667
1793.104	1079.08333
1795.989	1091.75
1798.872	1081.08333
1801.753	1087.75
1804.631	1065.08333
1807.508	1092.75
1810.383	1088.75
1813.255	1089.08333
1816.126	1069.41667
1818.994	1056.08333
1821.861	1059.41667
1824.725	1061.75
1827.587	1064.08333
1830.448	1028.08333
1833.306	1009.41667
1836.162	1028.08333
1839.017	1021.08333
1841.869	1031.41667
1844.719	1025.41667
1847.567	1005.08333
1850.414	990.75
1853.258	994.08333
1856.1	1000.75
1858.94	1021.41667
1861.778	999.41667
1864.614	978.41667
1867.448	1003.41667
1870.28	971.75
1873.111	1011.08333
1875.939	997.41667
1878.765	1007.75
1881.589	974.75
1884.411	972.41667
1887.231	980.41667
1890.049	978.41667
1892.865	975.75
1895.68	948.75
1898.492	976.41667
1901.302	961.41667
1904.11	947.41667
1906.916	925.75
1909.721	937.08333
1912.523	935.08333
1915.323	912.08333
1918.122	917.75
1920.918	925.41667
1923.712	919.41667
1926.505	906.75
1929.295	894.08333
1932.084	918.75
1934.87	906.75
1937.655	917.41667
1940.438	906.75
1943.218	903.08333
1945.997	908.41667
1948.774	909.41667
1951.549	908.41667
1954.322	894.08333
1957.093	892.08333
1959.862	887.08333
1962.629	895.08333
1965.394	891.08333
1968.157	859.75
1970.918	868.08333
1973.678	856.75
1976.435	883.41667
1979.19	862.08333
1981.944	848.41667
1984.696	855.75
1987.445	834.75
1990.193	841.41667
1992.939	871.08333
1995.683	847.08333
1998.425	828.75
2001.165	860.41667
2003.903	828.75
2006.639	836.75
2009.374	848.75
2012.106	827.41667
2014.837	822.08333
2017.566	835.08333
2020.292	841.41667
2023.017	822.75
2025.74	828.08333
2028.461	812.75
2031.18	819.75
2033.898	806.41667
2036.613	807.41667
2039.327	813.75
2042.038	801.75
2044.748	796.08333
2047.456	797.08333
2050.162	781.08333
2052.866	786.08333
2055.568	811.08333
2058.268	784.75
2060.967	796.08333
2063.663	767.08333
2066.358	783.08333
2069.051	773.41667
2071.742	771.41667
2074.431	782.75
2077.118	778.75
2079.804	767.41667
2082.487	773.08333
2085.169	768.75
2087.849	794.08333
2090.527	755.08333
2093.203	776.08333
2095.877	795.75
2098.55	790.75
2101.22	791.41667
2103.889	807.75
2106.556	807.75
2109.221	821.75
2111.884	823.75
2114.546	879.75
2117.205	933.08333
2119.863	1003.08333
2122.519	1037.08333
2125.173	1101.75
2127.825	1157.41667
2130.475	1171.41667
2133.124	1150.75
2135.771	1101.75
2138.416	1047.41667
2141.059	1002.75
2143.7	953.41667
2146.339	914.75
2148.977	863.41667
2151.613	850.75
2154.247	839.75
2156.879	808.41667
2159.51	776.41667
2162.138	769.75
2164.765	769.08333
2167.39	754.75
2170.013	767.75
2172.634	755.41667
2175.254	743.08333
2177.872	766.75
2180.488	716.41667
2183.102	738.75
2185.714	711.75
2188.325	689.75
2190.934	705.08333
2193.541	701.41667
2196.146	694.08333
2198.75	686.75
2201.351	697.75
2203.951	657.75
2206.549	677.75
2209.146	667.75
2211.74	679.08333
2214.333	671.41667
2216.924	642.75
2219.514	652.08333
2222.101	663.08333
2224.687	659.41667
2227.271	643.75
2229.853	638.75
2232.433	636.41667
2235.012	644.08333
2237.589	638.08333
2240.164	636.41667
2242.738	615.75
2245.309	628.41667
2247.879	630.08333
2250.448	626.75
2253.014	602.75
2255.579	593.41667
2258.142	602.41667
2260.703	593.41667
2263.262	593.75
2265.82	596.41667
2268.376	590.41667
2270.93	574.75
2273.483	579.75
2276.033	581.08333
2278.583	571.75
2281.13	564.41667
2283.675	553.08333
2286.219	559.41667
2288.761	574.41667
2291.302	559.41667
2293.841	570.08333
2296.377	549.41667
2298.913	539.75
2301.446	570.08333
2303.978	550.08333
2306.508	545.08333
2309.037	554.08333
2311.563	559.41667
2314.088	551.75
2316.612	520.08333
2319.133	543.08333
2321.653	536.41667
2324.171	531.08333
2326.688	546.41667
2329.202	534.41667
2331.715	527.08333
2334.227	518.08333
2336.736	530.41667
2339.244	523.08333
2341.751	510.75
2344.255	524.41667
2346.758	515.75
2349.259	499.75
2351.759	518.41667
2354.257	497.08333
2356.753	498.41667
2359.247	508.08333
2361.74	508.75
2364.231	500.41667
2366.721	507.75
2369.209	489.08333
2371.695	505.41667
2374.179	490.08333
2376.662	483.41667
2379.143	505.08333
2381.622	482.08333
2384.1	485.75
2386.576	482.08333
2389.051	498.75
2391.524	500.08333
2393.995	496.08333
2396.464	477.75
2398.932	485.41667
2401.398	473.75
2403.863	479.41667
2406.325	477.08333
2408.787	478.41667
2411.246	477.75
2413.704	471.75
2416.16	462.75
2418.615	467.75
2421.068	477.75
2423.519	469.75
2425.969	471.08333
2428.417	461.08333
2430.863	484.41667
2433.308	464.08333
2435.751	474.41667
2438.193	468.41667
2440.633	460.08333
2443.071	467.41667
2445.508	455.75
2447.943	455.08333
2450.376	452.41667
2452.808	444.41667
2455.238	444.41667
2457.667	493.75
2460.093	441.41667
2462.519	442.08333
2464.942	443.41667
2467.365	450.75
2469.785	450.08333
2472.204	448.75
2474.621	433.75
2477.037	460.75
2479.451	428.41667
2481.863	421.41667
2484.274	433.08333
2486.683	439.75
2489.091	440.41667
2491.497	429.08333
2493.901	442.08333
2496.304	425.75
2498.705	444.75
2501.105	432.08333
2503.503	456.75
2505.899	413.75
2508.294	442.41667
2510.687	428.75
2513.079	429.08333
2515.469	414.41667
2517.858	416.41667
2520.245	424.41667
2522.63	412.41667
2525.014	409.75
2527.396	409.41667
2529.776	393.41667
2532.156	421.75
2534.533	401.41667
2536.909	404.08333
2539.283	393.08333
2541.656	405.08333
2544.027	425.75
2546.397	403.08333
2548.765	396.08333
2551.131	398.41667
2553.496	402.41667
2555.86	402.08333
2558.221	404.41667
2560.582	394.75
2562.94	385.41667
2565.298	396.08333
2567.653	408.41667
2570.007	388.41667
2572.36	408.75
2574.711	387.08333
2577.06	409.75
2579.408	407.75
2581.754	395.41667
2584.099	399.08333
2586.442	384.75
2588.784	395.08333
2591.124	396.75
2593.463	397.75
2595.8	398.08333
2598.135	381.75
2600.469	380.41667
2602.802	395.75
2605.133	400.08333
2607.462	379.41667
2609.79	365.75
2612.116	387.75
2614.441	378.08333
2616.764	383.41667
2619.086	382.75
2621.406	374.08333
2623.725	396.41667
2626.042	382.75
2628.358	367.41667
2630.672	374.41667
2632.985	391.75
2635.296	386.41667
2637.606	381.75
2639.914	371.08333
2642.22	375.08333
2644.525	369.41667
2646.829	374.41667
2649.131	394.75
2651.432	387.08333
2653.731	382.08333
2656.028	389.08333
2658.324	383.41667
2660.619	376.75
2662.912	387.75
2665.204	361.08333
2667.494	381.08333
2669.782	375.41667
2672.07	387.75
2674.355	379.08333
2676.639	379.41667
2678.922	364.41667
2681.203	372.41667
2683.483	367.08333
2685.761	365.08333
2688.038	380.08333
2690.313	388.41667
2692.587	374.75
2694.859	371.08333
2697.13	381.08333
2699.399	389.41667
2701.667	388.08333
2703.933	381.75
2706.198	387.75
2708.461	393.08333
2710.723	394.75
2712.984	389.08333
2715.243	400.08333
2717.5	384.75
2719.757	404.08333
2722.011	391.08333
2724.264	402.08333
2726.516	418.08333
2728.766	394.08333
2731.015	411.08333
2733.262	404.08333
2735.508	392.75
2737.753	395.41667
2739.996	389.75
2742.237	383.08333
2744.477	393.75
2746.716	388.41667
2748.953	383.08333
2751.189	384.75
2753.423	376.08333
2755.656	365.08333
2757.887	369.75
2760.117	367.41667
2762.346	363.08333
2764.573	367.41667
2766.798	360.08333
2769.022	364.41667
2771.245	368.75
2773.467	381.08333
2775.686	374.75
2777.905	377.08333
2780.122	378.41667
2782.337	393.41667
2784.552	381.75
2786.764	375.75
2788.976	379.75
2791.186	388.41667
2793.394	392.75
2795.601	401.08333
2797.807	409.41667
2800.011	416.75
2802.214	409.75
2804.415	402.08333
2806.615	414.41667
2808.814	419.75
2811.011	420.41667
2813.206	431.41667
2815.401	446.75
2817.594	450.08333
2819.785	457.08333
2821.975	452.08333
2824.164	449.08333
2826.351	475.08333
2828.537	484.41667
2830.722	494.41667
2832.905	496.41667
2835.086	524.41667
2837.267	552.08333
2839.445	563.41667
2841.623	583.08333
2843.799	611.41667
2845.974	637.41667
2848.147	675.41667
2850.319	696.75
2852.489	726.41667
2854.659	745.08333
2856.826	758.41667
2858.993	766.08333
2861.158	760.75
2863.321	760.08333
2865.483	768.75
2867.644	781.41667
2869.804	769.75
2871.962	770.41667
2874.118	773.08333
2876.274	774.75
2878.428	776.08333
2880.58	769.41667
2882.731	756.41667
2884.881	761.75
2887.03	777.75
2889.177	760.75
2891.322	782.75
2893.467	774.41667
2895.61	782.08333
2897.751	797.75
2899.892	796.08333
2902.03	801.41667
2904.168	801.75
2906.304	792.08333
2908.439	819.08333
2910.572	804.41667
2912.704	822.41667
2914.835	818.41667
2916.965	811.75
2919.093	833.08333
2921.219	810.08333
2923.345	820.08333
2925.469	803.41667
2927.591	807.75
2929.712	765.08333
2931.832	764.08333
2933.951	758.08333
2936.068	737.75
2938.184	706.75
2940.299	691.41667
2942.412	679.41667
2944.524	645.75
2946.634	628.08333
2948.744	584.75
2950.851	596.75
2952.958	558.75
2955.063	565.41667
2957.167	542.08333
2959.269	513.75
2961.371	536.75
2963.471	489.75
2965.569	496.41667
2967.666	464.75
2969.762	464.75
2971.857	450.08333
2973.95	427.41667
2976.042	431.08333
2978.133	411.75
2980.222	401.41667
2982.31	384.41667
2984.396	374.08333
2986.482	370.41667
2988.566	367.08333
2990.648	360.41667
2992.73	358.41667
2994.81	341.08333
2996.889	349.75
2998.966	350.41667
3001.042	337.08333
3003.117	338.41667
3005.191	336.75
3007.263	329.41667
3009.334	314.75
3011.403	323.41667
3013.472	312.75
3015.539	310.41667
3017.604	317.75
3019.669	286.75
3021.732	291.75
3023.794	295.75
3025.854	286.75
3027.914	280.41667
3029.971	292.75
3032.028	286.08333
3034.083	284.41667
3036.137	278.41667
3038.19	268.41667
3040.242	259.08333
3042.292	255.41667
3044.341	264.08333
3046.388	265.08333
3048.435	242.75
3050.48	270.75
3052.524	255.41667
3054.566	244.08333
3056.607	251.75
3058.647	247.75
3060.686	228.75
3062.723	228.41667
3064.759	219.08333
3066.794	-0.25
3068.828	3.75
3070.86	2.08333
