-0.839	373.91667
3.438	436.91667
7.711	139.25
11.981	60.25
16.247	41.91667
20.509	47.91667
24.768	42.58333
29.024	50.91667
33.276	42.58333
37.524	46.25
41.769	41.91667
46.01	29.58333
50.247	43.58333
54.481	56.91667
58.712	58.25
62.939	46.25
67.162	57.91667
71.382	53.91667
75.599	43.58333
79.812	59.91667
84.021	76.58333
88.227	55.58333
92.429	51.58333
96.628	48.91667
100.823	65.58333
105.015	70.58333
109.204	57.91667
113.388	67.58333
117.57	66.91667
121.748	76.91667
125.922	72.25
130.093	87.58333
134.261	85.25
138.425	85.58333
142.585	121.25
146.742	107.58333
150.896	134.91667
155.046	161.91667
159.193	246.91667
163.336	414.58333
167.476	753.58333
171.613	1388.25
175.746	2294.91667
179.875	3379.25
184.002	4404.58333
188.124	5126.91667
192.244	5330.91667
196.36	5223.58333
200.472	5055.91667
204.581	4858.91667
208.687	4693.25
212.79	4633.91667
216.889	4606.25
220.984	4543.58333
225.077	4532.58333
229.165	4501.91667
233.251	4496.25
237.333	4442.58333
241.412	4408.25
245.487	4327.25
249.559	4233.91667
253.628	4212.25
257.694	4175.25
261.756	4083.91667
265.814	3998.91667
269.87	3849.58333
273.922	3728.58333
277.97	3645.91667
282.016	3569.91667
286.058	3560.91667
290.097	3608.91667
294.132	3623.91667
298.164	3579.91667
302.193	3466.91667
306.219	3209.25
310.241	2959.91667
314.26	2754.25
318.276	2575.25
322.288	2461.58333
326.297	2360.58333
330.303	2274.91667
334.305	2230.25
338.305	2186.91667
342.301	2152.91667
346.294	2125.58333
350.283	2117.91667
354.269	2098.58333
358.252	2063.25
362.232	2060.25
366.209	2041.58333
370.182	2032.58333
374.152	2005.58333
378.119	2007.91667
382.083	1989.91667
386.043	2009.25
390	1990.91667
393.954	1985.91667
397.905	2001.91667
401.852	1977.58333
405.797	1948.25
409.738	1971.91667
413.676	1957.91667
417.61	1955.25
421.542	1946.58333
425.47	1916.25
429.396	1914.58333
433.318	1890.25
437.236	1891.25
441.152	1917.91667
445.065	1867.91667
448.974	1863.58333
452.88	1811.58333
456.783	1821.58333
460.683	1797.91667
464.58	1807.58333
468.473	1811.91667
472.364	1814.25
476.251	1806.58333
480.135	1816.25
484.016	1860.25
487.894	1858.91667
491.769	1869.58333
495.641	1855.91667
499.509	1868.91667
503.375	1880.91667
507.237	1893.25
511.096	1978.58333
514.952	2292.25
518.805	2587.58333
522.655	2706.91667
526.502	2307.91667
530.346	1979.58333
534.187	1915.58333
538.024	1911.25
541.859	1907.25
545.69	1910.91667
549.519	1898.91667
553.344	1881.58333
557.166	1849.91667
560.985	1814.25
564.802	1793.25
568.615	1776.25
572.425	1725.25
576.232	1723.91667
580.036	1720.25
583.836	1718.91667
587.634	1730.91667
591.429	1750.25
595.221	1768.58333
599.01	1806.91667
602.796	1810.91667
606.578	1826.91667
610.358	1814.25
614.135	1812.25
617.909	1808.58333
621.679	1773.58333
625.447	1750.25
629.212	1761.25
632.973	1765.25
636.732	1750.25
640.488	1777.58333
644.241	1731.25
647.991	1734.91667
651.737	1751.58333
655.481	1714.58333
659.222	1744.25
662.96	1749.91667
666.695	1760.25
670.427	1745.91667
674.156	1757.91667
677.882	1750.25
681.605	1756.25
685.325	1722.25
689.043	1711.58333
692.757	1702.91667
696.468	1698.91667
700.177	1700.25
703.882	1691.58333
707.585	1681.25
711.284	1701.91667
714.981	1693.58333
718.675	1689.58333
722.366	1694.91667
726.054	1678.91667
729.739	1698.91667
733.421	1690.91667
737.1	1688.58333
740.777	1702.25
744.45	1709.91667
748.121	1724.25
751.789	1765.58333
755.453	1747.25
759.115	1761.25
762.774	1776.91667
766.431	1767.25
770.084	1778.58333
773.734	1810.91667
777.382	1840.58333
781.027	1853.58333
784.669	1853.25
788.308	1864.91667
791.944	1907.25
795.577	1882.25
799.208	1893.25
802.835	1903.25
806.46	1928.58333
810.082	1939.91667
813.701	1936.58333
817.317	1953.91667
820.931	1944.91667
824.542	1923.25
828.149	1918.91667
831.754	1899.91667
835.357	1912.58333
838.956	1912.91667
842.553	1897.91667
846.146	1906.58333
849.737	1870.58333
853.326	1868.91667
856.911	1884.58333
860.493	1899.58333
864.073	1906.58333
867.65	1930.91667
871.225	1960.25
874.796	1953.58333
878.365	1964.91667
881.931	1960.91667
885.494	1969.25
889.054	1971.58333
892.612	1986.25
896.166	1927.58333
899.719	1938.25
903.268	1886.25
906.814	1889.91667
910.358	1864.25
913.899	1867.25
917.438	1854.91667
920.973	1855.25
924.506	1856.25
928.036	1926.91667
931.564	1956.91667
935.088	2021.25
938.61	2010.91667
942.129	2052.25
945.646	2086.58333
949.16	2105.25
952.671	2126.58333
956.179	2139.25
959.685	2126.25
963.188	2116.25
966.688	2114.91667
970.185	2039.58333
973.68	1979.25
977.173	1968.58333
980.662	1896.25
984.149	1934.25
987.633	1899.25
991.114	1949.91667
994.593	1967.91667
998.069	2007.25
1001.542	2083.25
1005.013	2044.91667
1008.481	1924.58333
1011.947	1875.58333
1015.409	1883.91667
1018.869	1884.25
1022.327	1891.91667
1025.782	1856.91667
1029.234	1863.25
1032.683	1841.25
1036.13	1764.25
1039.574	1709.58333
1043.016	1661.91667
1046.455	1640.58333
1049.891	1637.58333
1053.325	1645.25
1056.756	1639.91667
1060.184	1647.25
1063.61	1648.25
1067.033	1651.25
1070.454	1657.58333
1073.872	1710.25
1077.287	1690.58333
1080.7	1684.58333
1084.11	1689.58333
1087.517	1665.91667
1090.922	1643.25
1094.325	1619.91667
1097.724	1607.58333
1101.122	1602.58333
1104.516	1615.58333
1107.908	1601.58333
1111.298	1630.58333
1114.684	1673.58333
1118.069	1683.91667
1121.45	1710.58333
1124.83	1688.58333
1128.206	1709.91667
1131.58	1732.25
1134.951	1782.58333
1138.32	1855.91667
1141.687	1912.91667
1145.05	1942.58333
1148.412	1953.25
1151.77	1943.58333
1155.126	1929.91667
1158.48	1914.91667
1161.831	1906.25
1165.18	1939.25
1168.525	1966.58333
1171.869	1983.58333
1175.21	1982.25
1178.548	2002.58333
1181.884	1999.91667
1185.217	2023.58333
1188.548	2073.58333
1191.877	2104.25
1195.202	2187.25
1198.526	2217.58333
1201.846	2244.91667
1205.165	2233.58333
1208.48	2229.25
1211.794	2221.58333
1215.104	2231.91667
1218.413	2232.91667
1221.719	2258.58333
1225.022	2220.25
1228.323	2143.58333
1231.621	2164.91667
1234.917	2132.25
1238.21	2164.58333
1241.501	2139.91667
1244.79	2110.25
1248.076	2120.25
1251.359	2144.91667
1254.64	2187.58333
1257.919	2220.25
1261.195	2251.91667
1264.468	2281.91667
1267.74	2295.25
1271.008	2328.25
1274.275	2307.58333
1277.538	2285.58333
1280.8	2288.91667
1284.059	2280.58333
1287.315	2308.91667
1290.569	2324.25
1293.821	2319.25
1297.07	2337.58333
1300.317	2370.58333
1303.562	2340.25
1306.803	2357.25
1310.043	2308.91667
1313.28	2293.91667
1316.515	2284.91667
1319.747	2280.58333
1322.977	2265.91667
1326.204	2220.91667
1329.429	2194.91667
1332.652	2182.58333
1335.872	2159.25
1339.09	2141.58333
1342.306	2121.91667
1345.519	2087.25
1348.729	2101.58333
1351.938	2095.25
1355.144	2086.25
1358.347	2042.25
1361.548	2048.91667
1364.747	2026.25
1367.944	2005.25
1371.138	1996.91667
1374.329	2015.25
1377.518	2030.91667
1380.705	2050.58333
1383.89	2030.25
1387.072	1978.25
1390.252	1918.58333
1393.429	1840.58333
1396.605	1782.91667
1399.777	1718.25
1402.948	1709.25
1406.116	1703.25
1409.282	1709.25
1412.445	1684.25
1415.606	1709.58333
1418.765	1716.58333
1421.921	1766.91667
1425.075	1804.91667
1428.227	1853.58333
1431.376	1917.25
1434.524	1993.91667
1437.668	2050.25
1440.811	2081.58333
1443.951	2091.58333
1447.089	2112.25
1450.224	2105.91667
1453.357	2105.25
1456.488	2072.25
1459.617	2037.58333
1462.743	2043.25
1465.867	1954.25
1468.989	1918.58333
1472.108	1914.58333
1475.225	1864.58333
1478.34	1839.58333
1481.453	1830.25
1484.563	1851.25
1487.671	1863.58333
1490.776	1897.25
1493.88	1915.25
1496.981	1952.91667
1500.08	1969.58333
1503.176	1993.91667
1506.271	2019.91667
1509.363	2061.25
1512.452	2061.58333
1515.54	2079.91667
1518.625	2122.58333
1521.708	2165.91667
1524.789	2200.91667
1527.867	2282.25
1530.944	2393.25
1534.018	2490.58333
1537.089	2570.25
1540.159	2600.58333
1543.226	2592.91667
1546.291	2555.58333
1549.354	2503.58333
1552.415	2463.25
1555.473	2413.58333
1558.529	2345.91667
1561.583	2347.58333
1564.634	2313.91667
1567.684	2327.25
1570.731	2339.91667
1573.776	2392.58333
1576.819	2412.91667
1579.859	2445.58333
1582.898	2456.58333
1585.934	2521.91667
1588.968	2518.91667
1591.999	2508.25
1595.029	2515.58333
1598.056	2543.25
1601.081	2545.58333
1604.104	2556.91667
1607.125	2519.25
1610.144	2492.25
1613.16	2417.58333
1616.174	2380.58333
1619.186	2328.58333
1622.196	2266.25
1625.203	2188.58333
1628.209	2153.58333
1631.212	2130.91667
1634.213	2139.91667
1637.212	2150.91667
1640.209	2113.91667
1643.203	2078.25
1646.196	2015.91667
1649.186	1946.25
1652.174	1887.58333
1655.16	1835.91667
1658.144	1774.58333
1661.125	1712.91667
1664.105	1615.58333
1667.082	1551.58333
1670.057	1464.91667
1673.03	1395.25
1676.001	1295.58333
1678.97	1227.91667
1681.937	1154.91667
1684.901	1090.25
1687.863	1061.91667
1690.824	1009.91667
1693.782	1007.25
1696.738	957.25
1699.692	942.58333
1702.643	910.58333
1705.593	911.25
1708.54	907.58333
1711.486	908.91667
1714.429	871.58333
1717.37	872.91667
1720.309	849.91667
1723.246	870.25
1726.181	845.25
1729.113	851.25
1732.044	829.91667
1734.972	826.91667
1737.899	839.25
1740.823	833.25
1743.745	838.91667
1746.665	808.91667
1749.583	790.58333
1752.499	781.25
1755.413	768.25
1758.325	748.25
1761.235	747.91667
1764.142	735.25
1767.048	733.58333
1769.951	728.91667
1772.852	739.25
1775.752	740.91667
1778.649	743.58333
1781.544	739.25
1784.437	717.58333
1787.328	727.91667
1790.217	710.91667
1793.104	700.25
1795.989	700.25
1798.872	698.91667
1801.753	715.91667
1804.631	709.58333
1807.508	721.25
1810.383	714.25
1813.255	700.58333
1816.126	702.91667
1818.994	706.91667
1821.861	687.25
1824.725	708.91667
1827.587	693.25
1830.448	682.58333
1833.306	674.91667
1836.162	683.91667
1839.017	685.58333
1841.869	670.91667
1844.719	668.58333
1847.567	671.91667
1850.414	658.91667
1853.258	671.91667
1856.1	676.25
1858.94	687.25
1861.778	672.58333
1864.614	667.91667
1867.448	667.58333
1870.28	650.91667
1873.111	682.25
1875.939	665.91667
1878.765	688.58333
1881.589	658.25
1884.411	674.25
1887.231	676.25
1890.049	668.58333
1892.865	666.25
1895.68	666.25
1898.492	666.91667
1901.302	661.58333
1904.11	673.25
1906.916	646.91667
1909.721	647.91667
1912.523	665.58333
1915.323	650.25
1918.122	651.58333
1920.918	656.58333
1923.712	643.91667
1926.505	653.25
1929.295	648.58333
1932.084	658.91667
1934.87	653.91667
1937.655	652.91667
1940.438	656.91667
1943.218	652.91667
1945.997	654.91667
1948.774	656.91667
1951.549	663.91667
1954.322	658.58333
1957.093	647.58333
1959.862	653.25
1962.629	647.91667
1965.394	656.91667
1968.157	639.91667
1970.918	653.58333
1973.678	625.58333
1976.435	653.58333
1979.19	635.58333
1981.944	644.91667
1984.696	645.58333
1987.445	630.58333
1990.193	639.91667
1992.939	648.91667
1995.683	651.25
1998.425	631.25
2001.165	661.25
2003.903	641.25
2006.639	645.58333
2009.374	659.58333
2012.106	655.58333
2014.837	638.25
2017.566	643.91667
2020.292	644.25
2023.017	643.25
2025.74	642.25
2028.461	634.25
2031.18	648.58333
2033.898	638.25
2036.613	648.91667
2039.327	646.58333
2042.038	634.58333
2044.748	645.25
2047.456	646.58333
2050.162	629.91667
2052.866	642.25
2055.568	655.58333
2058.268	643.58333
2060.967	643.25
2063.663	636.25
2066.358	645.25
2069.051	655.25
2071.742	645.91667
2074.431	653.25
2077.118	646.58333
2079.804	639.25
2082.487	651.25
2085.169	672.25
2087.849	674.58333
2090.527	653.91667
2093.203	663.91667
2095.877	672.91667
2098.55	672.91667
2101.22	684.58333
2103.889	683.58333
2106.556	693.91667
2109.221	699.91667
2111.884	694.58333
2114.546	725.58333
2117.205	744.58333
2119.863	787.91667
2122.519	797.25
2125.173	842.58333
2127.825	890.91667
2130.475	893.91667
2133.124	858.58333
2135.771	837.25
2138.416	834.58333
2141.059	787.58333
2143.7	776.25
2146.339	745.25
2148.977	716.58333
2151.613	728.25
2154.247	711.91667
2156.879	716.58333
2159.51	696.25
2162.138	687.91667
2164.765	698.25
2167.39	686.91667
2170.013	715.91667
2172.634	694.91667
2175.254	693.91667
2177.872	722.58333
2180.488	692.58333
2183.102	695.25
2185.714	705.25
2188.325	679.91667
2190.934	689.25
2193.541	695.25
2196.146	682.58333
2198.75	681.25
2201.351	683.25
2203.951	673.58333
2206.549	682.91667
2209.146	670.25
2211.74	684.25
2214.333	681.58333
2216.924	668.91667
2219.514	683.91667
2222.101	668.58333
2224.687	695.91667
2227.271	685.58333
2229.853	687.91667
2232.433	676.91667
2235.012	708.91667
2237.589	701.58333
2240.164	705.25
2242.738	685.25
2245.309	685.58333
2247.879	694.91667
2250.448	709.58333
2253.014	685.91667
2255.579	668.25
2258.142	687.91667
2260.703	678.25
2263.262	682.91667
2265.82	688.91667
2268.376	694.91667
2270.93	677.91667
2273.483	680.91667
2276.033	693.25
2278.583	685.58333
2281.13	690.58333
2283.675	677.91667
2286.219	682.91667
2288.761	695.25
2291.302	704.91667
2293.841	702.91667
2296.377	687.25
2298.913	689.91667
2301.446	721.25
2303.978	715.91667
2306.508	695.25
2309.037	707.91667
2311.563	713.58333
2314.088	716.25
2316.612	701.91667
2319.133	707.58333
2321.653	704.25
2324.171	703.91667
2326.688	726.25
2329.202	711.25
2331.715	720.58333
2334.227	709.58333
2336.736	722.58333
2339.244	731.58333
2341.751	722.91667
2344.255	732.25
2346.758	731.91667
2349.259	721.58333
2351.759	738.58333
2354.257	729.25
2356.753	728.91667
2359.247	739.91667
2361.74	745.25
2364.231	742.25
2366.721	743.91667
2369.209	738.58333
2371.695	748.25
2374.179	745.58333
2376.662	740.58333
2379.143	768.91667
2381.622	763.25
2384.1	759.91667
2386.576	752.91667
2389.051	767.91667
2391.524	797.25
2393.995	774.25
2396.464	767.58333
2398.932	774.91667
2401.398	772.91667
2403.863	787.91667
2406.325	776.25
2408.787	787.91667
2411.246	790.91667
2413.704	781.91667
2416.16	781.58333
2418.615	791.25
2421.068	793.25
2423.519	800.58333
2425.969	790.58333
2428.417	803.25
2430.863	820.91667
2433.308	818.58333
2435.751	802.25
2438.193	802.58333
2440.633	822.58333
2443.071	813.91667
2445.508	818.91667
2447.943	816.91667
2450.376	820.25
2452.808	822.91667
2455.238	825.25
2457.667	862.58333
2460.093	839.58333
2462.519	829.91667
2464.942	838.25
2467.365	845.25
2469.785	852.91667
2472.204	847.91667
2474.621	842.25
2477.037	867.25
2479.451	841.91667
2481.863	840.91667
2484.274	854.91667
2486.683	857.25
2489.091	887.25
2491.497	869.91667
2493.901	875.25
2496.304	848.91667
2498.705	888.58333
2501.105	863.25
2503.503	897.25
2505.899	871.58333
2508.294	902.25
2510.687	879.91667
2513.079	900.58333
2515.469	890.91667
2517.858	890.91667
2520.245	908.58333
2522.63	896.25
2525.014	902.91667
2527.396	896.25
2529.776	893.58333
2532.156	925.25
2534.533	906.58333
2536.909	913.25
2539.283	897.25
2541.656	913.58333
2544.027	936.25
2546.397	924.58333
2548.765	925.25
2551.131	928.58333
2553.496	936.25
2555.86	946.91667
2558.221	947.25
2560.582	940.58333
2562.94	929.91667
2565.298	956.25
2567.653	961.91667
2570.007	950.58333
2572.36	966.91667
2574.711	957.58333
2577.06	979.58333
2579.408	988.25
2581.754	985.58333
2584.099	985.91667
2586.442	987.91667
2588.784	978.91667
2591.124	982.25
2593.463	1001.58333
2595.8	996.58333
2598.135	994.91667
2600.469	988.58333
2602.802	1002.91667
2605.133	1017.91667
2607.462	1001.25
2609.79	1003.58333
2612.116	1021.58333
2614.441	1032.91667
2616.764	1032.91667
2619.086	1020.58333
2621.406	1025.58333
2623.725	1046.91667
2626.042	1047.58333
2628.358	1031.25
2630.672	1041.58333
2632.985	1071.91667
2635.296	1062.25
2637.606	1061.58333
2639.914	1046.25
2642.22	1077.25
2644.525	1066.58333
2646.829	1096.25
2649.131	1097.58333
2651.432	1094.58333
2653.731	1099.91667
2656.028	1120.25
2658.324	1119.25
2660.619	1112.91667
2662.912	1121.58333
2665.204	1112.25
2667.494	1137.25
2669.782	1112.25
2672.07	1132.58333
2674.355	1127.25
2676.639	1140.91667
2678.922	1105.91667
2681.203	1124.91667
2683.483	1118.91667
2685.761	1132.91667
2688.038	1153.58333
2690.313	1160.91667
2692.587	1153.91667
2694.859	1149.25
2697.13	1167.91667
2699.399	1170.25
2701.667	1164.25
2703.933	1176.58333
2706.198	1178.58333
2708.461	1191.91667
2710.723	1179.25
2712.984	1193.91667
2715.243	1201.91667
2717.5	1184.58333
2719.757	1220.25
2722.011	1192.58333
2724.264	1235.25
2726.516	1245.25
2728.766	1242.25
2731.015	1243.91667
2733.262	1241.25
2735.508	1249.25
2737.753	1252.25
2739.996	1248.91667
2742.237	1235.25
2744.477	1252.58333
2746.716	1261.91667
2748.953	1246.25
2751.189	1244.25
2753.423	1246.91667
2755.656	1226.91667
2757.887	1224.58333
2760.117	1253.91667
2762.346	1234.25
2764.573	1238.91667
2766.798	1232.25
2769.022	1240.91667
2771.245	1252.25
2773.467	1253.25
2775.686	1267.58333
2777.905	1283.58333
2780.122	1276.25
2782.337	1283.91667
2784.552	1280.58333
2786.764	1285.91667
2788.976	1307.25
2791.186	1300.25
2793.394	1315.91667
2795.601	1332.25
2797.807	1341.58333
2800.011	1319.58333
2802.214	1339.91667
2804.415	1345.58333
2806.615	1342.58333
2808.814	1342.25
2811.011	1355.58333
2813.206	1358.91667
2815.401	1370.91667
2817.594	1382.25
2819.785	1379.25
2821.975	1368.91667
2824.164	1368.25
2826.351	1372.25
2828.537	1398.25
2830.722	1404.91667
2832.905	1404.25
2835.086	1409.25
2837.267	1465.58333
2839.445	1451.58333
2841.623	1445.91667
2843.799	1497.25
2845.974	1511.91667
2848.147	1521.25
2850.319	1543.58333
2852.489	1581.58333
2854.659	1589.25
2856.826	1575.25
2858.993	1621.91667
2861.158	1603.25
2863.321	1611.91667
2865.483	1612.25
2867.644	1606.91667
2869.804	1597.91667
2871.962	1597.25
2874.118	1587.25
2876.274	1599.91667
2878.428	1597.58333
2880.58	1585.25
2882.731	1560.58333
2884.881	1584.91667
2887.03	1580.25
2889.177	1594.25
2891.322	1593.91667
2893.467	1591.91667
2895.61	1600.91667
2897.751	1615.58333
2899.892	1616.58333
2902.03	1639.91667
2904.168	1642.91667
2906.304	1628.25
2908.439	1657.25
2910.572	1654.58333
2912.704	1670.25
2914.835	1673.58333
2916.965	1681.91667
2919.093	1683.58333
2921.219	1668.91667
2923.345	1679.58333
2925.469	1662.25
2927.591	1664.25
2929.712	1634.91667
2931.832	1640.58333
2933.951	1616.58333
2936.068	1618.91667
2938.184	1589.91667
2940.299	1575.91667
2942.412	1578.25
2944.524	1564.25
2946.634	1543.91667
2948.744	1531.25
2950.851	1549.25
2952.958	1521.25
2955.063	1547.25
2957.167	1536.25
2959.269	1525.58333
2961.371	1537.25
2963.471	1505.25
2965.569	1519.58333
2967.666	1501.58333
2969.762	1501.25
2971.857	1487.58333
2973.95	1470.25
2976.042	1468.58333
2978.133	1449.91667
2980.222	1445.25
2982.31	1425.58333
2984.396	1388.91667
2986.482	1399.58333
2988.566	1384.91667
2990.648	1406.58333
2992.73	1401.58333
2994.81	1388.91667
2996.889	1414.25
2998.966	1412.58333
3001.042	1428.58333
3003.117	1398.91667
3005.191	1413.91667
3007.263	1421.91667
3009.334	1392.58333
3011.403	1389.91667
3013.472	1352.25
3015.539	1361.91667
3017.604	1367.91667
3019.669	1319.25
3021.732	1310.25
3023.794	1320.25
3025.854	1319.25
3027.914	1331.25
3029.971	1328.25
3032.028	1321.58333
3034.083	1332.25
3036.137	1318.91667
3038.19	1273.25
3040.242	1261.58333
3042.292	1229.25
3044.341	1218.91667
3046.388	1228.58333
3048.435	1187.91667
3050.48	1213.91667
3052.524	1195.25
3054.566	1174.91667
3056.607	1169.91667
3058.647	1153.25
3060.686	1137.25
3062.723	1096.58333
3064.759	1048.25
3066.794	-1.08333
3068.828	2.91667
3070.86	1.25
