-0.839	509.83333
3.438	610.16667
7.711	186.16667
11.981	65.83333
16.247	50.5
20.509	52.5
24.768	46.83333
29.024	52.16667
33.276	45.83333
37.524	49.83333
41.769	47.83333
46.01	37.83333
50.247	48.5
54.481	61.16667
58.712	61.5
62.939	46.5
67.162	65.16667
71.382	62.16667
75.599	48.16667
79.812	64.83333
84.021	79.5
88.227	63.83333
92.429	61.16667
96.628	57.5
100.823	71.5
105.015	76.16667
109.204	73.16667
113.388	78.16667
117.57	81.16667
121.748	91.5
125.922	82.83333
130.093	101.16667
134.261	101.5
138.425	101.83333
142.585	145.5
146.742	134.5
150.896	172.5
155.046	206.16667
159.193	320.5
163.336	547.83333
167.476	1026.16667
171.613	1837.5
175.746	3061.83333
179.875	4560.16667
184.002	5980.83333
188.124	6932.83333
192.244	7265.16667
196.36	7247.16667
200.472	7040.5
204.581	6869.5
208.687	6684.5
212.79	6662.5
216.889	6622.16667
220.984	6671.83333
225.077	6733.83333
229.165	6715.16667
233.251	6755.5
237.333	6758.16667
241.412	6698.5
245.487	6684.5
249.559	6571.16667
253.628	6552.5
257.694	6505.5
261.756	6429.16667
265.814	6296.83333
269.87	6121.16667
273.922	5926.83333
277.97	5732.83333
282.016	5653.16667
286.058	5588.16667
290.097	5617.16667
294.132	5650.5
298.164	5616.16667
302.193	5445.5
306.219	5115.83333
310.241	4709.5
314.26	4358.5
318.276	4061.5
322.288	3882.5
326.297	3730.16667
330.303	3633.83333
334.305	3551.16667
338.305	3483.5
342.301	3452.16667
346.294	3418.5
350.283	3402.83333
354.269	3360.16667
358.252	3349.16667
362.232	3328.5
366.209	3313.16667
370.182	3281.5
374.152	3269.16667
378.119	3281.83333
382.083	3253.16667
386.043	3295.16667
390	3284.5
393.954	3274.16667
397.905	3259.83333
401.852	3275.16667
405.797	3224.16667
409.738	3233.5
413.676	3247.83333
417.61	3253.83333
421.542	3207.5
425.47	3152.16667
429.396	3160.16667
433.318	3119.83333
437.236	3121.16667
441.152	3130.16667
445.065	3091.83333
448.974	3088.83333
452.88	3047.83333
456.783	3055.16667
460.683	3009.83333
464.58	3023.83333
468.473	3027.16667
472.364	3032.5
476.251	3054.83333
480.135	3073.5
484.016	3106.83333
487.894	3126.16667
491.769	3129.5
495.641	3119.5
499.509	3123.5
503.375	3125.16667
507.237	3116.16667
511.096	3118.16667
514.952	3120.16667
518.805	3105.83333
522.655	3133.83333
526.502	3093.83333
530.346	3106.83333
534.187	3119.16667
538.024	3144.5
541.859	3131.16667
545.69	3189.83333
549.519	3166.83333
553.344	3162.5
557.166	3086.16667
560.985	3054.83333
564.802	3011.83333
568.615	2948.5
572.425	2917.83333
576.232	2912.16667
580.036	2907.5
583.836	2909.16667
587.634	2901.16667
591.429	2903.5
595.221	2996.83333
599.01	3014.16667
602.796	3044.16667
606.578	3056.83333
610.358	3057.83333
614.135	3036.5
617.909	3018.5
621.679	3001.5
625.447	2978.16667
629.212	2961.5
632.973	2966.5
636.732	2950.16667
640.488	2940.83333
644.241	2944.16667
647.991	2948.83333
651.737	2963.83333
655.481	2958.83333
659.222	2977.5
662.96	2943.5
666.695	2955.5
670.427	2977.16667
674.156	2974.5
677.882	2969.83333
681.605	2954.16667
685.325	2929.5
689.043	2924.83333
692.757	2908.83333
696.468	2896.83333
700.177	2897.16667
703.882	2861.16667
707.585	2847.16667
711.284	2848.16667
714.981	2825.83333
718.675	2844.16667
722.366	2844.83333
726.054	2843.5
729.739	2818.16667
733.421	2843.16667
737.1	2830.83333
740.777	2868.5
744.45	2870.83333
748.121	2886.5
751.789	2924.16667
755.453	2912.83333
759.115	2914.16667
762.774	2941.16667
766.431	2980.83333
770.084	3019.83333
773.734	3040.83333
777.382	3107.83333
781.027	3095.16667
784.669	3106.16667
788.308	3115.83333
791.944	3131.5
795.577	3134.16667
799.208	3156.83333
802.835	3172.16667
806.46	3155.83333
810.082	3217.83333
813.701	3230.16667
817.317	3257.16667
820.931	3232.83333
824.542	3233.83333
828.149	3187.16667
831.754	3161.16667
835.357	3122.16667
838.956	3147.5
842.553	3166.5
846.146	3090.16667
849.737	3095.83333
853.326	3106.16667
856.911	3102.5
860.493	3117.5
864.073	3137.16667
867.65	3155.83333
871.225	3214.5
874.796	3184.16667
878.365	3208.16667
881.931	3234.5
885.494	3241.16667
889.054	3237.5
892.612	3232.16667
896.166	3194.16667
899.719	3167.5
903.268	3138.16667
906.814	3134.83333
910.358	3112.5
913.899	3082.5
917.438	3094.5
920.973	3083.16667
924.506	3136.5
928.036	3171.5
931.564	3210.5
935.088	3258.5
938.61	3276.5
942.129	3311.16667
945.646	3350.5
949.16	3414.5
952.671	3458.83333
956.179	3490.83333
959.685	3451.5
963.188	3450.5
966.688	3450.83333
970.185	3346.83333
973.68	3251.16667
977.173	3192.5
980.662	3149.5
984.149	3120.5
987.633	3093.83333
991.114	3152.83333
994.593	3193.83333
998.069	3272.16667
1001.542	3363.5
1005.013	3317.5
1008.481	3150.16667
1011.947	3127.16667
1015.409	3083.83333
1018.869	3085.5
1022.327	3077.16667
1025.782	3070.5
1029.234	3060.5
1032.683	2995.16667
1036.13	2921.16667
1039.574	2822.5
1043.016	2741.5
1046.455	2703.5
1049.891	2676.83333
1053.325	2684.16667
1056.756	2686.5
1060.184	2694.16667
1063.61	2711.5
1067.033	2725.5
1070.454	2716.5
1073.872	2750.16667
1077.287	2751.16667
1080.7	2748.5
1084.11	2719.5
1087.517	2707.16667
1090.922	2662.83333
1094.325	2656.5
1097.724	2606.5
1101.122	2624.16667
1104.516	2615.16667
1107.908	2640.16667
1111.298	2678.16667
1114.684	2682.5
1118.069	2749.16667
1121.45	2753.16667
1124.83	2740.5
1128.206	2773.16667
1131.58	2807.16667
1134.951	2866.5
1138.32	2953.5
1141.687	3067.16667
1145.05	3141.5
1148.412	3145.16667
1151.77	3109.16667
1155.126	3139.83333
1158.48	3100.5
1161.831	3129.5
1165.18	3116.16667
1168.525	3187.16667
1171.869	3205.16667
1175.21	3220.16667
1178.548	3258.83333
1181.884	3311.83333
1185.217	3335.83333
1188.548	3405.83333
1191.877	3477.83333
1195.202	3580.16667
1198.526	3635.5
1201.846	3672.5
1205.165	3632.5
1208.48	3623.16667
1211.794	3620.83333
1215.104	3584.16667
1218.413	3589.16667
1221.719	3561.83333
1225.022	3520.16667
1228.323	3459.83333
1231.621	3428.5
1234.917	3422.5
1238.21	3422.83333
1241.501	3405.16667
1244.79	3398.5
1248.076	3397.16667
1251.359	3443.16667
1254.64	3517.5
1257.919	3526.83333
1261.195	3530.5
1264.468	3643.83333
1267.74	3688.5
1271.008	3703.5
1274.275	3694.16667
1277.538	3654.16667
1280.8	3622.83333
1284.059	3650.16667
1287.315	3662.83333
1290.569	3677.5
1293.821	3710.5
1297.07	3712.83333
1300.317	3716.83333
1303.562	3721.5
1306.803	3673.5
1310.043	3679.83333
1313.28	3631.5
1316.515	3637.16667
1319.747	3622.5
1322.977	3572.5
1326.204	3518.5
1329.429	3507.5
1332.652	3469.83333
1335.872	3442.5
1339.09	3424.16667
1342.306	3398.5
1345.519	3367.83333
1348.729	3288.83333
1351.938	3314.83333
1355.144	3254.16667
1358.347	3212.16667
1361.548	3173.83333
1364.747	3197.16667
1367.944	3149.5
1371.138	3196.5
1374.329	3170.16667
1377.518	3187.5
1380.705	3235.16667
1383.89	3213.83333
1387.072	3119.5
1390.252	3006.5
1393.429	2884.16667
1396.605	2802.16667
1399.777	2720.5
1402.948	2687.83333
1406.116	2649.16667
1409.282	2651.83333
1412.445	2643.83333
1415.606	2678.16667
1418.765	2681.16667
1421.921	2749.16667
1425.075	2805.5
1428.227	2913.83333
1431.376	3025.16667
1434.524	3120.83333
1437.668	3224.83333
1440.811	3248.83333
1443.951	3298.16667
1447.089	3311.16667
1450.224	3295.16667
1453.357	3285.16667
1456.488	3249.83333
1459.617	3196.16667
1462.743	3171.83333
1465.867	3090.5
1468.989	3066.16667
1472.108	3013.5
1475.225	2988.16667
1478.34	2956.5
1481.453	2938.83333
1484.563	2944.16667
1487.671	2963.83333
1490.776	3012.5
1493.88	3061.83333
1496.981	3104.83333
1500.08	3126.5
1503.176	3202.5
1506.271	3258.83333
1509.363	3302.16667
1512.452	3322.16667
1515.54	3370.83333
1518.625	3403.83333
1521.708	3496.5
1524.789	3573.5
1527.867	3728.5
1530.944	3919.83333
1534.018	4042.5
1537.089	4196.83333
1540.159	4214.83333
1543.226	4195.16667
1546.291	4103.5
1549.354	4029.83333
1552.415	3941.16667
1555.473	3866.83333
1558.529	3782.5
1561.583	3761.5
1564.634	3721.5
1567.684	3761.5
1570.731	3766.83333
1573.776	3806.16667
1576.819	3866.16667
1579.859	3923.16667
1582.898	3987.5
1585.934	4024.16667
1588.968	3994.16667
1591.999	4024.83333
1595.029	3998.5
1598.056	4018.83333
1601.081	4026.83333
1604.104	4015.83333
1607.125	4017.16667
1610.144	3900.16667
1613.16	3830.83333
1616.174	3755.16667
1619.186	3692.16667
1622.196	3570.16667
1625.203	3510.5
1628.209	3457.5
1631.212	3435.16667
1634.213	3438.5
1637.212	3442.16667
1640.209	3399.16667
1643.203	3294.16667
1646.196	3189.5
1649.186	3017.16667
1652.174	2916.16667
1655.16	2793.5
1658.144	2705.5
1661.125	2559.5
1664.105	2447.83333
1667.082	2334.16667
1670.057	2239.83333
1673.03	2110.16667
1676.001	1963.83333
1678.97	1844.83333
1681.937	1749.5
1684.901	1644.83333
1687.863	1591.83333
1690.824	1523.16667
1693.782	1497.5
1696.738	1422.83333
1699.692	1408.16667
1702.643	1363.5
1705.593	1356.16667
1708.54	1332.5
1711.486	1328.16667
1714.429	1285.5
1717.37	1313.5
1720.309	1264.16667
1723.246	1269.83333
1726.181	1251.16667
1729.113	1247.83333
1732.044	1231.5
1734.972	1230.5
1737.899	1218.83333
1740.823	1220.83333
1743.745	1220.16667
1746.665	1164.83333
1749.583	1159.16667
1752.499	1139.5
1755.413	1125.5
1758.325	1100.16667
1761.235	1093.5
1764.142	1083.5
1767.048	1079.5
1769.951	1074.83333
1772.852	1059.5
1775.752	1063.5
1778.649	1070.16667
1781.544	1059.83333
1784.437	1024.83333
1787.328	1034.16667
1790.217	1011.83333
1793.104	1001.16667
1795.989	991.16667
1798.872	1002.83333
1801.753	999.16667
1804.631	997.16667
1807.508	1005.83333
1810.383	1003.16667
1813.255	985.5
1816.126	997.83333
1818.994	992.5
1821.861	982.5
1824.725	977.5
1827.587	966.16667
1830.448	955.5
1833.306	929.83333
1836.162	947.16667
1839.017	931.83333
1841.869	926.5
1844.719	932.83333
1847.567	905.83333
1850.414	904.83333
1853.258	917.83333
1856.1	936.83333
1858.94	919.5
1861.778	909.83333
1864.614	910.83333
1867.448	905.83333
1870.28	895.16667
1873.111	932.16667
1875.939	906.16667
1878.765	913.5
1881.589	891.16667
1884.411	881.83333
1887.231	897.83333
1890.049	892.5
1892.865	895.16667
1895.68	872.16667
1898.492	884.83333
1901.302	886.16667
1904.11	861.16667
1906.916	857.83333
1909.721	839.5
1912.523	864.16667
1915.323	838.5
1918.122	843.5
1920.918	854.16667
1923.712	835.5
1926.505	827.83333
1929.295	835.16667
1932.084	838.5
1934.87	841.5
1937.655	823.83333
1940.438	828.16667
1943.218	831.83333
1945.997	829.16667
1948.774	848.16667
1951.549	828.83333
1954.322	811.83333
1957.093	814.83333
1959.862	795.16667
1962.629	801.16667
1965.394	799.83333
1968.157	791.5
1970.918	791.5
1973.678	781.83333
1976.435	798.16667
1979.19	778.16667
1981.944	774.5
1984.696	764.16667
1987.445	759.16667
1990.193	772.5
1992.939	788.83333
1995.683	766.83333
1998.425	753.16667
2001.165	783.83333
2003.903	753.16667
2006.639	757.5
2009.374	775.5
2012.106	762.83333
2014.837	746.16667
2017.566	755.5
2020.292	752.83333
2023.017	760.16667
2025.74	740.83333
2028.461	735.83333
2031.18	740.5
2033.898	733.16667
2036.613	729.16667
2039.327	735.16667
2042.038	715.83333
2044.748	726.83333
2047.456	738.5
2050.162	726.83333
2052.866	727.16667
2055.568	731.16667
2058.268	715.83333
2060.967	724.5
2063.663	697.16667
2066.358	713.5
2069.051	696.83333
2071.742	714.16667
2074.431	705.16667
2077.118	703.83333
2079.804	695.5
2082.487	698.5
2085.169	706.5
2087.849	727.5
2090.527	689.16667
2093.203	698.16667
2095.877	713.83333
2098.55	718.5
2101.22	701.83333
2103.889	719.5
2106.556	706.5
2109.221	728.16667
2111.884	732.83333
2114.546	763.16667
2117.205	793.5
2119.863	846.83333
2122.519	886.83333
2125.173	940.16667
2127.825	982.16667
2130.475	1006.5
2133.124	979.83333
2135.771	953.5
2138.416	928.5
2141.059	862.5
2143.7	841.16667
2146.339	800.5
2148.977	735.16667
2151.613	739.5
2154.247	717.83333
2156.879	707.16667
2159.51	690.5
2162.138	677.83333
2164.765	675.83333
2167.39	655.5
2170.013	680.16667
2172.634	668.83333
2175.254	656.83333
2177.872	684.5
2180.488	648.5
2183.102	641.83333
2185.714	640.16667
2188.325	621.5
2190.934	626.5
2193.541	627.83333
2196.146	621.83333
2198.75	619.5
2201.351	611.83333
2203.951	602.16667
2206.549	608.16667
2209.146	600.5
2211.74	593.16667
2214.333	600.5
2216.924	578.5
2219.514	596.5
2222.101	585.5
2224.687	599.83333
2227.271	579.83333
2229.853	575.83333
2232.433	573.5
2235.012	590.16667
2237.589	580.83333
2240.164	594.16667
2242.738	571.83333
2245.309	555.5
2247.879	574.16667
2250.448	567.83333
2253.014	551.83333
2255.579	519.83333
2258.142	536.5
2260.703	529.16667
2263.262	540.83333
2265.82	533.83333
2268.376	529.5
2270.93	517.16667
2273.483	512.5
2276.033	525.5
2278.583	517.83333
2281.13	515.5
2283.675	505.16667
2286.219	513.83333
2288.761	503.5
2291.302	510.16667
2293.841	515.5
2296.377	494.5
2298.913	496.83333
2301.446	523.16667
2303.978	502.83333
2306.508	488.83333
2309.037	498.5
2311.563	502.16667
2314.088	492.5
2316.612	476.16667
2319.133	482.83333
2321.653	484.16667
2324.171	483.16667
2326.688	499.16667
2329.202	478.16667
2331.715	473.5
2334.227	472.5
2336.736	472.5
2339.244	473.5
2341.751	459.83333
2344.255	477.5
2346.758	472.16667
2349.259	457.5
2351.759	461.83333
2354.257	455.16667
2356.753	460.16667
2359.247	457.83333
2361.74	462.83333
2364.231	457.5
2366.721	466.83333
2369.209	448.83333
2371.695	448.5
2374.179	443.83333
2376.662	435.16667
2379.143	455.5
2381.622	440.83333
2384.1	447.83333
2386.576	434.5
2389.051	454.83333
2391.524	454.5
2393.995	450.5
2396.464	440.83333
2398.932	432.83333
2401.398	433.16667
2403.863	436.5
2406.325	427.16667
2408.787	435.5
2411.246	429.16667
2413.704	429.5
2416.16	424.83333
2418.615	426.16667
2421.068	440.83333
2423.519	432.83333
2425.969	420.16667
2428.417	428.83333
2430.863	441.16667
2433.308	428.16667
2435.751	426.5
2438.193	417.5
2440.633	420.5
2443.071	430.83333
2445.508	415.16667
2447.943	406.83333
2450.376	404.5
2452.808	405.5
2455.238	399.83333
2457.667	444.5
2460.093	405.83333
2462.519	399.16667
2464.942	402.5
2467.365	401.16667
2469.785	412.5
2472.204	394.16667
2474.621	395.5
2477.037	419.16667
2479.451	378.16667
2481.863	388.16667
2484.274	393.5
2486.683	396.16667
2489.091	396.16667
2491.497	393.5
2493.901	394.83333
2496.304	391.83333
2498.705	394.83333
2501.105	386.83333
2503.503	409.16667
2505.899	370.16667
2508.294	395.16667
2510.687	386.5
2513.079	381.83333
2515.469	373.16667
2517.858	379.16667
2520.245	386.83333
2522.63	378.83333
2525.014	367.5
2527.396	370.16667
2529.776	367.5
2532.156	375.16667
2534.533	368.16667
2536.909	364.16667
2539.283	353.16667
2541.656	360.83333
2544.027	375.83333
2546.397	367.16667
2548.765	361.16667
2551.131	364.83333
2553.496	362.5
2555.86	370.5
2558.221	367.5
2560.582	353.5
2562.94	348.16667
2565.298	363.16667
2567.653	372.5
2570.007	344.83333
2572.36	364.16667
2574.711	352.83333
2577.06	366.83333
2579.408	368.5
2581.754	354.5
2584.099	363.5
2586.442	344.83333
2588.784	360.16667
2591.124	347.16667
2593.463	352.5
2595.8	354.83333
2598.135	340.83333
2600.469	344.16667
2602.802	358.83333
2605.133	352.83333
2607.462	345.16667
2609.79	331.83333
2612.116	351.5
2614.441	351.16667
2616.764	340.16667
2619.086	345.5
2621.406	337.16667
2623.725	351.16667
2626.042	346.83333
2628.358	341.16667
2630.672	336.5
2632.985	361.83333
2635.296	352.83333
2637.606	343.83333
2639.914	333.83333
2642.22	338.5
2644.525	335.16667
2646.829	340.16667
2649.131	354.16667
2651.432	357.5
2653.731	334.16667
2656.028	355.5
2658.324	348.5
2660.619	341.16667
2662.912	352.16667
2665.204	332.5
2667.494	342.83333
2669.782	333.5
2672.07	353.5
2674.355	350.16667
2676.639	335.5
2678.922	333.16667
2681.203	334.5
2683.483	334.83333
2685.761	329.5
2688.038	346.16667
2690.313	358.5
2692.587	344.83333
2694.859	335.83333
2697.13	341.83333
2699.399	348.83333
2701.667	355.83333
2703.933	344.83333
2706.198	342.83333
2708.461	359.5
2710.723	358.83333
2712.984	351.5
2715.243	359.5
2717.5	349.83333
2719.757	360.5
2722.011	356.16667
2724.264	367.83333
2726.516	367.16667
2728.766	365.83333
2731.015	371.83333
2733.262	364.83333
2735.508	357.5
2737.753	359.16667
2739.996	346.16667
2742.237	344.16667
2744.477	362.16667
2746.716	358.83333
2748.953	345.16667
2751.189	353.83333
2753.423	340.83333
2755.656	340.5
2757.887	328.83333
2760.117	334.16667
2762.346	326.5
2764.573	324.83333
2766.798	337.16667
2769.022	330.16667
2771.245	341.5
2773.467	335.5
2775.686	336.16667
2777.905	341.83333
2780.122	344.5
2782.337	354.16667
2784.552	338.83333
2786.764	342.83333
2788.976	351.16667
2791.186	339.83333
2793.394	350.16667
2795.601	348.16667
2797.807	370.16667
2800.011	361.16667
2802.214	368.16667
2804.415	357.83333
2806.615	366.16667
2808.814	361.5
2811.011	377.83333
2813.206	378.16667
2815.401	389.83333
2817.594	398.83333
2819.785	408.16667
2821.975	393.83333
2824.164	396.5
2826.351	405.5
2828.537	427.16667
2830.722	435.83333
2832.905	430.16667
2835.086	466.5
2837.267	489.5
2839.445	501.5
2841.623	519.16667
2843.799	541.5
2845.974	581.5
2848.147	604.5
2850.319	622.5
2852.489	661.5
2854.659	665.16667
2856.826	677.16667
2858.993	706.83333
2861.158	694.83333
2863.321	676.83333
2865.483	697.83333
2867.644	705.5
2869.804	693.5
2871.962	710.16667
2874.118	701.5
2876.274	703.5
2878.428	705.16667
2880.58	687.16667
2882.731	688.83333
2884.881	696.16667
2887.03	701.16667
2889.177	703.16667
2891.322	719.16667
2893.467	709.5
2895.61	702.83333
2897.751	726.16667
2899.892	722.16667
2902.03	727.5
2904.168	730.83333
2906.304	729.16667
2908.439	747.5
2910.572	747.16667
2912.704	753.16667
2914.835	759.16667
2916.965	769.5
2919.093	767.83333
2921.219	741.5
2923.345	759.5
2925.469	742.5
2927.591	732.5
2929.712	705.16667
2931.832	710.83333
2933.951	693.16667
2936.068	676.16667
2938.184	669.5
2940.299	645.16667
2942.412	631.5
2944.524	595.5
2946.634	586.16667
2948.744	546.5
2950.851	548.83333
2952.958	520.5
2955.063	507.16667
2957.167	512.83333
2959.269	484.5
2961.371	494.16667
2963.471	456.5
2965.569	459.83333
2967.666	439.83333
2969.762	437.83333
2971.857	425.16667
2973.95	403.83333
2976.042	401.83333
2978.133	384.5
2980.222	382.5
2982.31	376.16667
2984.396	344.83333
2986.482	347.5
2988.566	334.5
2990.648	339.5
2992.73	339.16667
2994.81	317.5
2996.889	331.16667
2998.966	324.83333
3001.042	329.16667
3003.117	319.83333
3005.191	315.16667
3007.263	317.83333
3009.334	302.16667
3011.403	314.5
3013.472	296.83333
3015.539	301.83333
3017.604	310.16667
3019.669	275.83333
3021.732	277.5
3023.794	283.83333
3025.854	273.83333
3027.914	267.83333
3029.971	286.16667
3032.028	268.5
3034.083	268.83333
3036.137	272.5
3038.19	263.16667
3040.242	248.16667
3042.292	252.16667
3044.341	248.83333
3046.388	258.16667
3048.435	239.83333
3050.48	261.16667
3052.524	240.83333
3054.566	237.83333
3056.607	246.83333
3058.647	237.16667
3060.686	225.16667
3062.723	224.5
3064.759	209.5
3066.794	0.5
3068.828	3.83333
3070.86	2.5
