-0.839	452.70833
3.438	532.375
7.711	165.375
11.981	64.375
16.247	46.375
20.509	54.04167
24.768	51.375
29.024	55.70833
33.276	48.04167
37.524	52.70833
41.769	51.70833
46.01	35.375
50.247	46.375
54.481	61.04167
58.712	67.70833
62.939	51.70833
67.162	65.375
71.382	59.04167
75.599	50.04167
79.812	64.70833
84.021	84.375
88.227	63.70833
92.429	63.375
96.628	59.375
100.823	76.70833
105.015	81.04167
109.204	71.375
113.388	74.70833
117.57	80.375
121.748	91.04167
125.922	85.04167
130.093	106.375
134.261	107.375
138.425	103.70833
142.585	145.375
146.742	144.375
150.896	174.04167
155.046	218.375
159.193	346.375
163.336	577.04167
167.476	1068.04167
171.613	1934.04167
175.746	3249.70833
179.875	4838.04167
184.002	6355.04167
188.124	7371.04167
192.244	7749.04167
196.36	7788.70833
200.472	7581.04167
204.581	7449.70833
208.687	7230.70833
212.79	7251.70833
216.889	7280.375
220.984	7343.70833
225.077	7378.04167
229.165	7419.04167
233.251	7478.375
237.333	7466.70833
241.412	7381.70833
245.487	7362.04167
249.559	7282.70833
253.628	7211.04167
257.694	7180.70833
261.756	7110.04167
265.814	6959.375
269.87	6767.70833
273.922	6492.04167
277.97	6340.04167
282.016	6200.70833
286.058	6205.04167
290.097	6283.375
294.132	6282.375
298.164	6222.70833
302.193	5976.70833
306.219	5610.04167
310.241	5176.375
314.26	4834.70833
318.276	4508.375
322.288	4337.04167
326.297	4144.70833
330.303	4060.375
334.305	3947.04167
338.305	3906.375
342.301	3848.04167
346.294	3812.70833
350.283	3769.70833
354.269	3776.70833
358.252	3714.375
362.232	3715.04167
366.209	3708.70833
370.182	3650.375
374.152	3636.70833
378.119	3658.04167
382.083	3655.375
386.043	3660.70833
390	3654.04167
393.954	3632.375
397.905	3615.375
401.852	3632.04167
405.797	3607.70833
409.738	3583.375
413.676	3620.70833
417.61	3569.70833
421.542	3552.04167
425.47	3526.375
429.396	3513.70833
433.318	3498.70833
437.236	3482.375
441.152	3543.70833
445.065	3430.70833
448.974	3454.04167
452.88	3415.70833
456.783	3406.04167
460.683	3393.70833
464.58	3356.04167
468.473	3363.04167
472.364	3414.70833
476.251	3416.375
480.135	3454.04167
484.016	3466.70833
487.894	3483.375
491.769	3497.04167
495.641	3488.04167
499.509	3477.375
503.375	3497.375
507.237	3489.375
511.096	3480.04167
514.952	3486.375
518.805	3499.04167
522.655	3489.375
526.502	3472.375
530.346	3476.375
534.187	3497.70833
538.024	3503.70833
541.859	3511.04167
545.69	3544.375
549.519	3532.375
553.344	3511.04167
557.166	3451.375
560.985	3397.04167
564.802	3362.375
568.615	3325.375
572.425	3256.375
576.232	3277.70833
580.036	3249.375
583.836	3281.375
587.634	3269.70833
591.429	3302.375
595.221	3341.70833
599.01	3360.70833
602.796	3401.04167
606.578	3416.375
610.358	3430.375
614.135	3404.375
617.909	3406.04167
621.679	3343.70833
625.447	3342.04167
629.212	3337.70833
632.973	3334.70833
636.732	3315.375
640.488	3327.375
644.241	3298.04167
647.991	3296.375
651.737	3323.04167
655.481	3288.375
659.222	3295.375
662.96	3301.04167
666.695	3309.04167
670.427	3318.375
674.156	3310.04167
677.882	3306.375
681.605	3298.04167
685.325	3272.04167
689.043	3269.70833
692.757	3238.375
696.468	3242.70833
700.177	3220.70833
703.882	3208.04167
707.585	3163.375
711.284	3185.70833
714.981	3211.70833
718.675	3170.04167
722.366	3222.04167
726.054	3187.375
729.739	3180.04167
733.421	3199.70833
737.1	3172.04167
740.777	3205.04167
744.45	3202.375
748.121	3245.70833
751.789	3282.70833
755.453	3290.04167
759.115	3293.70833
762.774	3310.04167
766.431	3338.04167
770.084	3368.70833
773.734	3413.04167
777.382	3436.375
781.027	3461.04167
784.669	3476.04167
788.308	3474.375
791.944	3522.70833
795.577	3478.04167
799.208	3509.04167
802.835	3536.04167
806.46	3567.70833
810.082	3585.375
813.701	3587.70833
817.317	3640.375
820.931	3616.375
824.542	3613.04167
828.149	3591.70833
831.754	3550.375
835.357	3530.375
838.956	3550.04167
842.553	3509.70833
846.146	3508.70833
849.737	3477.04167
853.326	3505.70833
856.911	3482.70833
860.493	3510.70833
864.073	3551.70833
867.65	3583.04167
871.225	3598.70833
874.796	3611.375
878.365	3620.04167
881.931	3616.04167
885.494	3663.375
889.054	3668.04167
892.612	3642.04167
896.166	3628.04167
899.719	3585.04167
903.268	3575.375
906.814	3531.04167
910.358	3510.375
913.899	3464.375
917.438	3513.375
920.973	3478.04167
924.506	3518.70833
928.036	3574.04167
931.564	3622.375
935.088	3645.70833
938.61	3669.375
942.129	3693.375
945.646	3779.70833
949.16	3854.375
952.671	3895.04167
956.179	3867.04167
959.685	3848.70833
963.188	3875.04167
966.688	3862.70833
970.185	3735.70833
973.68	3697.375
977.173	3693.70833
980.662	3530.70833
984.149	3533.04167
987.633	3483.375
991.114	3563.70833
994.593	3594.375
998.069	3715.70833
1001.542	3798.04167
1005.013	3738.04167
1008.481	3560.70833
1011.947	3477.04167
1015.409	3495.70833
1018.869	3475.04167
1022.327	3465.04167
1025.782	3426.70833
1029.234	3406.70833
1032.683	3379.04167
1036.13	3277.04167
1039.574	3153.70833
1043.016	3065.04167
1046.455	3010.70833
1049.891	2998.04167
1053.325	2988.04167
1056.756	3001.04167
1060.184	3018.70833
1063.61	3047.375
1067.033	3020.04167
1070.454	3027.375
1073.872	3074.04167
1077.287	3061.375
1080.7	3088.375
1084.11	3052.70833
1087.517	3031.70833
1090.922	2990.375
1094.325	2960.375
1097.724	2935.70833
1101.122	2958.04167
1104.516	2934.70833
1107.908	2947.70833
1111.298	2995.70833
1114.684	3027.70833
1118.069	3050.375
1121.45	3093.70833
1124.83	3102.375
1128.206	3093.70833
1131.58	3148.375
1134.951	3211.375
1138.32	3312.70833
1141.687	3445.04167
1145.05	3521.04167
1148.412	3540.04167
1151.77	3531.04167
1155.126	3512.375
1158.48	3493.70833
1161.831	3533.375
1165.18	3536.375
1168.525	3591.375
1171.869	3625.04167
1175.21	3664.04167
1178.548	3704.70833
1181.884	3727.375
1185.217	3765.70833
1188.548	3846.04167
1191.877	3912.70833
1195.202	4025.375
1198.526	4076.70833
1201.846	4096.70833
1205.165	4073.375
1208.48	4030.04167
1211.794	4044.70833
1215.104	4030.70833
1218.413	4007.375
1221.719	4002.04167
1225.022	3960.375
1228.323	3903.04167
1231.621	3866.375
1234.917	3807.04167
1238.21	3823.04167
1241.501	3812.375
1244.79	3808.375
1248.076	3796.04167
1251.359	3839.375
1254.64	3893.04167
1257.919	3937.04167
1261.195	4011.375
1264.468	4059.375
1267.74	4100.04167
1271.008	4135.375
1274.275	4107.70833
1277.538	4087.375
1280.8	4061.375
1284.059	4075.375
1287.315	4118.375
1290.569	4088.04167
1293.821	4125.04167
1297.07	4183.375
1300.317	4193.375
1303.562	4173.375
1306.803	4127.04167
1310.043	4094.375
1313.28	4064.70833
1316.515	4022.04167
1319.747	3994.70833
1322.977	3960.375
1326.204	3929.70833
1329.429	3908.70833
1332.652	3864.04167
1335.872	3835.375
1339.09	3781.375
1342.306	3785.375
1345.519	3747.70833
1348.729	3704.375
1351.938	3696.70833
1355.144	3657.04167
1358.347	3593.70833
1361.548	3579.04167
1364.747	3549.375
1367.944	3529.375
1371.138	3512.70833
1374.329	3519.04167
1377.518	3553.70833
1380.705	3581.04167
1383.89	3550.70833
1387.072	3425.70833
1390.252	3352.04167
1393.429	3206.375
1396.605	3135.70833
1399.777	3014.70833
1402.948	2997.04167
1406.116	2954.70833
1409.282	2953.04167
1412.445	2946.04167
1415.606	2961.375
1418.765	3027.70833
1421.921	3077.70833
1425.075	3145.375
1428.227	3233.04167
1431.376	3352.70833
1434.524	3480.375
1437.668	3596.04167
1440.811	3633.04167
1443.951	3648.04167
1447.089	3642.04167
1450.224	3670.375
1453.357	3644.04167
1456.488	3585.04167
1459.617	3568.04167
1462.743	3495.04167
1465.867	3469.70833
1468.989	3414.375
1472.108	3354.04167
1475.225	3312.375
1478.34	3298.375
1481.453	3290.04167
1484.563	3292.70833
1487.671	3354.04167
1490.776	3384.70833
1493.88	3439.04167
1496.981	3481.375
1500.08	3548.375
1503.176	3585.375
1506.271	3627.04167
1509.363	3687.375
1512.452	3712.04167
1515.54	3773.04167
1518.625	3805.375
1521.708	3890.04167
1524.789	4018.04167
1527.867	4164.04167
1530.944	4338.375
1534.018	4547.70833
1537.089	4690.70833
1540.159	4725.375
1543.226	4719.04167
1546.291	4630.375
1549.354	4533.04167
1552.415	4432.375
1555.473	4331.70833
1558.529	4261.375
1561.583	4223.70833
1564.634	4219.375
1567.684	4199.70833
1570.731	4236.70833
1573.776	4319.70833
1576.819	4362.04167
1579.859	4448.70833
1582.898	4468.70833
1585.934	4518.375
1588.968	4523.04167
1591.999	4447.70833
1595.029	4494.375
1598.056	4532.375
1601.081	4531.04167
1604.104	4500.375
1607.125	4482.375
1610.144	4379.375
1613.16	4298.04167
1616.174	4209.04167
1619.186	4106.70833
1622.196	3996.70833
1625.203	3914.04167
1628.209	3822.70833
1631.212	3816.04167
1634.213	3795.375
1637.212	3787.375
1640.209	3727.375
1643.203	3639.375
1646.196	3497.04167
1649.186	3355.375
1652.174	3192.04167
1655.16	3092.70833
1658.144	2970.70833
1661.125	2838.375
1664.105	2719.375
1667.082	2591.04167
1670.057	2456.375
1673.03	2330.70833
1676.001	2200.70833
1678.97	2053.04167
1681.937	1936.375
1684.901	1834.70833
1687.863	1781.70833
1690.824	1710.04167
1693.782	1679.04167
1696.738	1601.70833
1699.692	1556.70833
1702.643	1518.04167
1705.593	1522.375
1708.54	1496.04167
1711.486	1481.375
1714.429	1441.04167
1717.37	1456.70833
1720.309	1430.04167
1723.246	1425.375
1726.181	1399.04167
1729.113	1406.04167
1732.044	1370.04167
1734.972	1360.04167
1737.899	1362.04167
1740.823	1350.375
1743.745	1333.375
1746.665	1311.375
1749.583	1287.375
1752.499	1266.375
1755.413	1261.70833
1758.325	1228.70833
1761.235	1214.70833
1764.142	1201.70833
1767.048	1189.04167
1769.951	1189.70833
1772.852	1193.04167
1775.752	1190.70833
1778.649	1165.70833
1781.544	1169.04167
1784.437	1142.70833
1787.328	1152.04167
1790.217	1139.04167
1793.104	1104.70833
1795.989	1111.04167
1798.872	1100.70833
1801.753	1134.70833
1804.631	1108.375
1807.508	1116.375
1810.383	1097.04167
1813.255	1084.375
1816.126	1100.375
1818.994	1093.375
1821.861	1081.375
1824.725	1087.70833
1827.587	1087.375
1830.448	1064.04167
1833.306	1046.04167
1836.162	1060.70833
1839.017	1043.375
1841.869	1034.04167
1844.719	1032.70833
1847.567	1018.70833
1850.414	1002.375
1853.258	1014.375
1856.1	1019.70833
1858.94	1022.70833
1861.778	1010.375
1864.614	1011.375
1867.448	1003.375
1870.28	999.04167
1873.111	1025.70833
1875.939	1006.375
1878.765	1027.04167
1881.589	992.04167
1884.411	1013.04167
1887.231	999.70833
1890.049	987.04167
1892.865	986.04167
1895.68	975.70833
1898.492	985.70833
1901.302	972.04167
1904.11	973.70833
1906.916	971.70833
1909.721	952.04167
1912.523	968.70833
1915.323	937.04167
1918.122	943.04167
1920.918	953.375
1923.712	929.04167
1926.505	927.04167
1929.295	932.375
1932.084	947.04167
1934.87	941.04167
1937.655	931.375
1940.438	926.04167
1943.218	931.04167
1945.997	929.70833
1948.774	944.375
1951.549	931.04167
1954.322	921.04167
1957.093	905.375
1959.862	897.04167
1962.629	901.375
1965.394	892.70833
1968.157	884.04167
1970.918	893.375
1973.678	881.04167
1976.435	889.375
1979.19	881.375
1981.944	866.70833
1984.696	869.70833
1987.445	868.04167
1990.193	853.70833
1992.939	880.70833
1995.683	859.375
1998.425	833.70833
2001.165	881.70833
2003.903	846.04167
2006.639	853.70833
2009.374	858.70833
2012.106	849.375
2014.837	838.375
2017.566	839.70833
2020.292	853.04167
2023.017	857.04167
2025.74	836.70833
2028.461	827.04167
2031.18	832.04167
2033.898	820.375
2036.613	831.70833
2039.327	827.04167
2042.038	805.04167
2044.748	811.70833
2047.456	816.70833
2050.162	796.70833
2052.866	801.375
2055.568	813.375
2058.268	791.375
2060.967	803.04167
2063.663	790.375
2066.358	781.70833
2069.051	789.04167
2071.742	797.04167
2074.431	795.70833
2077.118	800.04167
2079.804	784.04167
2082.487	785.375
2085.169	798.375
2087.849	814.70833
2090.527	778.04167
2093.203	796.375
2095.877	803.04167
2098.55	795.70833
2101.22	815.375
2103.889	813.375
2106.556	811.04167
2109.221	827.04167
2111.884	841.375
2114.546	893.70833
2117.205	930.375
2119.863	1007.70833
2122.519	1052.375
2125.173	1110.04167
2127.825	1176.70833
2130.475	1182.375
2133.124	1147.375
2135.771	1112.70833
2138.416	1083.70833
2141.059	1008.04167
2143.7	970.70833
2146.339	915.04167
2148.977	864.375
2151.613	872.70833
2154.247	842.04167
2156.879	818.375
2159.51	800.70833
2162.138	790.04167
2164.765	781.70833
2167.39	762.375
2170.013	769.375
2172.634	764.70833
2175.254	759.04167
2177.872	762.70833
2180.488	739.70833
2183.102	731.70833
2185.714	717.04167
2188.325	706.70833
2190.934	712.375
2193.541	724.04167
2196.146	706.375
2198.75	690.04167
2201.351	687.70833
2203.951	672.375
2206.549	705.70833
2209.146	679.04167
2211.74	678.70833
2214.333	680.70833
2216.924	655.04167
2219.514	672.04167
2222.101	659.375
2224.687	668.70833
2227.271	657.375
2229.853	645.04167
2232.433	641.375
2235.012	650.04167
2237.589	653.375
2240.164	653.04167
2242.738	637.375
2245.309	620.04167
2247.879	644.04167
2250.448	638.375
2253.014	617.04167
2255.579	598.70833
2258.142	610.04167
2260.703	597.375
2263.262	604.70833
2265.82	591.04167
2268.376	605.375
2270.93	577.375
2273.483	585.04167
2276.033	581.04167
2278.583	578.375
2281.13	577.375
2283.675	578.375
2286.219	567.04167
2288.761	570.04167
2291.302	570.70833
2293.841	581.375
2296.377	547.70833
2298.913	566.04167
2301.446	570.70833
2303.978	557.70833
2306.508	554.04167
2309.037	560.70833
2311.563	547.375
2314.088	559.70833
2316.612	526.70833
2319.133	546.375
2321.653	544.70833
2324.171	532.375
2326.688	545.04167
2329.202	532.04167
2331.715	534.04167
2334.227	527.70833
2336.736	547.70833
2339.244	522.70833
2341.751	513.375
2344.255	529.375
2346.758	530.70833
2349.259	507.375
2351.759	518.70833
2354.257	505.04167
2356.753	499.70833
2359.247	522.375
2361.74	516.70833
2364.231	506.04167
2366.721	510.375
2369.209	506.70833
2371.695	501.70833
2374.179	499.70833
2376.662	491.70833
2379.143	506.04167
2381.622	497.70833
2384.1	499.375
2386.576	505.04167
2389.051	507.70833
2391.524	514.375
2393.995	504.70833
2396.464	489.04167
2398.932	493.375
2401.398	477.70833
2403.863	492.70833
2406.325	481.375
2408.787	487.04167
2411.246	474.70833
2413.704	483.70833
2416.16	470.70833
2418.615	481.70833
2421.068	488.375
2423.519	482.04167
2425.969	467.04167
2428.417	476.70833
2430.863	491.04167
2433.308	486.04167
2435.751	471.70833
2438.193	468.375
2440.633	469.375
2443.071	476.70833
2445.508	464.70833
2447.943	456.04167
2450.376	456.375
2452.808	447.04167
2455.238	462.04167
2457.667	492.70833
2460.093	456.375
2462.519	446.375
2464.942	452.70833
2467.365	453.70833
2469.785	461.70833
2472.204	441.375
2474.621	430.70833
2477.037	460.04167
2479.451	424.70833
2481.863	428.375
2484.274	435.04167
2486.683	436.04167
2489.091	443.375
2491.497	431.04167
2493.901	440.04167
2496.304	425.70833
2498.705	441.04167
2501.105	436.375
2503.503	457.375
2505.899	413.04167
2508.294	440.70833
2510.687	431.04167
2513.079	421.04167
2515.469	414.70833
2517.858	417.375
2520.245	438.70833
2522.63	410.70833
2525.014	422.375
2527.396	413.375
2529.776	400.04167
2532.156	418.04167
2534.533	415.04167
2536.909	405.04167
2539.283	397.04167
2541.656	402.375
2544.027	418.375
2546.397	407.375
2548.765	402.70833
2551.131	401.70833
2553.496	401.04167
2555.86	415.70833
2558.221	403.375
2560.582	394.04167
2562.94	395.375
2565.298	404.70833
2567.653	414.70833
2570.007	392.70833
2572.36	405.04167
2574.711	389.375
2577.06	404.04167
2579.408	407.04167
2581.754	400.70833
2584.099	392.70833
2586.442	385.375
2588.784	388.04167
2591.124	389.04167
2593.463	392.70833
2595.8	393.04167
2598.135	382.70833
2600.469	377.04167
2602.802	390.04167
2605.133	400.375
2607.462	378.04167
2609.79	372.04167
2612.116	393.04167
2614.441	391.04167
2616.764	380.04167
2619.086	384.70833
2621.406	367.375
2623.725	394.375
2626.042	386.70833
2628.358	387.04167
2630.672	375.70833
2632.985	394.04167
2635.296	392.04167
2637.606	382.04167
2639.914	373.375
2642.22	373.375
2644.525	368.375
2646.829	383.04167
2649.131	390.70833
2651.432	394.04167
2653.731	376.70833
2656.028	388.375
2658.324	399.70833
2660.619	374.70833
2662.912	385.04167
2665.204	366.70833
2667.494	392.04167
2669.782	377.04167
2672.07	380.70833
2674.355	386.375
2676.639	383.70833
2678.922	366.04167
2681.203	380.70833
2683.483	363.70833
2685.761	370.70833
2688.038	385.04167
2690.313	395.04167
2692.587	384.375
2694.859	374.70833
2697.13	382.375
2699.399	384.04167
2701.667	391.04167
2703.933	390.375
2706.198	403.70833
2708.461	399.375
2710.723	397.375
2712.984	404.375
2715.243	402.04167
2717.5	396.375
2719.757	410.04167
2722.011	402.04167
2724.264	406.375
2726.516	411.375
2728.766	396.04167
2731.015	409.04167
2733.262	400.375
2735.508	399.375
2737.753	400.04167
2739.996	385.70833
2742.237	384.375
2744.477	400.375
2746.716	391.375
2748.953	382.375
2751.189	401.04167
2753.423	382.375
2755.656	373.375
2757.887	365.04167
2760.117	368.375
2762.346	364.375
2764.573	358.70833
2766.798	368.70833
2769.022	367.04167
2771.245	368.04167
2773.467	373.375
2775.686	375.375
2777.905	368.70833
2780.122	382.375
2782.337	382.70833
2784.552	378.375
2786.764	387.375
2788.976	386.375
2791.186	395.375
2793.394	393.04167
2795.601	388.375
2797.807	408.04167
2800.011	408.375
2802.214	420.375
2804.415	409.04167
2806.615	411.70833
2808.814	411.375
2811.011	431.04167
2813.206	426.04167
2815.401	440.375
2817.594	451.70833
2819.785	457.04167
2821.975	453.70833
2824.164	444.04167
2826.351	470.375
2828.537	487.04167
2830.722	491.70833
2832.905	501.375
2835.086	512.70833
2837.267	547.70833
2839.445	566.04167
2841.623	581.70833
2843.799	612.70833
2845.974	637.04167
2848.147	665.375
2850.319	687.04167
2852.489	729.04167
2854.659	735.375
2856.826	749.04167
2858.993	781.04167
2861.158	758.70833
2863.321	767.04167
2865.483	764.375
2867.644	783.04167
2869.804	770.375
2871.962	768.70833
2874.118	768.70833
2876.274	777.04167
2878.428	765.375
2880.58	767.375
2882.731	763.375
2884.881	771.375
2887.03	770.04167
2889.177	782.04167
2891.322	776.375
2893.467	771.375
2895.61	775.375
2897.751	803.375
2899.892	787.04167
2902.03	789.70833
2904.168	791.375
2906.304	800.70833
2908.439	827.375
2910.572	820.04167
2912.704	823.04167
2914.835	824.375
2916.965	817.375
2919.093	820.375
2921.219	793.70833
2923.345	834.70833
2925.469	804.70833
2927.591	797.04167
2929.712	778.70833
2931.832	763.375
2933.951	747.70833
2936.068	745.70833
2938.184	719.70833
2940.299	683.375
2942.412	672.04167
2944.524	643.04167
2946.634	637.70833
2948.744	597.70833
2950.851	601.70833
2952.958	562.70833
2955.063	558.70833
2957.167	548.70833
2959.269	513.04167
2961.371	536.375
2963.471	490.70833
2965.569	497.04167
2967.666	471.375
2969.762	457.70833
2971.857	440.04167
2973.95	426.04167
2976.042	436.04167
2978.133	418.70833
2980.222	399.04167
2982.31	387.375
2984.396	367.04167
2986.482	372.375
2988.566	366.375
2990.648	363.70833
2992.73	357.04167
2994.81	339.04167
2996.889	346.375
2998.966	336.70833
3001.042	341.70833
3003.117	337.70833
3005.191	333.70833
3007.263	335.04167
3009.334	324.04167
3011.403	328.70833
3013.472	309.375
3015.539	312.70833
3017.604	323.04167
3019.669	288.04167
3021.732	298.375
3023.794	302.04167
3025.854	286.70833
3027.914	280.375
3029.971	294.04167
3032.028	285.375
3034.083	283.375
3036.137	274.70833
3038.19	271.70833
3040.242	265.375
3042.292	255.04167
3044.341	262.04167
3046.388	272.04167
3048.435	249.04167
3050.48	260.04167
3052.524	259.375
3054.566	241.04167
3056.607	256.375
3058.647	246.04167
3060.686	235.375
3062.723	235.375
3064.759	216.70833
3066.794	0.375
3068.828	3.04167
3070.86	2.70833
