-0.839	514.375
3.438	606.375
7.711	185.04167
11.981	62.04167
16.247	47.70833
20.509	48.375
24.768	49.04167
29.024	57.70833
33.276	42.70833
37.524	50.70833
41.769	51.04167
46.01	36.70833
50.247	48.70833
54.481	58.70833
58.712	59.70833
62.939	49.70833
67.162	66.375
71.382	61.04167
75.599	46.70833
79.812	62.70833
84.021	77.70833
88.227	60.70833
92.429	60.70833
96.628	54.375
100.823	77.04167
105.015	74.70833
109.204	69.375
113.388	79.70833
117.57	77.04167
121.748	92.04167
125.922	83.70833
130.093	100.375
134.261	101.70833
138.425	100.04167
142.585	145.375
146.742	136.375
150.896	166.375
155.046	210.375
159.193	330.375
163.336	557.04167
167.476	1008.70833
171.613	1850.04167
175.746	3078.70833
179.875	4555.70833
184.002	5987.375
188.124	6962.375
192.244	7296.375
196.36	7319.70833
200.472	7133.375
204.581	7025.375
208.687	6841.04167
212.79	6773.04167
216.889	6789.04167
220.984	6806.04167
225.077	6814.375
229.165	6874.70833
233.251	6924.04167
237.333	6895.04167
241.412	6878.04167
245.487	6805.04167
249.559	6727.04167
253.628	6709.375
257.694	6656.04167
261.756	6579.04167
265.814	6470.70833
269.87	6291.04167
273.922	6063.04167
277.97	5898.04167
282.016	5780.70833
286.058	5745.04167
290.097	5792.70833
294.132	5804.70833
298.164	5770.70833
302.193	5594.375
306.219	5224.70833
310.241	4877.70833
314.26	4505.70833
318.276	4209.70833
322.288	4013.04167
326.297	3864.04167
330.303	3752.70833
334.305	3669.70833
338.305	3619.70833
342.301	3579.04167
346.294	3520.70833
350.283	3520.70833
354.269	3496.375
358.252	3468.375
362.232	3475.04167
366.209	3441.04167
370.182	3420.375
374.152	3404.375
378.119	3421.04167
382.083	3419.375
386.043	3434.375
390	3369.375
393.954	3414.70833
397.905	3376.375
401.852	3403.375
405.797	3335.70833
409.738	3339.375
413.676	3375.04167
417.61	3372.375
421.542	3351.375
425.47	3311.04167
429.396	3267.375
433.318	3265.70833
437.236	3252.375
441.152	3277.375
445.065	3229.70833
448.974	3205.70833
452.88	3184.375
456.783	3190.375
460.683	3152.04167
464.58	3149.375
468.473	3155.375
472.364	3161.375
476.251	3178.70833
480.135	3223.375
484.016	3253.375
487.894	3268.04167
491.769	3256.375
495.641	3254.70833
499.509	3283.70833
503.375	3281.04167
507.237	3254.375
511.096	3253.04167
514.952	3242.04167
518.805	3270.70833
522.655	3250.04167
526.502	3243.04167
530.346	3227.70833
534.187	3245.70833
538.024	3282.70833
541.859	3293.70833
545.69	3317.70833
549.519	3287.70833
553.344	3280.04167
557.166	3234.04167
560.985	3167.70833
564.802	3115.375
568.615	3104.70833
572.425	3054.70833
576.232	3032.70833
580.036	3027.04167
583.836	3028.04167
587.634	3038.04167
591.429	3062.04167
595.221	3120.04167
599.01	3150.375
602.796	3169.04167
606.578	3188.04167
610.358	3180.70833
614.135	3169.70833
617.909	3164.375
621.679	3139.04167
625.447	3096.375
629.212	3083.70833
632.973	3098.375
636.732	3076.375
640.488	3101.375
644.241	3073.04167
647.991	3073.04167
651.737	3119.375
655.481	3068.04167
659.222	3098.04167
662.96	3077.70833
666.695	3102.70833
670.427	3150.04167
674.156	3126.375
677.882	3091.375
681.605	3073.70833
685.325	3063.375
689.043	3060.70833
692.757	3055.04167
696.468	3056.04167
700.177	3019.04167
703.882	2987.70833
707.585	2978.04167
711.284	2992.375
714.981	3000.04167
718.675	2961.375
722.366	3006.04167
726.054	2957.375
729.739	2948.70833
733.421	2942.70833
737.1	2927.375
740.777	2985.04167
744.45	2999.375
748.121	3012.70833
751.789	3054.70833
755.453	3084.04167
759.115	3069.70833
762.774	3102.375
766.431	3111.04167
770.084	3140.375
773.734	3164.70833
777.382	3210.375
781.027	3239.375
784.669	3243.375
788.308	3249.70833
791.944	3250.70833
795.577	3263.375
799.208	3272.04167
802.835	3275.375
806.46	3320.70833
810.082	3334.04167
813.701	3369.04167
817.317	3354.70833
820.931	3374.70833
824.542	3372.375
828.149	3302.70833
831.754	3260.375
835.357	3264.375
838.956	3296.70833
842.553	3256.04167
846.146	3244.375
849.737	3199.375
853.326	3208.375
856.911	3201.04167
860.493	3238.04167
864.073	3232.70833
867.65	3291.70833
871.225	3325.375
874.796	3293.375
878.365	3320.375
881.931	3340.70833
885.494	3338.04167
889.054	3353.04167
892.612	3369.375
896.166	3336.70833
899.719	3311.375
903.268	3264.375
906.814	3248.70833
910.358	3221.04167
913.899	3196.70833
917.438	3193.375
920.973	3199.375
924.506	3245.04167
928.036	3291.375
931.564	3345.375
935.088	3378.04167
938.61	3376.70833
942.129	3424.70833
945.646	3470.375
949.16	3528.70833
952.671	3568.375
956.179	3612.70833
959.685	3568.04167
963.188	3575.375
966.688	3560.70833
970.185	3474.375
973.68	3397.70833
977.173	3302.70833
980.662	3252.70833
984.149	3274.375
987.633	3225.375
991.114	3249.375
994.593	3309.04167
998.069	3392.04167
1001.542	3479.04167
1005.013	3441.70833
1008.481	3264.70833
1011.947	3224.04167
1015.409	3204.375
1018.869	3190.375
1022.327	3180.375
1025.782	3157.04167
1029.234	3168.04167
1032.683	3114.70833
1036.13	3022.70833
1039.574	2927.375
1043.016	2843.70833
1046.455	2800.04167
1049.891	2763.375
1053.325	2773.375
1056.756	2785.04167
1060.184	2781.04167
1063.61	2797.375
1067.033	2843.04167
1070.454	2821.04167
1073.872	2861.04167
1077.287	2852.70833
1080.7	2839.70833
1084.11	2844.375
1087.517	2821.70833
1090.922	2750.04167
1094.325	2747.04167
1097.724	2710.70833
1101.122	2736.70833
1104.516	2699.375
1107.908	2729.04167
1111.298	2758.375
1114.684	2787.70833
1118.069	2819.04167
1121.45	2854.04167
1124.83	2818.375
1128.206	2848.375
1131.58	2901.375
1134.951	2950.04167
1138.32	3033.04167
1141.687	3172.70833
1145.05	3241.04167
1148.412	3266.70833
1151.77	3248.04167
1155.126	3220.375
1158.48	3187.375
1161.831	3220.70833
1165.18	3235.04167
1168.525	3286.375
1171.869	3302.04167
1175.21	3333.375
1178.548	3345.04167
1181.884	3395.375
1185.217	3430.375
1188.548	3533.70833
1191.877	3590.70833
1195.202	3689.375
1198.526	3747.04167
1201.846	3777.375
1205.165	3770.70833
1208.48	3736.375
1211.794	3717.70833
1215.104	3672.375
1218.413	3714.375
1221.719	3685.375
1225.022	3624.70833
1228.323	3561.04167
1231.621	3562.04167
1234.917	3522.04167
1238.21	3539.04167
1241.501	3513.04167
1244.79	3505.04167
1248.076	3479.375
1251.359	3528.04167
1254.64	3618.375
1257.919	3631.375
1261.195	3688.375
1264.468	3766.70833
1267.74	3790.70833
1271.008	3810.70833
1274.275	3804.375
1277.538	3784.04167
1280.8	3757.70833
1284.059	3751.04167
1287.315	3785.04167
1290.569	3776.04167
1293.821	3809.70833
1297.07	3827.04167
1300.317	3816.375
1303.562	3814.04167
1306.803	3786.70833
1310.043	3803.04167
1313.28	3763.04167
1316.515	3751.375
1319.747	3702.70833
1322.977	3701.375
1326.204	3653.70833
1329.429	3601.375
1332.652	3584.04167
1335.872	3556.04167
1339.09	3518.375
1342.306	3511.375
1345.519	3468.70833
1348.729	3412.70833
1351.938	3416.70833
1355.144	3377.04167
1358.347	3308.04167
1361.548	3297.375
1364.747	3315.70833
1367.944	3274.04167
1371.138	3269.04167
1374.329	3257.70833
1377.518	3274.70833
1380.705	3336.04167
1383.89	3304.375
1387.072	3209.04167
1390.252	3091.70833
1393.429	2994.04167
1396.605	2884.375
1399.777	2814.04167
1402.948	2774.04167
1406.116	2743.375
1409.282	2737.70833
1412.445	2747.70833
1415.606	2750.04167
1418.765	2794.375
1421.921	2808.375
1425.075	2887.375
1428.227	3011.70833
1431.376	3082.375
1434.524	3207.375
1437.668	3311.70833
1440.811	3355.04167
1443.951	3389.375
1447.089	3391.375
1450.224	3389.375
1453.357	3390.375
1456.488	3346.04167
1459.617	3300.04167
1462.743	3261.70833
1465.867	3183.04167
1468.989	3156.04167
1472.108	3108.04167
1475.225	3069.04167
1478.34	3027.375
1481.453	3038.70833
1484.563	3027.375
1487.671	3074.70833
1490.776	3107.375
1493.88	3160.375
1496.981	3180.70833
1500.08	3240.04167
1503.176	3298.04167
1506.271	3341.04167
1509.363	3397.04167
1512.452	3417.04167
1515.54	3479.375
1518.625	3500.04167
1521.708	3591.70833
1524.789	3679.375
1527.867	3830.04167
1530.944	4020.70833
1534.018	4179.375
1537.089	4285.375
1540.159	4312.70833
1543.226	4261.70833
1546.291	4205.70833
1549.354	4098.04167
1552.415	4037.375
1555.473	3951.70833
1558.529	3880.375
1561.583	3839.04167
1564.634	3835.70833
1567.684	3833.04167
1570.731	3854.375
1573.776	3911.375
1576.819	3954.70833
1579.859	4022.04167
1582.898	4049.70833
1585.934	4144.70833
1588.968	4109.70833
1591.999	4101.375
1595.029	4113.375
1598.056	4112.04167
1601.081	4124.04167
1604.104	4129.375
1607.125	4088.375
1610.144	3985.375
1613.16	3924.70833
1616.174	3842.70833
1619.186	3782.375
1622.196	3695.70833
1625.203	3609.375
1628.209	3562.04167
1631.212	3565.70833
1634.213	3571.04167
1637.212	3552.375
1640.209	3514.04167
1643.203	3416.70833
1646.196	3321.375
1649.186	3113.70833
1652.174	2991.375
1655.16	2887.375
1658.144	2799.375
1661.125	2663.375
1664.105	2528.04167
1667.082	2412.375
1670.057	2292.04167
1673.03	2163.375
1676.001	2032.70833
1678.97	1904.70833
1681.937	1819.70833
1684.901	1700.04167
1687.863	1644.375
1690.824	1568.04167
1693.782	1545.70833
1696.738	1492.04167
1699.692	1453.04167
1702.643	1419.04167
1705.593	1399.375
1708.54	1386.04167
1711.486	1382.375
1714.429	1331.375
1717.37	1359.04167
1720.309	1310.375
1723.246	1320.04167
1726.181	1297.04167
1729.113	1283.04167
1732.044	1259.70833
1734.972	1265.375
1737.899	1261.375
1740.823	1268.04167
1743.745	1250.70833
1746.665	1186.70833
1749.583	1186.70833
1752.499	1178.375
1755.413	1173.375
1758.325	1133.70833
1761.235	1134.70833
1764.142	1116.70833
1767.048	1112.375
1769.951	1105.04167
1772.852	1108.04167
1775.752	1091.70833
1778.649	1082.70833
1781.544	1093.70833
1784.437	1055.70833
1787.328	1063.04167
1790.217	1063.375
1793.104	1048.04167
1795.989	1033.04167
1798.872	1033.70833
1801.753	1039.70833
1804.631	1035.04167
1807.508	1041.70833
1810.383	1025.04167
1813.255	1019.70833
1816.126	1030.70833
1818.994	1020.04167
1821.861	1006.70833
1824.725	1001.04167
1827.587	1007.375
1830.448	1006.375
1833.306	974.375
1836.162	986.04167
1839.017	967.375
1841.869	968.04167
1844.719	967.70833
1847.567	947.70833
1850.414	944.70833
1853.258	942.04167
1856.1	971.375
1858.94	960.04167
1861.778	930.375
1864.614	946.70833
1867.448	938.375
1870.28	928.70833
1873.111	959.04167
1875.939	943.70833
1878.765	948.04167
1881.589	929.70833
1884.411	916.375
1887.231	934.375
1890.049	922.375
1892.865	924.04167
1895.68	910.70833
1898.492	930.04167
1901.302	901.04167
1904.11	903.70833
1906.916	893.70833
1909.721	885.375
1912.523	874.375
1915.323	879.04167
1918.122	889.04167
1920.918	895.04167
1923.712	865.70833
1926.505	864.70833
1929.295	857.04167
1932.084	868.70833
1934.87	871.04167
1937.655	846.04167
1940.438	851.04167
1943.218	857.375
1945.997	865.375
1948.774	869.375
1951.549	865.70833
1954.322	862.04167
1957.093	852.70833
1959.862	844.04167
1962.629	834.04167
1965.394	840.375
1968.157	824.375
1970.918	831.375
1973.678	812.04167
1976.435	830.04167
1979.19	810.375
1981.944	820.70833
1984.696	810.70833
1987.445	796.04167
1990.193	808.04167
1992.939	819.70833
1995.683	806.70833
1998.425	778.375
2001.165	810.375
2003.903	794.375
2006.639	800.04167
2009.374	796.04167
2012.106	798.04167
2014.837	772.70833
2017.566	785.04167
2020.292	779.04167
2023.017	781.04167
2025.74	776.04167
2028.461	763.04167
2031.18	771.04167
2033.898	759.04167
2036.613	768.70833
2039.327	765.70833
2042.038	749.04167
2044.748	755.04167
2047.456	763.70833
2050.162	739.70833
2052.866	733.70833
2055.568	762.04167
2058.268	725.70833
2060.967	744.70833
2063.663	736.04167
2066.358	728.375
2069.051	722.04167
2071.742	729.375
2074.431	738.04167
2077.118	739.04167
2079.804	720.375
2082.487	729.375
2085.169	738.70833
2087.849	749.375
2090.527	719.04167
2093.203	729.375
2095.877	729.70833
2098.55	727.375
2101.22	742.375
2103.889	728.375
2106.556	730.375
2109.221	752.70833
2111.884	751.70833
2114.546	791.70833
2117.205	816.375
2119.863	871.04167
2122.519	908.375
2125.173	970.04167
2127.825	1016.04167
2130.475	1043.70833
2133.124	1006.04167
2135.771	992.04167
2138.416	949.375
2141.059	902.70833
2143.7	853.375
2146.339	823.70833
2148.977	772.04167
2151.613	766.04167
2154.247	751.70833
2156.879	727.70833
2159.51	714.375
2162.138	690.375
2164.765	709.375
2167.39	684.375
2170.013	699.04167
2172.634	682.70833
2175.254	673.70833
2177.872	713.04167
2180.488	664.04167
2183.102	676.70833
2185.714	660.70833
2188.325	640.04167
2190.934	654.375
2193.541	649.04167
2196.146	636.04167
2198.75	621.70833
2201.351	629.375
2203.951	612.375
2206.549	625.04167
2209.146	626.04167
2211.74	617.04167
2214.333	620.375
2216.924	603.375
2219.514	603.375
2222.101	596.70833
2224.687	617.70833
2227.271	603.375
2229.853	591.70833
2232.433	583.70833
2235.012	606.375
2237.589	600.04167
2240.164	605.70833
2242.738	587.04167
2245.309	583.04167
2247.879	582.375
2250.448	586.375
2253.014	561.375
2255.579	547.70833
2258.142	563.375
2260.703	558.04167
2263.262	548.04167
2265.82	545.04167
2268.376	546.70833
2270.93	533.375
2273.483	534.375
2276.033	536.375
2278.583	540.04167
2281.13	533.04167
2283.675	520.375
2286.219	529.04167
2288.761	517.375
2291.302	527.04167
2293.841	532.70833
2296.377	502.375
2298.913	512.04167
2301.446	517.375
2303.978	511.04167
2306.508	505.70833
2309.037	513.375
2311.563	516.04167
2314.088	517.04167
2316.612	491.375
2319.133	496.375
2321.653	497.70833
2324.171	487.375
2326.688	499.375
2329.202	493.375
2331.715	495.375
2334.227	482.70833
2336.736	500.375
2339.244	483.04167
2341.751	466.375
2344.255	475.70833
2346.758	479.04167
2349.259	464.375
2351.759	485.04167
2354.257	478.04167
2356.753	468.70833
2359.247	463.70833
2361.74	467.375
2364.231	469.04167
2366.721	469.70833
2369.209	462.04167
2371.695	470.375
2374.179	453.04167
2376.662	449.04167
2379.143	471.375
2381.622	463.70833
2384.1	458.04167
2386.576	462.04167
2389.051	474.375
2391.524	476.375
2393.995	460.375
2396.464	448.04167
2398.932	452.375
2401.398	440.70833
2403.863	438.375
2406.325	443.04167
2408.787	442.04167
2411.246	450.04167
2413.704	431.70833
2416.16	446.375
2418.615	436.04167
2421.068	442.375
2423.519	435.04167
2425.969	429.375
2428.417	438.04167
2430.863	458.04167
2433.308	433.375
2435.751	448.04167
2438.193	432.04167
2440.633	437.375
2443.071	434.70833
2445.508	415.70833
2447.943	426.70833
2450.376	410.70833
2452.808	428.04167
2455.238	415.04167
2457.667	447.04167
2460.093	414.04167
2462.519	416.04167
2464.942	406.70833
2467.365	422.70833
2469.785	420.04167
2472.204	409.375
2474.621	401.375
2477.037	422.375
2479.451	394.04167
2481.863	398.04167
2484.274	398.375
2486.683	404.70833
2489.091	411.375
2491.497	398.04167
2493.901	411.04167
2496.304	408.375
2498.705	408.375
2501.105	397.70833
2503.503	422.04167
2505.899	378.70833
2508.294	410.70833
2510.687	393.375
2513.079	394.375
2515.469	384.70833
2517.858	390.375
2520.245	399.375
2522.63	382.70833
2525.014	373.70833
2527.396	387.04167
2529.776	372.04167
2532.156	390.04167
2534.533	372.375
2536.909	379.375
2539.283	368.375
2541.656	371.70833
2544.027	389.375
2546.397	368.375
2548.765	376.70833
2551.131	374.375
2553.496	372.04167
2555.86	386.04167
2558.221	373.70833
2560.582	371.375
2562.94	359.04167
2565.298	370.70833
2567.653	378.375
2570.007	363.70833
2572.36	382.70833
2574.711	350.70833
2577.06	376.375
2579.408	371.70833
2581.754	362.70833
2584.099	367.70833
2586.442	359.04167
2588.784	366.70833
2591.124	362.04167
2593.463	366.70833
2595.8	369.70833
2598.135	350.04167
2600.469	355.70833
2602.802	362.375
2605.133	363.70833
2607.462	344.70833
2609.79	338.04167
2612.116	355.70833
2614.441	356.04167
2616.764	357.04167
2619.086	353.04167
2621.406	338.04167
2623.725	363.375
2626.042	360.375
2628.358	348.04167
2630.672	339.70833
2632.985	356.375
2635.296	359.04167
2637.606	349.70833
2639.914	339.375
2642.22	333.70833
2644.525	344.04167
2646.829	349.375
2649.131	356.375
2651.432	356.375
2653.731	349.70833
2656.028	359.70833
2658.324	358.04167
2660.619	347.70833
2662.912	359.70833
2665.204	333.04167
2667.494	366.375
2669.782	350.04167
2672.07	359.70833
2674.355	357.04167
2676.639	348.04167
2678.922	336.70833
2681.203	352.04167
2683.483	336.375
2685.761	341.70833
2688.038	352.375
2690.313	355.04167
2692.587	346.375
2694.859	342.04167
2697.13	343.375
2699.399	359.04167
2701.667	359.375
2703.933	357.04167
2706.198	360.70833
2708.461	365.04167
2710.723	362.04167
2712.984	370.375
2715.243	362.70833
2717.5	353.375
2719.757	379.375
2722.011	365.375
2724.264	371.04167
2726.516	381.70833
2728.766	369.70833
2731.015	377.70833
2733.262	371.70833
2735.508	374.04167
2737.753	376.375
2739.996	347.04167
2742.237	350.375
2744.477	359.04167
2746.716	358.04167
2748.953	356.375
2751.189	368.375
2753.423	345.04167
2755.656	337.04167
2757.887	347.375
2760.117	336.04167
2762.346	330.375
2764.573	323.70833
2766.798	335.70833
2769.022	342.375
2771.245	343.70833
2773.467	345.375
2775.686	341.375
2777.905	349.04167
2780.122	357.375
2782.337	365.70833
2784.552	346.375
2786.764	350.375
2788.976	348.70833
2791.186	356.375
2793.394	351.375
2795.601	360.375
2797.807	375.375
2800.011	369.375
2802.214	370.70833
2804.415	365.04167
2806.615	379.04167
2808.814	381.04167
2811.011	385.375
2813.206	375.375
2815.401	390.04167
2817.594	394.375
2819.785	412.70833
2821.975	398.70833
2824.164	400.04167
2826.351	417.70833
2828.537	432.04167
2830.722	446.70833
2832.905	448.04167
2835.086	475.70833
2837.267	504.04167
2839.445	503.04167
2841.623	521.70833
2843.799	553.70833
2845.974	587.04167
2848.147	617.04167
2850.319	641.375
2852.489	663.375
2854.659	675.70833
2856.826	683.70833
2858.993	705.375
2861.158	684.70833
2863.321	704.375
2865.483	713.70833
2867.644	706.375
2869.804	704.70833
2871.962	705.70833
2874.118	716.04167
2876.274	722.375
2878.428	720.375
2880.58	712.375
2882.731	698.04167
2884.881	697.70833
2887.03	717.70833
2889.177	708.375
2891.322	725.04167
2893.467	718.04167
2895.61	711.04167
2897.751	728.70833
2899.892	715.04167
2902.03	745.70833
2904.168	732.70833
2906.304	740.04167
2908.439	769.375
2910.572	746.70833
2912.704	767.70833
2914.835	756.375
2916.965	758.04167
2919.093	779.375
2921.219	758.04167
2923.345	764.375
2925.469	757.375
2927.591	735.04167
2929.712	718.04167
2931.832	716.70833
2933.951	690.70833
2936.068	687.04167
2938.184	669.04167
2940.299	645.70833
2942.412	628.04167
2944.524	597.375
2946.634	589.375
2948.744	543.04167
2950.851	560.375
2952.958	534.70833
2955.063	522.04167
2957.167	511.375
2959.269	486.04167
2961.371	511.375
2963.471	469.375
2965.569	475.375
2967.666	443.04167
2969.762	423.70833
2971.857	429.70833
2973.95	406.04167
2976.042	409.375
2978.133	395.70833
2980.222	381.375
2982.31	364.375
2984.396	351.70833
2986.482	345.70833
2988.566	345.04167
2990.648	336.375
2992.73	336.70833
2994.81	333.375
2996.889	323.70833
2998.966	332.04167
3001.042	330.70833
3003.117	327.375
3005.191	322.04167
3007.263	318.04167
3009.334	302.375
3011.403	314.375
3013.472	302.375
3015.539	303.70833
3017.604	305.70833
3019.669	278.04167
3021.732	282.70833
3023.794	279.04167
3025.854	271.375
3027.914	277.375
3029.971	282.70833
3032.028	273.70833
3034.083	284.375
3036.137	269.375
3038.19	260.70833
3040.242	257.04167
3042.292	249.70833
3044.341	252.70833
3046.388	267.375
3048.435	246.70833
3050.48	254.375
3052.524	248.375
3054.566	235.70833
3056.607	244.04167
3058.647	239.70833
3060.686	235.04167
3062.723	219.375
3064.759	208.04167
3066.794	-0.625
3068.828	3.375
3070.86	1.375
