-0.839	377.33333
3.438	446.66667
7.711	139.33333
11.981	54.33333
16.247	42.33333
20.509	45.66667
24.768	41.33333
29.024	49.66667
33.276	41.66667
37.524	47.66667
41.769	45
46.01	32.33333
50.247	44
54.481	53.66667
58.712	57.66667
62.939	45.66667
67.162	63.66667
71.382	54.66667
75.599	40.33333
79.812	57.66667
84.021	77
88.227	57.33333
92.429	55
96.628	44.66667
100.823	66.66667
105.015	69.33333
109.204	59.33333
113.388	68.66667
117.57	69.33333
121.748	76.66667
125.922	70
130.093	84.33333
134.261	81.66667
138.425	84.33333
142.585	126.66667
146.742	110
150.896	136.33333
155.046	161.33333
159.193	249
163.336	422
167.476	748.33333
171.613	1382.66667
175.746	2279.66667
179.875	3394.66667
184.002	4445.33333
188.124	5142
192.244	5343
196.36	5244.33333
200.472	5072.33333
204.581	4891.33333
208.687	4749.66667
212.79	4648
216.889	4587.33333
220.984	4589
225.077	4546
229.165	4525.33333
233.251	4530.66667
237.333	4471.33333
241.412	4398.33333
245.487	4329.33333
249.559	4277.33333
253.628	4239
257.694	4180.66667
261.756	4149
265.814	4020.66667
269.87	3882
273.922	3776.33333
277.97	3676.66667
282.016	3608
286.058	3588.33333
290.097	3633.33333
294.132	3657.66667
298.164	3631.33333
302.193	3439.66667
306.219	3209.33333
310.241	3004.33333
314.26	2773
318.276	2612.66667
322.288	2497.33333
326.297	2387
330.303	2309
334.305	2250.66667
338.305	2202
342.301	2181
346.294	2146
350.283	2150.33333
354.269	2133.33333
358.252	2105.66667
362.232	2088.33333
366.209	2076.66667
370.182	2046
374.152	2038.33333
378.119	2033.66667
382.083	2035.33333
386.043	2035
390	2021.66667
393.954	2018.33333
397.905	2003.33333
401.852	2001.66667
405.797	1986
409.738	1996.66667
413.676	1992
417.61	1993
421.542	1963
425.47	1936
429.396	1923
433.318	1919
437.236	1907
441.152	1953.66667
445.065	1860
448.974	1889
452.88	1849.66667
456.783	1846.33333
460.683	1818.33333
464.58	1815
468.473	1818.66667
472.364	1857
476.251	1828.33333
480.135	1863
484.016	1880.66667
487.894	1876
491.769	1875.66667
495.641	1917
499.509	1897
503.375	1887
507.237	1920
511.096	2004
514.952	2294
518.805	2612.66667
522.655	2733
526.502	2340
530.346	1996.33333
534.187	1940.33333
538.024	1921.33333
541.859	1915.66667
545.69	1937
549.519	1910.33333
553.344	1915
557.166	1872
560.985	1833
564.802	1812.66667
568.615	1796
572.425	1738.33333
576.232	1761.33333
580.036	1742
583.836	1752.66667
587.634	1754.33333
591.429	1753.33333
595.221	1820
599.01	1802
602.796	1840.33333
606.578	1823
610.358	1835
614.135	1832.33333
617.909	1817
621.679	1796
625.447	1782.33333
629.212	1782
632.973	1780.66667
636.732	1765.66667
640.488	1780.66667
644.241	1753.66667
647.991	1761.66667
651.737	1770.66667
655.481	1766.33333
659.222	1761
662.96	1750.66667
666.695	1786.33333
670.427	1778
674.156	1795.33333
677.882	1778.66667
681.605	1769
685.325	1753.33333
689.043	1755
692.757	1729.66667
696.468	1729
700.177	1736.66667
703.882	1725.66667
707.585	1709.33333
711.284	1699.66667
714.981	1702.33333
718.675	1707.66667
722.366	1711.33333
726.054	1719.66667
729.739	1698
733.421	1717
737.1	1706.66667
740.777	1727.33333
744.45	1727.33333
748.121	1741.33333
751.789	1780.33333
755.453	1750.33333
759.115	1792.66667
762.774	1786.66667
766.431	1794.33333
770.084	1800.33333
773.734	1843.33333
777.382	1857.66667
781.027	1869.66667
784.669	1868
788.308	1900.66667
791.944	1924
795.577	1912.66667
799.208	1938.33333
802.835	1949.66667
806.46	1935.66667
810.082	1966.33333
813.701	1955
817.317	1973
820.931	1979
824.542	1966.66667
828.149	1978
831.754	1923.33333
835.357	1918
838.956	1932.66667
842.553	1935.66667
846.146	1916.33333
849.737	1874.33333
853.326	1884
856.911	1897
860.493	1915
864.073	1912.66667
867.65	1946
871.225	1981
874.796	1970
878.365	1972.33333
881.931	1971.33333
885.494	1987.66667
889.054	1980.33333
892.612	1987.66667
896.166	1961.66667
899.719	1944
903.268	1910
906.814	1897
910.358	1878.66667
913.899	1876
917.438	1877.66667
920.973	1854
924.506	1893.33333
928.036	1945.33333
931.564	1978.33333
935.088	2027.66667
938.61	2047.33333
942.129	2044
945.646	2106
949.16	2133.66667
952.671	2155.66667
956.179	2151.33333
959.685	2137.66667
963.188	2131
966.688	2125.66667
970.185	2070.66667
973.68	2015
977.173	1972
980.662	1947
984.149	1952.66667
987.633	1913.66667
991.114	1974
994.593	1992.33333
998.069	2031
1001.542	2093
1005.013	2066
1008.481	1952.66667
1011.947	1902.66667
1015.409	1887
1018.869	1889.33333
1022.327	1910.33333
1025.782	1886
1029.234	1876
1032.683	1857.33333
1036.13	1797.33333
1039.574	1730.33333
1043.016	1681
1046.455	1659.66667
1049.891	1659.33333
1053.325	1657.33333
1056.756	1656
1060.184	1669.66667
1063.61	1680
1067.033	1681.66667
1070.454	1682
1073.872	1715
1077.287	1718
1080.7	1693
1084.11	1693
1087.517	1693.66667
1090.922	1666
1094.325	1643
1097.724	1635.66667
1101.122	1632.66667
1104.516	1648
1107.908	1626.33333
1111.298	1661
1114.684	1664.66667
1118.069	1692.66667
1121.45	1716.66667
1124.83	1718
1128.206	1730
1131.58	1724.33333
1134.951	1793.33333
1138.32	1847.66667
1141.687	1920.33333
1145.05	1944.66667
1148.412	1952.33333
1151.77	1949
1155.126	1954.66667
1158.48	1945.66667
1161.831	1937
1165.18	1941
1168.525	1990.33333
1171.869	1969.33333
1175.21	1991
1178.548	2021
1181.884	2011.33333
1185.217	2045.33333
1188.548	2077
1191.877	2103
1195.202	2209.66667
1198.526	2252.66667
1201.846	2252
1205.165	2262
1208.48	2272
1211.794	2254
1215.104	2256.66667
1218.413	2263.66667
1221.719	2250
1225.022	2212.33333
1228.323	2168.33333
1231.621	2155.33333
1234.917	2165.33333
1238.21	2191
1241.501	2148.66667
1244.79	2152
1248.076	2132.66667
1251.359	2153
1254.64	2219.33333
1257.919	2228
1261.195	2234
1264.468	2322.66667
1267.74	2331.66667
1271.008	2326
1274.275	2324.66667
1277.538	2293.33333
1280.8	2285
1284.059	2293
1287.315	2339
1290.569	2333
1293.821	2342.66667
1297.07	2372
1300.317	2384.33333
1303.562	2357.66667
1306.803	2355
1310.043	2353.66667
1313.28	2309.66667
1316.515	2299
1319.747	2314.66667
1322.977	2282
1326.204	2249.66667
1329.429	2224.66667
1332.652	2233.66667
1335.872	2191
1339.09	2149.33333
1342.306	2147.33333
1345.519	2122.66667
1348.729	2123.33333
1351.938	2126.33333
1355.144	2100
1358.347	2052
1361.548	2056.33333
1364.747	2054.33333
1367.944	2007.33333
1371.138	2032.33333
1374.329	2028
1377.518	2051.66667
1380.705	2055.66667
1383.89	2045.33333
1387.072	1992.33333
1390.252	1927.66667
1393.429	1858.33333
1396.605	1826.33333
1399.777	1744
1402.948	1742.33333
1406.116	1733
1409.282	1706
1412.445	1709.33333
1415.606	1721.33333
1418.765	1741.66667
1421.921	1766
1425.075	1804.66667
1428.227	1867.66667
1431.376	1942.66667
1434.524	2007
1437.668	2080
1440.811	2113.66667
1443.951	2137.33333
1447.089	2114.66667
1450.224	2115.66667
1453.357	2096
1456.488	2087
1459.617	2047.66667
1462.743	2042.33333
1465.867	1984.66667
1468.989	1949.66667
1472.108	1917
1475.225	1875.66667
1478.34	1861
1481.453	1843.33333
1484.563	1861.33333
1487.671	1890
1490.776	1920.33333
1493.88	1952.66667
1496.981	1944.33333
1500.08	1973.33333
1503.176	2031.66667
1506.271	2025.66667
1509.363	2077
1512.452	2074.66667
1515.54	2104.33333
1518.625	2115
1521.708	2196.33333
1524.789	2207
1527.867	2297.33333
1530.944	2411.66667
1534.018	2493
1537.089	2586.33333
1540.159	2608.33333
1543.226	2609.33333
1546.291	2562.66667
1549.354	2526.33333
1552.415	2457.33333
1555.473	2421.66667
1558.529	2377.33333
1561.583	2370.66667
1564.634	2334.66667
1567.684	2360.33333
1570.731	2361.33333
1573.776	2407.33333
1576.819	2424
1579.859	2455.33333
1582.898	2498.66667
1585.934	2533.66667
1588.968	2534.33333
1591.999	2522.66667
1595.029	2524.66667
1598.056	2576.66667
1601.081	2586.66667
1604.104	2568
1607.125	2562.33333
1610.144	2501.33333
1613.16	2458.66667
1616.174	2384.33333
1619.186	2334
1622.196	2288.33333
1625.203	2233.66667
1628.209	2186.33333
1631.212	2155.33333
1634.213	2148
1637.212	2165.33333
1640.209	2163.33333
1643.203	2092.66667
1646.196	2042.33333
1649.186	1959
1652.174	1906.66667
1655.16	1830
1658.144	1812.66667
1661.125	1708
1664.105	1637.33333
1667.082	1566
1670.057	1472.66667
1673.03	1391.66667
1676.001	1304
1678.97	1231
1681.937	1163.66667
1684.901	1116.66667
1687.863	1067.33333
1690.824	1020
1693.782	1015
1696.738	967.33333
1699.692	954
1702.643	928
1705.593	906.66667
1708.54	912.66667
1711.486	900
1714.429	873
1717.37	887
1720.309	861.33333
1723.246	885.33333
1726.181	852
1729.113	863
1732.044	841.66667
1734.972	831
1737.899	846.66667
1740.823	843.33333
1743.745	852.33333
1746.665	801
1749.583	795.66667
1752.499	787
1755.413	785.33333
1758.325	762.33333
1761.235	775
1764.142	750.33333
1767.048	740
1769.951	742.33333
1772.852	748.33333
1775.752	737.33333
1778.649	744
1781.544	743
1784.437	709.66667
1787.328	737
1790.217	714
1793.104	698
1795.989	697.66667
1798.872	700
1801.753	726.33333
1804.631	707.66667
1807.508	715.33333
1810.383	715.33333
1813.255	701.33333
1816.126	710.33333
1818.994	707
1821.861	693.66667
1824.725	700
1827.587	698.33333
1830.448	694.33333
1833.306	676
1836.162	692
1839.017	679.33333
1841.869	680.33333
1844.719	682
1847.567	668
1850.414	658.33333
1853.258	666.33333
1856.1	683.33333
1858.94	685
1861.778	674.33333
1864.614	663.66667
1867.448	674.33333
1870.28	662.33333
1873.111	690.33333
1875.939	684
1878.765	688.66667
1881.589	665
1884.411	672.66667
1887.231	675.66667
1890.049	669
1892.865	676.66667
1895.68	654
1898.492	674
1901.302	666.66667
1904.11	668
1906.916	655.66667
1909.721	643.66667
1912.523	662.66667
1915.323	662.33333
1918.122	651
1920.918	667
1923.712	653.33333
1926.505	656.66667
1929.295	637.66667
1932.084	662.33333
1934.87	658.33333
1937.655	660.66667
1940.438	659.33333
1943.218	654.33333
1945.997	657
1948.774	669.33333
1951.549	659.66667
1954.322	649
1957.093	660
1959.862	647.33333
1962.629	645.33333
1965.394	646
1968.157	641
1970.918	653.66667
1973.678	640
1976.435	655
1979.19	641.66667
1981.944	638.66667
1984.696	638.66667
1987.445	633
1990.193	642.33333
1992.939	666.33333
1995.683	645
1998.425	628.33333
2001.165	667.66667
2003.903	639
2006.639	647.33333
2009.374	656.66667
2012.106	651.66667
2014.837	639.66667
2017.566	655.66667
2020.292	656.66667
2023.017	658.33333
2025.74	645
2028.461	643.66667
2031.18	651
2033.898	639.66667
2036.613	656.33333
2039.327	656.33333
2042.038	636.66667
2044.748	646.66667
2047.456	652
2050.162	643.66667
2052.866	652.33333
2055.568	662.66667
2058.268	651
2060.967	650
2063.663	641.33333
2066.358	645
2069.051	644.66667
2071.742	641
2074.431	663
2077.118	647.66667
2079.804	640.66667
2082.487	651
2085.169	671
2087.849	677
2090.527	656.33333
2093.203	654.66667
2095.877	663
2098.55	674.33333
2101.22	675.33333
2103.889	686.33333
2106.556	694
2109.221	692.66667
2111.884	695
2114.546	735.66667
2117.205	748
2119.863	800.33333
2122.519	810.66667
2125.173	850
2127.825	891.66667
2130.475	888.33333
2133.124	862.66667
2135.771	830.66667
2138.416	843.33333
2141.059	795
2143.7	767.66667
2146.339	749.33333
2148.977	714.33333
2151.613	729
2154.247	727
2156.879	712.33333
2159.51	702.66667
2162.138	696
2164.765	694.66667
2167.39	687.33333
2170.013	707
2172.634	703
2175.254	692
2177.872	719.66667
2180.488	685.33333
2183.102	691
2185.714	689.66667
2188.325	665
2190.934	678.66667
2193.541	693.66667
2196.146	686
2198.75	671
2201.351	686.33333
2203.951	651.66667
2206.549	686.66667
2209.146	669.66667
2211.74	678.66667
2214.333	690.33333
2216.924	660
2219.514	678.33333
2222.101	679.66667
2224.687	693
2227.271	684.66667
2229.853	682.66667
2232.433	668.33333
2235.012	693.33333
2237.589	690
2240.164	700.66667
2242.738	683.66667
2245.309	679
2247.879	687.33333
2250.448	683.66667
2253.014	679.33333
2255.579	686
2258.142	686.33333
2260.703	681.66667
2263.262	693
2265.82	677.66667
2268.376	682.66667
2270.93	676.66667
2273.483	680
2276.033	695
2278.583	695.33333
2281.13	689.33333
2283.675	680
2286.219	685
2288.761	698
2291.302	696.33333
2293.841	706.66667
2296.377	677.66667
2298.913	696
2301.446	710
2303.978	699.33333
2306.508	693
2309.037	705.66667
2311.563	707.33333
2314.088	710
2316.612	695
2319.133	700.66667
2321.653	711.66667
2324.171	693
2326.688	712.33333
2329.202	704.66667
2331.715	715
2334.227	714
2336.736	723
2339.244	712
2341.751	711
2344.255	725
2346.758	718.66667
2349.259	715
2351.759	720
2354.257	721.33333
2356.753	719.33333
2359.247	732
2361.74	739
2364.231	735
2366.721	748.33333
2369.209	737.33333
2371.695	748.33333
2374.179	742.66667
2376.662	742.66667
2379.143	759.66667
2381.622	746.33333
2384.1	767.66667
2386.576	747
2389.051	769.33333
2391.524	769.33333
2393.995	768.66667
2396.464	760.33333
2398.932	762.33333
2401.398	767.33333
2403.863	772.66667
2406.325	771
2408.787	788.66667
2411.246	777.33333
2413.704	773.66667
2416.16	789.33333
2418.615	782.66667
2421.068	808
2423.519	799.33333
2425.969	799
2428.417	797
2430.863	823.33333
2433.308	800.33333
2435.751	806.33333
2438.193	805.66667
2440.633	813.33333
2443.071	816.33333
2445.508	795
2447.943	814.66667
2450.376	814
2452.808	817.66667
2455.238	813.33333
2457.667	866
2460.093	835.66667
2462.519	822.33333
2464.942	827.33333
2467.365	826.33333
2469.785	858.33333
2472.204	840.33333
2474.621	831
2477.037	866
2479.451	833.66667
2481.863	841.33333
2484.274	846
2486.683	849
2489.091	862
2491.497	855
2493.901	857.66667
2496.304	863.33333
2498.705	877.33333
2501.105	870.66667
2503.503	891
2505.899	865.66667
2508.294	890
2510.687	883
2513.079	882.33333
2515.469	875.66667
2517.858	894
2520.245	888.33333
2522.63	891
2525.014	890.33333
2527.396	887.33333
2529.776	884.66667
2532.156	903.66667
2534.533	898.66667
2536.909	890.33333
2539.283	891.33333
2541.656	903.33333
2544.027	916
2546.397	920.33333
2548.765	920
2551.131	918
2553.496	919
2555.86	944.66667
2558.221	921.66667
2560.582	932.66667
2562.94	920.33333
2565.298	955.66667
2567.653	957.66667
2570.007	919
2572.36	955
2574.711	937.33333
2577.06	972.33333
2579.408	966.33333
2581.754	965.66667
2584.099	979
2586.442	972
2588.784	981.33333
2591.124	962.33333
2593.463	969.66667
2595.8	989.33333
2598.135	970.66667
2600.469	979.66667
2602.802	996
2605.133	991.66667
2607.462	995.33333
2609.79	984
2612.116	1008.66667
2614.441	1017.66667
2616.764	1012.66667
2619.086	1015.66667
2621.406	997.66667
2623.725	1035.66667
2626.042	1033.66667
2628.358	1019.33333
2630.672	1024
2632.985	1051.66667
2635.296	1044.33333
2637.606	1046.33333
2639.914	1029
2642.22	1052
2644.525	1051.33333
2646.829	1063.33333
2649.131	1086.66667
2651.432	1094.33333
2653.731	1086.66667
2656.028	1099.33333
2658.324	1111.66667
2660.619	1088.33333
2662.912	1118
2665.204	1117
2667.494	1129.33333
2669.782	1106.66667
2672.07	1117
2674.355	1124.33333
2676.639	1122
2678.922	1103.33333
2681.203	1119.33333
2683.483	1103.33333
2685.761	1105.33333
2688.038	1123
2690.313	1139.33333
2692.587	1127
2694.859	1126.66667
2697.13	1148
2699.399	1154
2701.667	1158.33333
2703.933	1150
2706.198	1169.66667
2708.461	1164
2710.723	1173.33333
2712.984	1161
2715.243	1183.66667
2717.5	1176
2719.757	1207
2722.011	1191
2724.264	1204
2726.516	1218.33333
2728.766	1202.33333
2731.015	1222.33333
2733.262	1224.33333
2735.508	1232
2737.753	1246
2739.996	1227.66667
2742.237	1222
2744.477	1236.33333
2746.716	1242
2748.953	1237
2751.189	1231.66667
2753.423	1238.33333
2755.656	1225.33333
2757.887	1228.33333
2760.117	1228
2762.346	1211.66667
2764.573	1216
2766.798	1228.66667
2769.022	1225.66667
2771.245	1244.66667
2773.467	1238.33333
2775.686	1269.33333
2777.905	1248
2780.122	1272
2782.337	1268
2784.552	1268.66667
2786.764	1265
2788.976	1278
2791.186	1290.33333
2793.394	1303.33333
2795.601	1313.33333
2797.807	1329.66667
2800.011	1323.66667
2802.214	1323.66667
2804.415	1324.33333
2806.615	1323.66667
2808.814	1331
2811.011	1351.66667
2813.206	1337.66667
2815.401	1366.33333
2817.594	1336.66667
2819.785	1342.66667
2821.975	1339.33333
2824.164	1351.33333
2826.351	1364
2828.537	1381.33333
2830.722	1373.33333
2832.905	1392.33333
2835.086	1416.66667
2837.267	1437.33333
2839.445	1428.33333
2841.623	1445.33333
2843.799	1461.33333
2845.974	1493.33333
2848.147	1515
2850.319	1514
2852.489	1552
2854.659	1569.33333
2856.826	1596
2858.993	1599.66667
2861.158	1593.33333
2863.321	1596
2865.483	1602.66667
2867.644	1602.66667
2869.804	1584.33333
2871.962	1596
2874.118	1596.66667
2876.274	1587.66667
2878.428	1567
2880.58	1552.66667
2882.731	1568.33333
2884.881	1575.66667
2887.03	1578.33333
2889.177	1555
2891.322	1572.66667
2893.467	1572.33333
2895.61	1588.66667
2897.751	1598.33333
2899.892	1594.66667
2902.03	1599.33333
2904.168	1627
2906.304	1628.33333
2908.439	1651
2910.572	1612.33333
2912.704	1641.33333
2914.835	1658.66667
2916.965	1661
2919.093	1675.66667
2921.219	1658.33333
2923.345	1673.33333
2925.469	1644.33333
2927.591	1637
2929.712	1636.66667
2931.832	1626.66667
2933.951	1591.33333
2936.068	1582.66667
2938.184	1592
2940.299	1556
2942.412	1535.33333
2944.524	1538.33333
2946.634	1532.66667
2948.744	1509.66667
2950.851	1542
2952.958	1495.33333
2955.063	1517
2957.167	1501
2959.269	1492
2961.371	1539.33333
2963.471	1501.33333
2965.569	1497.66667
2967.666	1495.33333
2969.762	1487.33333
2971.857	1464.66667
2973.95	1454.33333
2976.042	1446.33333
2978.133	1431.33333
2980.222	1415.33333
2982.31	1400.33333
2984.396	1394.33333
2986.482	1376.33333
2988.566	1380
2990.648	1386.66667
2992.73	1387.66667
2994.81	1391
2996.889	1383.33333
2998.966	1391.66667
3001.042	1404
3003.117	1394.33333
3005.191	1381.33333
3007.263	1397.66667
3009.334	1379.33333
3011.403	1387.33333
3013.472	1343
3015.539	1348.33333
3017.604	1330.33333
3019.669	1306.66667
3021.732	1312.66667
3023.794	1305.33333
3025.854	1299.66667
3027.914	1309.33333
3029.971	1320.66667
3032.028	1318.33333
3034.083	1316
3036.137	1294
3038.19	1261
3040.242	1237.33333
3042.292	1200.33333
3044.341	1212.33333
3046.388	1213.33333
3048.435	1173
3050.48	1192
3052.524	1181.66667
3054.566	1159.33333
3056.607	1167.33333
3058.647	1157
3060.686	1105.33333
3062.723	1074
3064.759	1039.33333
3066.794	0
3068.828	3
3070.86	3
