-0.839	372.5
3.438	449.16667
7.711	142.83333
11.981	57.5
16.247	45.83333
20.509	45.5
24.768	42.5
29.024	55.16667
33.276	41.16667
37.524	47.5
41.769	46.5
46.01	30.83333
50.247	41.5
54.481	58.16667
58.712	63.5
62.939	47.5
67.162	64.83333
71.382	52.16667
75.599	39.83333
79.812	58.83333
84.021	72.16667
88.227	57.16667
92.429	59.5
96.628	48.5
100.823	64.16667
105.015	73.83333
109.204	58.5
113.388	71.5
117.57	70.16667
121.748	77.5
125.922	73.5
130.093	92.16667
134.261	90.5
138.425	86.16667
142.585	121.5
146.742	113.16667
150.896	142.83333
155.046	163.16667
159.193	253.83333
163.336	415.83333
167.476	755.83333
171.613	1401.16667
175.746	2342.83333
179.875	3479.5
184.002	4526.16667
188.124	5233.5
192.244	5468.5
196.36	5379.16667
200.472	5220.16667
204.581	5067.83333
208.687	4899.16667
212.79	4831.5
216.889	4789.83333
220.984	4736.5
225.077	4720.16667
229.165	4716.5
233.251	4707.83333
237.333	4666.83333
241.412	4571.83333
245.487	4574.16667
249.559	4474.83333
253.628	4455.5
257.694	4392.83333
261.756	4311.5
265.814	4260.16667
269.87	4078.16667
273.922	3976.16667
277.97	3859.16667
282.016	3777.83333
286.058	3767.83333
290.097	3795.16667
294.132	3841.5
298.164	3800.5
302.193	3664.5
306.219	3405.16667
310.241	3193.16667
314.26	2938.5
318.276	2777.83333
322.288	2655.83333
326.297	2530.16667
330.303	2474.5
334.305	2402.16667
338.305	2363.5
342.301	2330.83333
346.294	2325.5
350.283	2298.83333
354.269	2280.16667
358.252	2257.5
362.232	2245.16667
366.209	2244.83333
370.182	2214.5
374.152	2214.16667
378.119	2224.83333
382.083	2198.83333
386.043	2205.5
390	2193.16667
393.954	2203.16667
397.905	2173.16667
401.852	2166.5
405.797	2165.83333
409.738	2162.16667
413.676	2175.16667
417.61	2170.5
421.542	2141.83333
425.47	2145.83333
429.396	2108.5
433.318	2088.5
437.236	2078.83333
441.152	2101.83333
445.065	2059.5
448.974	2047.5
452.88	2026.16667
456.783	2006.16667
460.683	2002.83333
464.58	2015.83333
468.473	1998.16667
472.364	2019.16667
476.251	2002.16667
480.135	2029.83333
484.016	2068.83333
487.894	2073.16667
491.769	2073.16667
495.641	2077.5
499.509	2069.83333
503.375	2075.16667
507.237	2091.5
511.096	2196.16667
514.952	2486.5
518.805	2750.83333
522.655	2903.83333
526.502	2514.83333
530.346	2191.83333
534.187	2112.83333
538.024	2104.5
541.859	2098.5
545.69	2119.16667
549.519	2089.5
553.344	2078.5
557.166	2041.5
560.985	2016.5
564.802	1983.16667
568.615	1949.5
572.425	1907.5
576.232	1918.16667
580.036	1901.16667
583.836	1915.83333
587.634	1931.16667
591.429	1920.83333
595.221	1977.83333
599.01	1985.5
602.796	1998.16667
606.578	1999.83333
610.358	2007.5
614.135	1997.5
617.909	1993.16667
621.679	1956.16667
625.447	1933.5
629.212	1948.5
632.973	1943.83333
636.732	1932.83333
640.488	1960.16667
644.241	1926.5
647.991	1922.5
651.737	1955.83333
655.481	1921.5
659.222	1943.5
662.96	1944.16667
666.695	1961.83333
670.427	1952.16667
674.156	1958.5
677.882	1946.5
681.605	1927.83333
685.325	1907.83333
689.043	1927.5
692.757	1888.83333
696.468	1913.83333
700.177	1899.83333
703.882	1881.5
707.585	1869.16667
711.284	1847.83333
714.981	1866.83333
718.675	1881.83333
722.366	1878.16667
726.054	1866.16667
729.739	1867.16667
733.421	1879.83333
737.1	1878.5
740.777	1893.16667
744.45	1890.16667
748.121	1901.83333
751.789	1927.5
755.453	1933.5
759.115	1959.5
762.774	1933.83333
766.431	1946.83333
770.084	1983.5
773.734	1975.16667
777.382	1993.16667
781.027	2027.16667
784.669	2060.16667
788.308	2038.83333
791.944	2057.5
795.577	2046.83333
799.208	2075.16667
802.835	2104.5
806.46	2104.5
810.082	2124.16667
813.701	2153.83333
817.317	2147.16667
820.931	2152.16667
824.542	2150.5
828.149	2129.5
831.754	2085.16667
835.357	2070.83333
838.956	2071.83333
842.553	2059.16667
846.146	2057.5
849.737	2037.83333
853.326	2046.5
856.911	2028.16667
860.493	2045.5
864.073	2051.16667
867.65	2069.5
871.225	2104.16667
874.796	2093.16667
878.365	2092.5
881.931	2124.83333
885.494	2127.83333
889.054	2132.5
892.612	2116.83333
896.166	2081.5
899.719	2080.16667
903.268	2050.83333
906.814	2043.16667
910.358	2012.5
913.899	1996.83333
917.438	2026.16667
920.973	2015.83333
924.506	2041.5
928.036	2103.5
931.564	2142.83333
935.088	2186.83333
938.61	2171.5
942.129	2221.83333
945.646	2246.83333
949.16	2266.5
952.671	2273.83333
956.179	2319.5
959.685	2279.5
963.188	2315.83333
966.688	2293.5
970.185	2219.16667
973.68	2183.5
977.173	2105.83333
980.662	2096.16667
984.149	2079.16667
987.633	2065.16667
991.114	2098.83333
994.593	2135.83333
998.069	2181.5
1001.542	2222.83333
1005.013	2212.83333
1008.481	2089.83333
1011.947	2058.83333
1015.409	2042.16667
1018.869	2031.5
1022.327	2024.16667
1025.782	2025.83333
1029.234	2028.83333
1032.683	1968.5
1036.13	1926.16667
1039.574	1880.16667
1043.016	1814.5
1046.455	1777.83333
1049.891	1773.16667
1053.325	1791.5
1056.756	1776.83333
1060.184	1783.83333
1063.61	1783.83333
1067.033	1814.16667
1070.454	1813.5
1073.872	1840.16667
1077.287	1824.83333
1080.7	1835.5
1084.11	1826.5
1087.517	1807.83333
1090.922	1780.83333
1094.325	1746.83333
1097.724	1740.5
1101.122	1763.5
1104.516	1736.16667
1107.908	1732.5
1111.298	1788.5
1114.684	1789.5
1118.069	1818.83333
1121.45	1832.5
1124.83	1817.83333
1128.206	1826.5
1131.58	1859.83333
1134.951	1886.16667
1138.32	1942.5
1141.687	2034.83333
1145.05	2062.83333
1148.412	2075.5
1151.77	2066.5
1155.126	2053.83333
1158.48	2015.83333
1161.831	2012.16667
1165.18	2034.83333
1168.525	2060.83333
1171.869	2088.83333
1175.21	2085.83333
1178.548	2110.5
1181.884	2120.83333
1185.217	2136.83333
1188.548	2191.83333
1191.877	2220.83333
1195.202	2294.5
1198.526	2348.83333
1201.846	2389.16667
1205.165	2356.83333
1208.48	2345.16667
1211.794	2359.16667
1215.104	2377.83333
1218.413	2370.83333
1221.719	2356.5
1225.022	2343.5
1228.323	2293.83333
1231.621	2264.83333
1234.917	2269.83333
1238.21	2280.5
1241.501	2250.5
1244.79	2247.83333
1248.076	2235.16667
1251.359	2268.16667
1254.64	2309.16667
1257.919	2316.5
1261.195	2370.5
1264.468	2379.5
1267.74	2425.83333
1271.008	2444.16667
1274.275	2432.16667
1277.538	2399.16667
1280.8	2434.16667
1284.059	2412.16667
1287.315	2451.5
1290.569	2442.5
1293.821	2446.5
1297.07	2463.5
1300.317	2469.16667
1303.562	2495.5
1306.803	2449.16667
1310.043	2438.5
1313.28	2425.83333
1316.515	2434.83333
1319.747	2425.5
1322.977	2411.16667
1326.204	2370.83333
1329.429	2361.5
1332.652	2357.83333
1335.872	2331.83333
1339.09	2284.83333
1342.306	2296.16667
1345.519	2267.83333
1348.729	2264.5
1351.938	2288.83333
1355.144	2264.5
1358.347	2193.83333
1361.548	2197.83333
1364.747	2161.16667
1367.944	2148.83333
1371.138	2164.5
1374.329	2149.16667
1377.518	2176.83333
1380.705	2182.83333
1383.89	2176.16667
1387.072	2112.16667
1390.252	2044.5
1393.429	1970.83333
1396.605	1916.16667
1399.777	1844.5
1402.948	1826.83333
1406.116	1818.16667
1409.282	1789.83333
1412.445	1796.16667
1415.606	1841.83333
1418.765	1863.5
1421.921	1877.83333
1425.075	1910.83333
1428.227	1971.16667
1431.376	2036.5
1434.524	2102.16667
1437.668	2185.16667
1440.811	2217.83333
1443.951	2237.5
1447.089	2220.16667
1450.224	2229.16667
1453.357	2214.83333
1456.488	2214.5
1459.617	2154.16667
1462.743	2153.16667
1465.867	2072.83333
1468.989	2043.16667
1472.108	2028.5
1475.225	2013.83333
1478.34	1978.83333
1481.453	1982.16667
1484.563	1976.83333
1487.671	1991.83333
1490.776	2018.5
1493.88	2029.5
1496.981	2047.5
1500.08	2071.83333
1503.176	2091.83333
1506.271	2121.83333
1509.363	2156.83333
1512.452	2156.83333
1515.54	2208.83333
1518.625	2217.83333
1521.708	2272.83333
1524.789	2341.83333
1527.867	2398.16667
1530.944	2512.83333
1534.018	2603.16667
1537.089	2715.83333
1540.159	2728.83333
1543.226	2701.16667
1546.291	2677.16667
1549.354	2616.83333
1552.415	2570.16667
1555.473	2500.16667
1558.529	2481.5
1561.583	2437.83333
1564.634	2448.83333
1567.684	2427.16667
1570.731	2440.16667
1573.776	2476.5
1576.819	2522.83333
1579.859	2563.83333
1582.898	2600.5
1585.934	2621.83333
1588.968	2609.16667
1591.999	2611.16667
1595.029	2617.83333
1598.056	2638.16667
1601.081	2654.5
1604.104	2648.16667
1607.125	2617.5
1610.144	2577.5
1613.16	2524.83333
1616.174	2487.83333
1619.186	2433.5
1622.196	2366.83333
1625.203	2341.16667
1628.209	2314.16667
1631.212	2286.83333
1634.213	2288.16667
1637.212	2320.16667
1640.209	2335.16667
1643.203	2288.83333
1646.196	2205.16667
1649.186	2113.83333
1652.174	2063.83333
1655.16	1974.83333
1658.144	1928.83333
1661.125	1830.83333
1664.105	1738.16667
1667.082	1656.5
1670.057	1588.5
1673.03	1478.5
1676.001	1393.83333
1678.97	1317.16667
1681.937	1238.83333
1684.901	1174.16667
1687.863	1142.5
1690.824	1092.5
1693.782	1083.5
1696.738	1023.83333
1699.692	1012.16667
1702.643	981.83333
1705.593	979.5
1708.54	971.83333
1711.486	959.83333
1714.429	938.5
1717.37	920.5
1720.309	923.5
1723.246	934.83333
1726.181	907.16667
1729.113	911.83333
1732.044	902.5
1734.972	896.83333
1737.899	901.5
1740.823	895.16667
1743.745	902.83333
1746.665	871.5
1749.583	852.16667
1752.499	833.83333
1755.413	842.5
1758.325	816.5
1761.235	813.16667
1764.142	812.16667
1767.048	790.83333
1769.951	803.16667
1772.852	805.83333
1775.752	789.5
1778.649	796.83333
1781.544	797.5
1784.437	782.16667
1787.328	782.5
1790.217	773.5
1793.104	751.5
1795.989	749.16667
1798.872	743.16667
1801.753	779.83333
1804.631	759.16667
1807.508	769.16667
1810.383	762.5
1813.255	766.16667
1816.126	760.16667
1818.994	759.16667
1821.861	744.5
1824.725	747.5
1827.587	747.5
1830.448	750.16667
1833.306	711.16667
1836.162	741.83333
1839.017	722.16667
1841.869	731.83333
1844.719	724.83333
1847.567	719.5
1850.414	706.5
1853.258	721.16667
1856.1	735.16667
1858.94	729.83333
1861.778	724.83333
1864.614	718.16667
1867.448	715.5
1870.28	705.5
1873.111	734.83333
1875.939	713.16667
1878.765	740.83333
1881.589	717.16667
1884.411	715.83333
1887.231	728.16667
1890.049	712.5
1892.865	718.16667
1895.68	716.16667
1898.492	709.5
1901.302	709.5
1904.11	701.83333
1906.916	694.16667
1909.721	683.5
1912.523	707.5
1915.323	701.5
1918.122	686.16667
1920.918	709.16667
1923.712	687.5
1926.505	682.16667
1929.295	679.5
1932.084	697.5
1934.87	694.83333
1937.655	700.16667
1940.438	691.83333
1943.218	694.5
1945.997	687.5
1948.774	704.5
1951.549	707.5
1954.322	690.16667
1957.093	689.16667
1959.862	692.16667
1962.629	695.83333
1965.394	679.5
1968.157	672.16667
1970.918	687.16667
1973.678	675.83333
1976.435	698.83333
1979.19	684.16667
1981.944	676.16667
1984.696	676.5
1987.445	674.83333
1990.193	678.5
1992.939	693.16667
1995.683	680.5
1998.425	666.83333
2001.165	697.16667
2003.903	678.5
2006.639	683.16667
2009.374	700.16667
2012.106	691.16667
2014.837	661.5
2017.566	696.16667
2020.292	690.5
2023.017	684.5
2025.74	683.83333
2028.461	670.5
2031.18	684.16667
2033.898	671.5
2036.613	685.16667
2039.327	681.16667
2042.038	669.5
2044.748	678.5
2047.456	681.5
2050.162	674.5
2052.866	676.83333
2055.568	686.5
2058.268	678.5
2060.967	681.16667
2063.663	665.16667
2066.358	678.5
2069.051	665.16667
2071.742	677.5
2074.431	686.16667
2077.118	677.16667
2079.804	665.16667
2082.487	687.83333
2085.169	688.83333
2087.849	699.83333
2090.527	674.83333
2093.203	695.5
2095.877	699.16667
2098.55	707.83333
2101.22	703.83333
2103.889	694.5
2106.556	697.83333
2109.221	725.16667
2111.884	722.5
2114.546	751.83333
2117.205	756.5
2119.863	816.16667
2122.519	824.16667
2125.173	858.5
2127.825	902.5
2130.475	910.83333
2133.124	878.5
2135.771	871.83333
2138.416	865.83333
2141.059	806.16667
2143.7	802.5
2146.339	781.83333
2148.977	743.83333
2151.613	747.5
2154.247	744.16667
2156.879	714.16667
2159.51	711.83333
2162.138	712.5
2164.765	700.16667
2167.39	704.83333
2170.013	719.83333
2172.634	715.83333
2175.254	711.16667
2177.872	728.83333
2180.488	700.83333
2183.102	700.5
2185.714	704.83333
2188.325	680.5
2190.934	699.16667
2193.541	704.16667
2196.146	697.5
2198.75	683.83333
2201.351	693.16667
2203.951	677.5
2206.549	700.83333
2209.146	684.83333
2211.74	685.16667
2214.333	698.16667
2216.924	683.16667
2219.514	687.83333
2222.101	685.83333
2224.687	701.5
2227.271	692.83333
2229.853	693.5
2232.433	689.5
2235.012	715.16667
2237.589	694.83333
2240.164	704.5
2242.738	696.5
2245.309	684.16667
2247.879	705.5
2250.448	696.5
2253.014	686.16667
2255.579	682.5
2258.142	691.5
2260.703	676.16667
2263.262	695.83333
2265.82	700.16667
2268.376	686.16667
2270.93	675.16667
2273.483	681.16667
2276.033	693.83333
2278.583	698.5
2281.13	696.16667
2283.675	689.16667
2286.219	693.16667
2288.761	700.5
2291.302	694.5
2293.841	703.83333
2296.377	691.16667
2298.913	692.16667
2301.446	713.83333
2303.978	709.5
2306.508	703.5
2309.037	707.83333
2311.563	717.83333
2314.088	721.16667
2316.612	692.16667
2319.133	715.16667
2321.653	714.16667
2324.171	707.16667
2326.688	722.16667
2329.202	714.16667
2331.715	709.83333
2334.227	712.83333
2336.736	714.5
2339.244	708.83333
2341.751	702.83333
2344.255	723.5
2346.758	714.5
2349.259	714.16667
2351.759	731.83333
2354.257	717.5
2356.753	713.5
2359.247	731.83333
2361.74	734.83333
2364.231	732.83333
2366.721	733.83333
2369.209	713.5
2371.695	735.5
2374.179	726.83333
2376.662	732.83333
2379.143	751.5
2381.622	738.16667
2384.1	748.16667
2386.576	749.5
2389.051	759.16667
2391.524	762.5
2393.995	761.83333
2396.464	751.83333
2398.932	757.83333
2401.398	768.5
2403.863	767.83333
2406.325	770.16667
2408.787	762.83333
2411.246	775.83333
2413.704	767.5
2416.16	768.5
2418.615	775.5
2421.068	797.16667
2423.519	783.5
2425.969	778.16667
2428.417	778.5
2430.863	801.16667
2433.308	797.16667
2435.751	785.83333
2438.193	791.5
2440.633	798.5
2443.071	801.5
2445.508	789.5
2447.943	785.83333
2450.376	809.16667
2452.808	805.5
2455.238	805.16667
2457.667	845.83333
2460.093	806.16667
2462.519	811.5
2464.942	827.16667
2467.365	835.16667
2469.785	832.83333
2472.204	822.83333
2474.621	806.83333
2477.037	837.5
2479.451	814.83333
2481.863	810.83333
2484.274	829.5
2486.683	837.83333
2489.091	847.5
2491.497	825.16667
2493.901	848.16667
2496.304	852.5
2498.705	868.83333
2501.105	853.16667
2503.503	875.83333
2505.899	841.83333
2508.294	880.5
2510.687	869.5
2513.079	856.16667
2515.469	851.5
2517.858	865.83333
2520.245	879.5
2522.63	865.5
2525.014	869.5
2527.396	858.16667
2529.776	876.16667
2532.156	893.83333
2534.533	881.16667
2536.909	888.16667
2539.283	874.16667
2541.656	884.16667
2544.027	903.83333
2546.397	887.16667
2548.765	878.5
2551.131	902.5
2553.496	901.5
2555.86	920.16667
2558.221	901.16667
2560.582	904.5
2562.94	907.83333
2565.298	906.16667
2567.653	935.83333
2570.007	912.16667
2572.36	931.5
2574.711	918.83333
2577.06	944.83333
2579.408	937.83333
2581.754	945.83333
2584.099	951.83333
2586.442	940.16667
2588.784	957.83333
2591.124	960.16667
2593.463	964.83333
2595.8	960.16667
2598.135	953.5
2600.469	948.83333
2602.802	963.5
2605.133	979.16667
2607.462	970.83333
2609.79	973.5
2612.116	983.16667
2614.441	977.5
2616.764	993.5
2619.086	984.5
2621.406	978.16667
2623.725	1005.16667
2626.042	993.16667
2628.358	995.5
2630.672	992.5
2632.985	1017.5
2635.296	1008.5
2637.606	1011.5
2639.914	1007.83333
2642.22	1019.16667
2644.525	1029.16667
2646.829	1034.83333
2649.131	1052.16667
2651.432	1052.16667
2653.731	1057.83333
2656.028	1065.16667
2658.324	1070.5
2660.619	1049.83333
2662.912	1079.5
2665.204	1064.16667
2667.494	1076.83333
2669.782	1062.16667
2672.07	1076.5
2674.355	1091.5
2676.639	1093.5
2678.922	1077.16667
2681.203	1077.5
2683.483	1064.5
2685.761	1075.83333
2688.038	1092.83333
2690.313	1105.83333
2692.587	1097.5
2694.859	1083.83333
2697.13	1101.83333
2699.399	1113.5
2701.667	1122.83333
2703.933	1107.5
2706.198	1118.5
2708.461	1130.5
2710.723	1139.5
2712.984	1135.5
2715.243	1150.16667
2717.5	1130.83333
2719.757	1157.16667
2722.011	1149.83333
2724.264	1173.5
2726.516	1183.83333
2728.766	1162.5
2731.015	1178.5
2733.262	1196.83333
2735.508	1198.5
2737.753	1197.83333
2739.996	1181.5
2742.237	1182.16667
2744.477	1197.16667
2746.716	1201.83333
2748.953	1182.16667
2751.189	1186.5
2753.423	1182.16667
2755.656	1175.5
2757.887	1173.83333
2760.117	1191.83333
2762.346	1165.16667
2764.573	1178.5
2766.798	1172.16667
2769.022	1202.5
2771.245	1189.5
2773.467	1193.5
2775.686	1209.16667
2777.905	1207.16667
2780.122	1217.83333
2782.337	1219.83333
2784.552	1205.16667
2786.764	1228.83333
2788.976	1224.83333
2791.186	1244.5
2793.394	1251.5
2795.601	1262.5
2797.807	1265.83333
2800.011	1284.83333
2802.214	1271.5
2804.415	1274.5
2806.615	1282.16667
2808.814	1282.83333
2811.011	1293.16667
2813.206	1271.16667
2815.401	1295.16667
2817.594	1285.5
2819.785	1294.83333
2821.975	1291.16667
2824.164	1297.5
2826.351	1321.5
2828.537	1316.5
2830.722	1341.5
2832.905	1332.5
2835.086	1362.83333
2837.267	1374.5
2839.445	1377.16667
2841.623	1399.5
2843.799	1410.83333
2845.974	1426.83333
2848.147	1466.5
2850.319	1471.5
2852.489	1518.5
2854.659	1516.83333
2856.826	1512.83333
2858.993	1545.83333
2861.158	1527.5
2863.321	1535.83333
2865.483	1556.16667
2867.644	1546.5
2869.804	1535.16667
2871.962	1529.16667
2874.118	1531.16667
2876.274	1539.16667
2878.428	1522.16667
2880.58	1515.16667
2882.731	1486.5
2884.881	1511.5
2887.03	1508.5
2889.177	1524.5
2891.322	1538.16667
2893.467	1524.5
2895.61	1536.16667
2897.751	1546.5
2899.892	1558.5
2902.03	1568.16667
2904.168	1560.83333
2906.304	1568.83333
2908.439	1611.83333
2910.572	1566.5
2912.704	1604.16667
2914.835	1608.16667
2916.965	1605.5
2919.093	1629.5
2921.219	1603.5
2923.345	1624.83333
2925.469	1588.16667
2927.591	1594.83333
2929.712	1568.83333
2931.832	1564.5
2933.951	1547.83333
2936.068	1533.83333
2938.184	1509.83333
2940.299	1510.83333
2942.412	1514.16667
2944.524	1476.16667
2946.634	1499.16667
2948.744	1456.16667
2950.851	1496.5
2952.958	1450.5
2955.063	1473.83333
2957.167	1456.16667
2959.269	1436.83333
2961.371	1474.5
2963.471	1446.16667
2965.569	1449.5
2967.666	1428.16667
2969.762	1424.5
2971.857	1421.5
2973.95	1400.5
2976.042	1402.83333
2978.133	1385.5
2980.222	1371.16667
2982.31	1356.83333
2984.396	1337.83333
2986.482	1332.5
2988.566	1315.83333
2990.648	1323.5
2992.73	1339.16667
2994.81	1315.16667
2996.889	1341.16667
2998.966	1321.16667
3001.042	1348.5
3003.117	1342.83333
3005.191	1334.5
3007.263	1343.16667
3009.334	1320.5
3011.403	1324.83333
3013.472	1322.5
3015.539	1298.83333
3017.604	1295.5
3019.669	1249.83333
3021.732	1254.5
3023.794	1275.5
3025.854	1250.16667
3027.914	1255.5
3029.971	1268.16667
3032.028	1259.5
3034.083	1260.5
3036.137	1250.16667
3038.19	1201.83333
3040.242	1180.16667
3042.292	1162.5
3044.341	1153.83333
3046.388	1156.83333
3048.435	1135.16667
3050.48	1152.5
3052.524	1141.5
3054.566	1123.16667
3056.607	1124.5
3058.647	1080.5
3060.686	1065.5
3062.723	1041.83333
3064.759	1000.16667
3066.794	1.16667
3068.828	3.83333
3070.86	2.16667
