-0.839	403.45833
3.438	484.79167
7.711	148.79167
11.981	54.125
16.247	45.45833
20.509	47.45833
24.768	43.125
29.024	53.45833
33.276	45.125
37.524	50.79167
41.769	45.79167
46.01	32.79167
50.247	48.79167
54.481	55.125
58.712	57.45833
62.939	48.79167
67.162	61.45833
71.382	55.79167
75.599	44.45833
79.812	62.45833
84.021	80.125
88.227	58.79167
92.429	59.79167
96.628	49.45833
100.823	71.45833
105.015	74.125
109.204	66.79167
113.388	74.125
117.57	72.45833
121.748	87.125
125.922	78.125
130.093	94.79167
134.261	94.125
138.425	92.79167
142.585	135.79167
146.742	122.125
150.896	148.45833
155.046	181.79167
159.193	290.45833
163.336	476.79167
167.476	870.79167
171.613	1586.125
175.746	2681.79167
179.875	3931.125
184.002	5152.79167
188.124	5981.79167
192.244	6290.45833
196.36	6277.45833
200.472	6066.45833
204.581	5939.45833
208.687	5794.45833
212.79	5773.45833
216.889	5760.79167
220.984	5759.79167
225.077	5773.79167
229.165	5804.45833
233.251	5806.79167
237.333	5817.79167
241.412	5739.125
245.487	5676.125
249.559	5633.125
253.628	5564.45833
257.694	5526.125
261.756	5457.79167
265.814	5351.125
269.87	5198.45833
273.922	5018.45833
277.97	4914.45833
282.016	4829.45833
286.058	4836.125
290.097	4907.125
294.132	4925.45833
298.164	4886.79167
302.193	4680.79167
306.219	4350.125
310.241	4023.45833
314.26	3707.45833
318.276	3479.79167
322.288	3299.79167
326.297	3126.125
330.303	3031.45833
334.305	2967.125
338.305	2943.125
342.301	2874.45833
346.294	2870.79167
350.283	2839.79167
354.269	2805.125
358.252	2788.45833
362.232	2779.45833
366.209	2750.45833
370.182	2711.79167
374.152	2696.125
378.119	2689.45833
382.083	2696.45833
386.043	2708.79167
390	2697.79167
393.954	2674.45833
397.905	2659.45833
401.852	2659.79167
405.797	2631.45833
409.738	2641.125
413.676	2646.125
417.61	2627.79167
421.542	2611.79167
425.47	2585.125
429.396	2558.79167
433.318	2567.45833
437.236	2572.125
441.152	2579.79167
445.065	2513.79167
448.974	2508.45833
452.88	2492.79167
456.783	2460.125
460.683	2461.125
464.58	2453.79167
468.473	2455.125
472.364	2464.45833
476.251	2476.45833
480.135	2503.45833
484.016	2534.125
487.894	2527.79167
491.769	2544.45833
495.641	2540.125
499.509	2531.79167
503.375	2530.125
507.237	2542.125
511.096	2544.45833
514.952	2590.125
518.805	2679.45833
522.655	2693.125
526.502	2609.45833
530.346	2570.125
534.187	2549.125
538.024	2567.79167
541.859	2566.79167
545.69	2578.79167
549.519	2577.45833
553.344	2549.125
557.166	2532.125
560.985	2479.79167
564.802	2445.45833
568.615	2400.45833
572.425	2342.125
576.232	2346.79167
580.036	2334.125
583.836	2353.45833
587.634	2345.79167
591.429	2373.125
595.221	2429.79167
599.01	2464.125
602.796	2477.125
606.578	2476.79167
610.358	2492.79167
614.135	2455.45833
617.909	2454.125
621.679	2427.125
625.447	2404.125
629.212	2401.45833
632.973	2411.79167
636.732	2394.45833
640.488	2418.125
644.241	2385.125
647.991	2390.45833
651.737	2403.125
655.481	2350.125
659.222	2369.45833
662.96	2342.79167
666.695	2379.45833
670.427	2402.79167
674.156	2406.45833
677.882	2384.125
681.605	2393.79167
685.325	2343.45833
689.043	2378.125
692.757	2338.45833
696.468	2355.79167
700.177	2352.45833
703.882	2333.125
707.585	2305.79167
711.284	2307.45833
714.981	2295.79167
718.675	2311.125
722.366	2327.79167
726.054	2313.125
729.739	2322.125
733.421	2329.125
737.1	2286.45833
740.777	2329.79167
744.45	2330.45833
748.121	2347.125
751.789	2394.125
755.453	2391.125
759.115	2389.79167
762.774	2400.79167
766.431	2428.79167
770.084	2452.125
773.734	2465.125
777.382	2527.79167
781.027	2534.45833
784.669	2574.125
788.308	2547.125
791.944	2579.79167
795.577	2599.79167
799.208	2589.79167
802.835	2607.45833
806.46	2625.125
810.082	2633.125
813.701	2653.79167
817.317	2655.125
820.931	2647.125
824.542	2661.125
828.149	2628.45833
831.754	2610.45833
835.357	2614.79167
838.956	2616.45833
842.553	2626.79167
846.146	2607.125
849.737	2579.79167
853.326	2585.45833
856.911	2552.79167
860.493	2607.45833
864.073	2643.45833
867.65	2671.45833
871.225	2679.79167
874.796	2671.45833
878.365	2699.125
881.931	2713.45833
885.494	2720.45833
889.054	2726.45833
892.612	2708.45833
896.166	2699.79167
899.719	2656.125
903.268	2619.125
906.814	2621.79167
910.358	2599.125
913.899	2566.45833
917.438	2591.79167
920.973	2545.79167
924.506	2599.79167
928.036	2623.79167
931.564	2665.45833
935.088	2702.79167
938.61	2698.79167
942.129	2759.79167
945.646	2815.45833
949.16	2875.79167
952.671	2913.45833
956.179	2906.45833
959.685	2878.45833
963.188	2859.125
966.688	2816.125
970.185	2753.125
973.68	2689.79167
977.173	2636.79167
980.662	2610.79167
984.149	2594.79167
987.633	2587.45833
991.114	2628.45833
994.593	2665.45833
998.069	2756.125
1001.542	2820.125
1005.013	2793.79167
1008.481	2646.125
1011.947	2614.45833
1015.409	2558.79167
1018.869	2585.45833
1022.327	2569.125
1025.782	2537.45833
1029.234	2553.125
1032.683	2499.125
1036.13	2445.125
1039.574	2354.45833
1043.016	2281.79167
1046.455	2251.45833
1049.891	2235.45833
1053.325	2246.45833
1056.756	2242.125
1060.184	2236.125
1063.61	2273.45833
1067.033	2273.45833
1070.454	2286.45833
1073.872	2311.45833
1077.287	2301.45833
1080.7	2304.79167
1084.11	2301.45833
1087.517	2259.79167
1090.922	2206.125
1094.325	2204.125
1097.724	2215.45833
1101.122	2194.125
1104.516	2209.79167
1107.908	2208.45833
1111.298	2259.45833
1114.684	2276.45833
1118.069	2308.79167
1121.45	2341.125
1124.83	2325.125
1128.206	2359.125
1131.58	2376.79167
1134.951	2435.125
1138.32	2522.79167
1141.687	2600.79167
1145.05	2662.45833
1148.412	2672.45833
1151.77	2670.45833
1155.126	2686.79167
1158.48	2655.45833
1161.831	2669.125
1165.18	2667.125
1168.525	2731.45833
1171.869	2750.125
1175.21	2760.125
1178.548	2775.45833
1181.884	2823.125
1185.217	2832.79167
1188.548	2895.45833
1191.877	2962.125
1195.202	3035.79167
1198.526	3100.79167
1201.846	3097.125
1205.165	3103.79167
1208.48	3060.79167
1211.794	3061.45833
1215.104	3073.79167
1218.413	3033.45833
1221.719	3031.45833
1225.022	2984.79167
1228.323	2940.45833
1231.621	2906.125
1234.917	2904.45833
1238.21	2927.125
1241.501	2897.45833
1244.79	2897.45833
1248.076	2881.79167
1251.359	2886.79167
1254.64	3008.125
1257.919	3002.125
1261.195	3058.125
1264.468	3101.125
1267.74	3129.125
1271.008	3147.79167
1274.275	3104.125
1277.538	3102.45833
1280.8	3111.125
1284.059	3097.45833
1287.315	3132.125
1290.569	3157.45833
1293.821	3169.79167
1297.07	3175.79167
1300.317	3196.45833
1303.562	3190.45833
1306.803	3175.125
1310.043	3159.45833
1313.28	3134.125
1316.515	3101.125
1319.747	3083.125
1322.977	3051.45833
1326.204	2992.125
1329.429	2955.79167
1332.652	2932.79167
1335.872	2913.79167
1339.09	2866.45833
1342.306	2859.45833
1345.519	2860.45833
1348.729	2793.79167
1351.938	2799.45833
1355.144	2748.125
1358.347	2704.79167
1361.548	2685.125
1364.747	2677.79167
1367.944	2657.125
1371.138	2671.125
1374.329	2665.45833
1377.518	2683.45833
1380.705	2714.79167
1383.89	2690.79167
1387.072	2599.45833
1390.252	2529.79167
1393.429	2444.45833
1396.605	2366.79167
1399.777	2304.125
1402.948	2267.125
1406.116	2233.79167
1409.282	2247.125
1412.445	2239.45833
1415.606	2267.79167
1418.765	2288.45833
1421.921	2338.79167
1425.075	2387.79167
1428.227	2477.45833
1431.376	2577.45833
1434.524	2666.79167
1437.668	2744.79167
1440.811	2796.125
1443.951	2801.79167
1447.089	2822.79167
1450.224	2791.45833
1453.357	2796.45833
1456.488	2762.45833
1459.617	2721.125
1462.743	2676.125
1465.867	2622.79167
1468.989	2588.45833
1472.108	2554.125
1475.225	2515.125
1478.34	2484.45833
1481.453	2472.79167
1484.563	2488.45833
1487.671	2542.79167
1490.776	2556.79167
1493.88	2608.45833
1496.981	2651.45833
1500.08	2675.79167
1503.176	2719.45833
1506.271	2759.125
1509.363	2803.125
1512.452	2818.79167
1515.54	2856.79167
1518.625	2888.79167
1521.708	2951.79167
1524.789	3024.125
1527.867	3178.125
1530.944	3311.45833
1534.018	3438.79167
1537.089	3559.45833
1540.159	3596.125
1543.226	3587.79167
1546.291	3485.79167
1549.354	3458.45833
1552.415	3396.45833
1555.473	3326.125
1558.529	3255.45833
1561.583	3222.45833
1564.634	3193.125
1567.684	3200.79167
1570.731	3233.45833
1573.776	3243.79167
1576.819	3313.125
1579.859	3371.125
1582.898	3375.79167
1585.934	3419.45833
1588.968	3422.125
1591.999	3416.125
1595.029	3415.125
1598.056	3439.79167
1601.081	3462.125
1604.104	3446.45833
1607.125	3403.45833
1610.144	3341.79167
1613.16	3242.79167
1616.174	3202.45833
1619.186	3103.45833
1622.196	3030.45833
1625.203	2958.125
1628.209	2873.125
1631.212	2847.125
1634.213	2803.45833
1637.212	2790.45833
1640.209	2733.79167
1643.203	2639.79167
1646.196	2579.79167
1649.186	2469.79167
1652.174	2412.45833
1655.16	2297.45833
1658.144	2241.79167
1661.125	2140.79167
1664.105	2041.79167
1667.082	1944.125
1670.057	1858.125
1673.03	1749.45833
1676.001	1649.45833
1678.97	1553.79167
1681.937	1465.45833
1684.901	1393.79167
1687.863	1319.45833
1690.824	1274.45833
1693.782	1253.125
1696.738	1206.125
1699.692	1176.45833
1702.643	1133.79167
1705.593	1125.45833
1708.54	1106.125
1711.486	1114.125
1714.429	1069.79167
1717.37	1074.125
1720.309	1060.45833
1723.246	1060.125
1726.181	1033.45833
1729.113	1030.125
1732.044	1022.125
1734.972	1004.45833
1737.899	1003.79167
1740.823	1005.125
1743.745	1009.125
1746.665	968.79167
1749.583	946.79167
1752.499	945.45833
1755.413	924.45833
1758.325	903.79167
1761.235	903.45833
1764.142	886.125
1767.048	874.45833
1769.951	869.125
1772.852	870.125
1775.752	868.45833
1778.649	871.125
1781.544	873.125
1784.437	839.125
1787.328	857.125
1790.217	838.125
1793.104	803.79167
1795.989	818.45833
1798.872	807.45833
1801.753	829.125
1804.631	811.45833
1807.508	816.79167
1810.383	818.125
1813.255	809.125
1816.126	807.125
1818.994	802.79167
1821.861	801.45833
1824.725	790.79167
1827.587	794.79167
1830.448	780.45833
1833.306	750.45833
1836.162	774.45833
1839.017	765.79167
1841.869	762.125
1844.719	765.45833
1847.567	753.79167
1850.414	742.125
1853.258	745.125
1856.1	761.45833
1858.94	767.125
1861.778	753.45833
1864.614	743.45833
1867.448	747.125
1870.28	733.45833
1873.111	758.125
1875.939	750.79167
1878.765	758.125
1881.589	733.79167
1884.411	727.79167
1887.231	748.45833
1890.049	739.45833
1892.865	739.45833
1895.68	722.79167
1898.492	735.125
1901.302	722.125
1904.11	727.79167
1906.916	714.79167
1909.721	706.125
1912.523	721.125
1915.323	690.79167
1918.122	708.125
1920.918	710.45833
1923.712	704.45833
1926.505	693.125
1929.295	681.125
1932.084	695.79167
1934.87	688.125
1937.655	691.125
1940.438	690.125
1943.218	696.125
1945.997	697.79167
1948.774	694.125
1951.549	699.45833
1954.322	676.79167
1957.093	681.45833
1959.862	686.125
1962.629	669.79167
1965.394	675.45833
1968.157	672.45833
1970.918	666.45833
1973.678	663.79167
1976.435	683.79167
1979.19	659.45833
1981.944	659.79167
1984.696	664.125
1987.445	649.45833
1990.193	656.45833
1992.939	668.79167
1995.683	654.79167
1998.425	639.125
2001.165	674.45833
2003.903	632.79167
2006.639	648.45833
2009.374	652.125
2012.106	650.45833
2014.837	631.79167
2017.566	657.79167
2020.292	649.125
2023.017	645.125
2025.74	639.79167
2028.461	638.79167
2031.18	638.125
2033.898	627.79167
2036.613	629.45833
2039.327	638.79167
2042.038	622.79167
2044.748	618.125
2047.456	625.45833
2050.162	617.79167
2052.866	626.45833
2055.568	627.79167
2058.268	618.45833
2060.967	621.79167
2063.663	595.45833
2066.358	615.45833
2069.051	606.79167
2071.742	616.125
2074.431	615.45833
2077.118	612.125
2079.804	599.45833
2082.487	608.79167
2085.169	613.79167
2087.849	637.79167
2090.527	602.125
2093.203	616.125
2095.877	623.79167
2098.55	617.125
2101.22	632.79167
2103.889	634.79167
2106.556	628.125
2109.221	650.79167
2111.884	648.79167
2114.546	693.45833
2117.205	718.45833
2119.863	767.79167
2122.519	806.125
2125.173	835.79167
2127.825	888.45833
2130.475	890.125
2133.124	866.125
2135.771	832.79167
2138.416	814.125
2141.059	760.45833
2143.7	738.125
2146.339	691.45833
2148.977	658.79167
2151.613	661.45833
2154.247	637.125
2156.879	636.79167
2159.51	619.45833
2162.138	608.125
2164.765	621.79167
2167.39	591.125
2170.013	618.45833
2172.634	615.125
2175.254	598.79167
2177.872	623.125
2180.488	591.125
2183.102	594.45833
2185.714	577.45833
2188.325	557.79167
2190.934	574.45833
2193.541	573.79167
2196.146	556.125
2198.75	558.79167
2201.351	557.125
2203.951	541.125
2206.549	561.79167
2209.146	559.125
2211.74	549.45833
2214.333	545.45833
2216.924	533.125
2219.514	554.45833
2222.101	536.79167
2224.687	553.45833
2227.271	540.125
2229.853	520.45833
2232.433	520.79167
2235.012	535.45833
2237.589	540.79167
2240.164	545.45833
2242.738	524.45833
2245.309	526.79167
2247.879	537.45833
2250.448	529.79167
2253.014	514.125
2255.579	499.125
2258.142	505.45833
2260.703	503.45833
2263.262	507.45833
2265.82	494.79167
2268.376	502.79167
2270.93	487.125
2273.483	494.125
2276.033	503.125
2278.583	491.45833
2281.13	494.45833
2283.675	491.125
2286.219	496.79167
2288.761	485.79167
2291.302	494.79167
2293.841	506.79167
2296.377	470.79167
2298.913	484.79167
2301.446	496.79167
2303.978	493.45833
2306.508	481.45833
2309.037	491.45833
2311.563	489.45833
2314.088	488.125
2316.612	462.125
2319.133	476.79167
2321.653	486.45833
2324.171	463.79167
2326.688	489.125
2329.202	481.125
2331.715	476.125
2334.227	471.125
2336.736	476.45833
2339.244	472.79167
2341.751	463.79167
2344.255	484.45833
2346.758	476.125
2349.259	456.125
2351.759	469.79167
2354.257	464.125
2356.753	467.79167
2359.247	466.125
2361.74	475.125
2364.231	472.79167
2366.721	472.125
2369.209	468.125
2371.695	468.125
2374.179	457.45833
2376.662	459.45833
2379.143	473.125
2381.622	463.45833
2384.1	466.79167
2386.576	462.45833
2389.051	479.125
2391.524	480.79167
2393.995	466.125
2396.464	469.79167
2398.932	461.125
2401.398	460.45833
2403.863	469.125
2406.325	464.125
2408.787	468.125
2411.246	463.79167
2413.704	453.125
2416.16	458.125
2418.615	456.45833
2421.068	471.45833
2423.519	463.45833
2425.969	462.125
2428.417	467.79167
2430.863	482.79167
2433.308	470.45833
2435.751	469.45833
2438.193	463.125
2440.633	459.79167
2443.071	475.45833
2445.508	462.79167
2447.943	451.125
2450.376	460.79167
2452.808	458.125
2455.238	453.125
2457.667	497.125
2460.093	466.45833
2462.519	456.125
2464.942	454.45833
2467.365	462.45833
2469.785	479.45833
2472.204	453.125
2474.621	451.45833
2477.037	480.125
2479.451	450.125
2481.863	452.79167
2484.274	459.45833
2486.683	459.125
2489.091	471.125
2491.497	451.79167
2493.901	462.79167
2496.304	458.79167
2498.705	476.125
2501.105	461.125
2503.503	488.45833
2505.899	456.79167
2508.294	482.45833
2510.687	472.125
2513.079	455.125
2515.469	460.125
2517.858	463.125
2520.245	464.125
2522.63	456.45833
2525.014	446.79167
2527.396	461.79167
2529.776	451.125
2532.156	466.79167
2534.533	456.125
2536.909	460.125
2539.283	446.79167
2541.656	444.125
2544.027	466.79167
2546.397	461.125
2548.765	455.45833
2551.131	462.125
2553.496	466.79167
2555.86	469.45833
2558.221	466.45833
2560.582	459.125
2562.94	446.79167
2565.298	464.79167
2567.653	475.45833
2570.007	450.79167
2572.36	466.45833
2574.711	450.79167
2577.06	478.125
2579.408	469.125
2581.754	462.125
2584.099	471.45833
2586.442	473.79167
2588.784	471.79167
2591.124	477.125
2593.463	469.45833
2595.8	477.79167
2598.135	453.79167
2600.469	459.125
2602.802	478.125
2605.133	479.125
2607.462	457.125
2609.79	457.79167
2612.116	481.125
2614.441	483.125
2616.764	478.45833
2619.086	473.45833
2621.406	461.125
2623.725	491.125
2626.042	483.45833
2628.358	474.45833
2630.672	469.125
2632.985	486.79167
2635.296	485.79167
2637.606	481.79167
2639.914	469.79167
2642.22	481.79167
2644.525	483.125
2646.829	483.125
2649.131	493.79167
2651.432	507.125
2653.731	489.79167
2656.028	498.125
2658.324	499.125
2660.619	496.125
2662.912	504.45833
2665.204	484.45833
2667.494	505.79167
2669.782	497.125
2672.07	510.45833
2674.355	508.125
2676.639	507.45833
2678.922	491.79167
2681.203	503.79167
2683.483	490.45833
2685.761	492.125
2688.038	509.79167
2690.313	514.125
2692.587	507.79167
2694.859	494.125
2697.13	511.79167
2699.399	519.45833
2701.667	523.45833
2703.933	516.79167
2706.198	531.125
2708.461	539.125
2710.723	535.125
2712.984	532.45833
2715.243	523.79167
2717.5	518.45833
2719.757	550.45833
2722.011	540.45833
2724.264	549.79167
2726.516	556.125
2728.766	533.45833
2731.015	543.79167
2733.262	546.79167
2735.508	551.125
2737.753	536.125
2739.996	540.125
2742.237	542.79167
2744.477	546.45833
2746.716	558.125
2748.953	532.45833
2751.189	548.45833
2753.423	543.45833
2755.656	527.79167
2757.887	527.125
2760.117	532.125
2762.346	524.125
2764.573	524.125
2766.798	527.45833
2769.022	530.79167
2771.245	537.45833
2773.467	538.125
2775.686	538.79167
2777.905	539.45833
2780.122	545.125
2782.337	549.125
2784.552	554.125
2786.764	553.79167
2788.976	552.79167
2791.186	559.125
2793.394	570.45833
2795.601	571.125
2797.807	585.45833
2800.011	585.125
2802.214	582.79167
2804.415	586.79167
2806.615	581.45833
2808.814	592.45833
2811.011	591.125
2813.206	599.125
2815.401	616.45833
2817.594	621.79167
2819.785	618.45833
2821.975	609.45833
2824.164	614.125
2826.351	632.79167
2828.537	641.125
2830.722	642.45833
2832.905	653.125
2835.086	679.125
2837.267	708.45833
2839.445	717.125
2841.623	727.125
2843.799	740.79167
2845.974	771.125
2848.147	804.125
2850.319	826.79167
2852.489	849.125
2854.659	844.79167
2856.826	855.79167
2858.993	902.45833
2861.158	864.45833
2863.321	869.125
2865.483	884.125
2867.644	875.125
2869.804	879.45833
2871.962	880.79167
2874.118	873.45833
2876.274	879.45833
2878.428	894.125
2880.58	880.79167
2882.731	874.125
2884.881	871.45833
2887.03	873.79167
2889.177	887.125
2891.322	887.125
2893.467	880.125
2895.61	882.125
2897.751	907.125
2899.892	883.125
2902.03	916.45833
2904.168	912.79167
2906.304	904.45833
2908.439	946.45833
2910.572	920.79167
2912.704	928.79167
2914.835	924.79167
2916.965	935.45833
2919.093	941.79167
2921.219	903.79167
2923.345	947.45833
2925.469	926.125
2927.591	916.45833
2929.712	891.45833
2931.832	889.125
2933.951	864.79167
2936.068	865.79167
2938.184	841.45833
2940.299	838.79167
2942.412	821.125
2944.524	789.125
2946.634	790.79167
2948.744	751.79167
2950.851	771.45833
2952.958	732.79167
2955.063	745.79167
2957.167	733.125
2959.269	702.125
2961.371	725.79167
2963.471	695.45833
2965.569	692.45833
2967.666	683.125
2969.762	681.79167
2971.857	666.45833
2973.95	649.79167
2976.042	641.79167
2978.133	645.45833
2980.222	642.45833
2982.31	609.45833
2984.396	595.79167
2986.482	595.79167
2988.566	594.79167
2990.648	589.45833
2992.73	586.79167
2994.81	576.79167
2996.889	588.79167
2998.966	574.125
3001.042	589.79167
3003.117	575.125
3005.191	577.79167
3007.263	579.125
3009.334	570.45833
3011.403	567.125
3013.472	556.45833
3015.539	550.79167
3017.604	562.45833
3019.669	522.79167
3021.732	536.125
3023.794	534.45833
3025.854	528.45833
3027.914	526.45833
3029.971	540.79167
3032.028	524.79167
3034.083	526.45833
3036.137	518.45833
3038.19	505.45833
3040.242	496.45833
3042.292	479.79167
3044.341	482.79167
3046.388	494.79167
3048.435	470.125
3050.48	488.79167
3052.524	485.125
3054.566	461.79167
3056.607	462.125
3058.647	446.45833
3060.686	455.45833
3062.723	431.125
3064.759	411.125
3066.794	-0.20833
3068.828	2.79167
3070.86	1.45833
