-0.839	414.125
3.438	483.45833
7.711	149.45833
11.981	58.45833
16.247	44.125
20.509	50.125
24.768	41.45833
29.024	58.125
33.276	46.45833
37.524	51.45833
41.769	47.45833
46.01	31.125
50.247	44.45833
54.481	61.45833
58.712	62.45833
62.939	50.125
67.162	61.45833
71.382	60.45833
75.599	46.79167
79.812	61.79167
84.021	79.79167
88.227	57.79167
92.429	57.125
96.628	53.45833
100.823	69.45833
105.015	74.79167
109.204	69.125
113.388	72.125
117.57	77.45833
121.748	84.79167
125.922	80.45833
130.093	95.45833
134.261	95.125
138.425	97.45833
142.585	136.45833
146.742	125.125
150.896	153.45833
155.046	187.45833
159.193	285.45833
163.336	489.45833
167.476	886.45833
171.613	1618.125
175.746	2707.45833
179.875	4023.125
184.002	5297.125
188.124	6182.79167
192.244	6508.125
196.36	6490.125
200.472	6328.45833
204.581	6211.45833
208.687	6057.125
212.79	6024.79167
216.889	6043.45833
220.984	6077.45833
225.077	6128.125
229.165	6151.45833
233.251	6161.125
237.333	6155.79167
241.412	6088.125
245.487	6094.45833
249.559	5981.79167
253.628	5965.45833
257.694	5883.125
261.756	5874.125
265.814	5737.79167
269.87	5576.45833
273.922	5383.125
277.97	5259.79167
282.016	5175.125
286.058	5163.79167
290.097	5240.125
294.132	5282.79167
298.164	5241.45833
302.193	5016.45833
306.219	4694.79167
310.241	4349.79167
314.26	4005.125
318.276	3781.45833
322.288	3594.125
326.297	3416.45833
330.303	3328.79167
334.305	3259.79167
338.305	3197.45833
342.301	3148.45833
346.294	3142.45833
350.283	3108.45833
354.269	3088.45833
358.252	3069.45833
362.232	3063.79167
366.209	3025.45833
370.182	3001.125
374.152	2991.79167
378.119	2972.125
382.083	2993.45833
386.043	3016.79167
390	2976.125
393.954	2960.79167
397.905	2955.45833
401.852	2983.79167
405.797	2912.45833
409.738	2949.79167
413.676	2957.125
417.61	2960.79167
421.542	2898.79167
425.47	2873.79167
429.396	2857.45833
433.318	2865.125
437.236	2835.125
441.152	2871.79167
445.065	2828.125
448.974	2818.45833
452.88	2793.79167
456.783	2774.79167
460.683	2750.125
464.58	2765.79167
468.473	2771.79167
472.364	2774.125
476.251	2772.125
480.135	2813.125
484.016	2820.79167
487.894	2853.79167
491.769	2856.45833
495.641	2864.79167
499.509	2863.125
503.375	2858.79167
507.237	2845.79167
511.096	2852.125
514.952	2933.45833
518.805	2965.45833
522.655	2998.79167
526.502	2932.79167
530.346	2861.79167
534.187	2865.125
538.024	2866.45833
541.859	2881.79167
545.69	2896.45833
549.519	2861.79167
553.344	2861.125
557.166	2816.125
560.985	2767.45833
564.802	2748.79167
568.615	2695.79167
572.425	2679.125
576.232	2656.45833
580.036	2637.125
583.836	2669.125
587.634	2671.79167
591.429	2659.79167
595.221	2728.125
599.01	2755.125
602.796	2783.125
606.578	2791.45833
610.358	2804.79167
614.135	2771.79167
617.909	2776.45833
621.679	2723.79167
625.447	2715.79167
629.212	2715.45833
632.973	2728.45833
636.732	2699.45833
640.488	2699.79167
644.241	2691.45833
647.991	2691.125
651.737	2708.45833
655.481	2692.45833
659.222	2689.125
662.96	2699.79167
666.695	2700.45833
670.427	2719.125
674.156	2717.79167
677.882	2709.79167
681.605	2701.79167
685.325	2672.125
689.043	2671.79167
692.757	2643.45833
696.468	2657.125
700.177	2639.125
703.882	2610.79167
707.585	2619.45833
711.284	2626.45833
714.981	2618.45833
718.675	2624.125
722.366	2624.45833
726.054	2579.79167
729.739	2615.45833
733.421	2624.45833
737.1	2598.45833
740.777	2637.79167
744.45	2654.125
748.121	2661.45833
751.789	2694.125
755.453	2689.125
759.115	2707.125
762.774	2715.79167
766.431	2726.79167
770.084	2770.45833
773.734	2767.79167
777.382	2800.125
781.027	2823.79167
784.669	2848.45833
788.308	2859.79167
791.944	2871.125
795.577	2874.125
799.208	2900.79167
802.835	2907.45833
806.46	2939.79167
810.082	2921.79167
813.701	2936.79167
817.317	2963.79167
820.931	2958.45833
824.542	2958.125
828.149	2901.79167
831.754	2911.125
835.357	2886.79167
838.956	2899.79167
842.553	2878.79167
846.146	2866.79167
849.737	2843.125
853.326	2853.125
856.911	2830.45833
860.493	2863.45833
864.073	2899.79167
867.65	2921.45833
871.225	2959.45833
874.796	2942.125
878.365	2945.125
881.931	2977.125
885.494	2995.125
889.054	2993.45833
892.612	2990.45833
896.166	2947.45833
899.719	2939.79167
903.268	2870.125
906.814	2855.45833
910.358	2809.125
913.899	2820.79167
917.438	2829.45833
920.973	2817.125
924.506	2861.125
928.036	2936.45833
931.564	2947.125
935.088	2990.45833
938.61	2973.45833
942.129	3017.79167
945.646	3055.79167
949.16	3157.79167
952.671	3170.45833
956.179	3166.45833
959.685	3127.125
963.188	3165.125
966.688	3127.79167
970.185	2979.79167
973.68	2953.125
977.173	2920.79167
980.662	2870.45833
984.149	2852.79167
987.633	2838.45833
991.114	2891.125
994.593	2923.125
998.069	3018.79167
1001.542	3104.79167
1005.013	3078.45833
1008.481	2912.125
1011.947	2853.79167
1015.409	2827.79167
1018.869	2835.125
1022.327	2814.45833
1025.782	2786.79167
1029.234	2815.125
1032.683	2768.79167
1036.13	2680.125
1039.574	2583.125
1043.016	2511.45833
1046.455	2477.79167
1049.891	2453.79167
1053.325	2472.45833
1056.756	2471.125
1060.184	2478.125
1063.61	2486.125
1067.033	2508.79167
1070.454	2488.125
1073.872	2541.125
1077.287	2517.79167
1080.7	2519.45833
1084.11	2505.79167
1087.517	2493.45833
1090.922	2440.125
1094.325	2426.45833
1097.724	2406.79167
1101.122	2411.45833
1104.516	2433.45833
1107.908	2405.79167
1111.298	2458.79167
1114.684	2467.79167
1118.069	2515.125
1121.45	2537.79167
1124.83	2523.79167
1128.206	2557.45833
1131.58	2562.79167
1134.951	2652.79167
1138.32	2711.125
1141.687	2815.79167
1145.05	2870.125
1148.412	2889.125
1151.77	2869.125
1155.126	2853.45833
1158.48	2842.125
1161.831	2850.79167
1165.18	2890.79167
1168.525	2911.45833
1171.869	2952.45833
1175.21	2960.45833
1178.548	2991.125
1181.884	3014.45833
1185.217	3039.79167
1188.548	3103.125
1191.877	3187.45833
1195.202	3283.79167
1198.526	3329.79167
1201.846	3339.79167
1205.165	3298.125
1208.48	3282.45833
1211.794	3275.125
1215.104	3274.79167
1218.413	3235.79167
1221.719	3252.79167
1225.022	3219.125
1228.323	3163.45833
1231.621	3130.79167
1234.917	3110.79167
1238.21	3131.45833
1241.501	3110.79167
1244.79	3100.125
1248.076	3079.125
1251.359	3114.125
1254.64	3181.79167
1257.919	3191.79167
1261.195	3261.79167
1264.468	3291.79167
1267.74	3351.45833
1271.008	3381.125
1274.275	3348.125
1277.538	3314.45833
1280.8	3321.125
1284.059	3308.125
1287.315	3355.125
1290.569	3333.125
1293.821	3369.45833
1297.07	3378.45833
1300.317	3376.125
1303.562	3391.45833
1306.803	3368.45833
1310.043	3354.45833
1313.28	3333.125
1316.515	3305.79167
1319.747	3284.79167
1322.977	3266.45833
1326.204	3215.45833
1329.429	3162.45833
1332.652	3157.125
1335.872	3132.125
1339.09	3104.45833
1342.306	3093.125
1345.519	3032.125
1348.729	3031.45833
1351.938	3022.79167
1355.144	2983.45833
1358.347	2925.79167
1361.548	2909.79167
1364.747	2899.79167
1367.944	2851.45833
1371.138	2855.125
1374.329	2856.125
1377.518	2902.79167
1380.705	2907.45833
1383.89	2871.45833
1387.072	2821.45833
1390.252	2717.45833
1393.429	2615.125
1396.605	2543.45833
1399.777	2468.45833
1402.948	2456.125
1406.116	2430.79167
1409.282	2400.125
1412.445	2402.125
1415.606	2451.45833
1418.765	2446.79167
1421.921	2521.125
1425.075	2570.79167
1428.227	2620.125
1431.376	2748.125
1434.524	2851.125
1437.668	2924.45833
1440.811	2965.45833
1443.951	2990.125
1447.089	3008.45833
1450.224	2983.79167
1453.357	2967.45833
1456.488	2925.125
1459.617	2903.79167
1462.743	2873.79167
1465.867	2794.125
1468.989	2758.45833
1472.108	2726.79167
1475.225	2682.125
1478.34	2646.125
1481.453	2651.125
1484.563	2639.125
1487.671	2702.125
1490.776	2714.125
1493.88	2759.79167
1496.981	2794.125
1500.08	2833.125
1503.176	2886.45833
1506.271	2917.79167
1509.363	2953.79167
1512.452	3004.125
1515.54	3014.45833
1518.625	3068.45833
1521.708	3146.79167
1524.789	3215.45833
1527.867	3333.45833
1530.944	3499.125
1534.018	3632.79167
1537.089	3750.125
1540.159	3793.125
1543.226	3785.45833
1546.291	3708.125
1549.354	3629.125
1552.415	3561.79167
1555.473	3477.79167
1558.529	3418.125
1561.583	3357.125
1564.634	3369.125
1567.684	3342.45833
1570.731	3387.79167
1573.776	3457.79167
1576.819	3500.45833
1579.859	3558.45833
1582.898	3568.79167
1585.934	3602.45833
1588.968	3603.79167
1591.999	3585.125
1595.029	3573.45833
1598.056	3610.45833
1601.081	3621.79167
1604.104	3603.79167
1607.125	3576.125
1610.144	3466.125
1613.16	3449.45833
1616.174	3354.45833
1619.186	3289.45833
1622.196	3197.125
1625.203	3139.45833
1628.209	3083.45833
1631.212	3032.45833
1634.213	3001.79167
1637.212	3005.125
1640.209	2930.125
1643.203	2908.125
1646.196	2797.125
1649.186	2651.45833
1652.174	2575.45833
1655.16	2495.79167
1658.144	2421.45833
1661.125	2303.45833
1664.105	2218.45833
1667.082	2109.45833
1670.057	2016.45833
1673.03	1913.79167
1676.001	1763.79167
1678.97	1661.125
1681.937	1579.79167
1684.901	1519.125
1687.863	1454.45833
1690.824	1378.79167
1693.782	1363.79167
1696.738	1320.79167
1699.692	1292.45833
1702.643	1230.79167
1705.593	1219.79167
1708.54	1210.45833
1711.486	1203.79167
1714.429	1180.79167
1717.37	1191.45833
1720.309	1163.125
1723.246	1162.45833
1726.181	1142.45833
1729.113	1125.125
1732.044	1114.79167
1734.972	1119.79167
1737.899	1123.125
1740.823	1123.125
1743.745	1115.45833
1746.665	1068.45833
1749.583	1056.79167
1752.499	1031.45833
1755.413	1028.125
1758.325	1007.125
1761.235	998.79167
1764.142	993.45833
1767.048	988.125
1769.951	966.45833
1772.852	962.79167
1775.752	966.79167
1778.649	981.79167
1781.544	976.125
1784.437	936.45833
1787.328	940.79167
1790.217	926.125
1793.104	910.45833
1795.989	919.125
1798.872	904.79167
1801.753	918.45833
1804.631	910.45833
1807.508	917.79167
1810.383	919.79167
1813.255	895.79167
1816.126	898.45833
1818.994	899.125
1821.861	880.79167
1824.725	890.125
1827.587	875.79167
1830.448	874.45833
1833.306	857.125
1836.162	867.125
1839.017	861.79167
1841.869	841.45833
1844.719	855.125
1847.567	838.79167
1850.414	822.79167
1853.258	829.45833
1856.1	851.79167
1858.94	845.45833
1861.778	834.45833
1864.614	840.45833
1867.448	827.125
1870.28	827.125
1873.111	843.79167
1875.939	825.125
1878.765	847.125
1881.589	826.125
1884.411	818.45833
1887.231	820.45833
1890.049	822.45833
1892.865	817.125
1895.68	808.125
1898.492	826.45833
1901.302	809.45833
1904.11	801.79167
1906.916	804.79167
1909.721	791.125
1912.523	809.79167
1915.323	776.45833
1918.122	791.79167
1920.918	794.79167
1923.712	768.79167
1926.505	769.45833
1929.295	777.45833
1932.084	792.79167
1934.87	780.79167
1937.655	765.125
1940.438	767.45833
1943.218	770.79167
1945.997	781.79167
1948.774	774.79167
1951.549	774.125
1954.322	772.125
1957.093	775.79167
1959.862	763.125
1962.629	757.125
1965.394	752.45833
1968.157	748.79167
1970.918	738.45833
1973.678	733.45833
1976.435	751.45833
1979.19	731.79167
1981.944	727.125
1984.696	728.125
1987.445	720.45833
1990.193	728.79167
1992.939	742.79167
1995.683	719.79167
1998.425	702.125
2001.165	738.125
2003.903	722.45833
2006.639	701.79167
2009.374	719.79167
2012.106	730.125
2014.837	695.79167
2017.566	720.125
2020.292	720.45833
2023.017	708.125
2025.74	708.45833
2028.461	699.45833
2031.18	703.125
2033.898	697.45833
2036.613	708.45833
2039.327	696.125
2042.038	687.45833
2044.748	689.79167
2047.456	692.79167
2050.162	668.45833
2052.866	674.79167
2055.568	686.45833
2058.268	680.125
2060.967	681.45833
2063.663	672.125
2066.358	671.79167
2069.051	666.125
2071.742	678.79167
2074.431	659.79167
2077.118	676.79167
2079.804	660.79167
2082.487	675.45833
2085.169	679.45833
2087.849	695.45833
2090.527	671.45833
2093.203	673.125
2095.877	677.79167
2098.55	674.125
2101.22	684.45833
2103.889	682.79167
2106.556	684.125
2109.221	707.79167
2111.884	709.125
2114.546	744.79167
2117.205	768.125
2119.863	821.125
2122.519	852.125
2125.173	894.79167
2127.825	939.79167
2130.475	951.125
2133.124	936.79167
2135.771	889.125
2138.416	877.125
2141.059	832.45833
2143.7	810.79167
2146.339	764.79167
2148.977	711.125
2151.613	724.125
2154.247	697.79167
2156.879	691.79167
2159.51	673.125
2162.138	665.79167
2164.765	674.79167
2167.39	649.125
2170.013	659.125
2172.634	654.125
2175.254	657.79167
2177.872	671.79167
2180.488	639.125
2183.102	624.79167
2185.714	625.79167
2188.325	615.79167
2190.934	626.45833
2193.541	619.79167
2196.146	611.125
2198.75	601.45833
2201.351	606.125
2203.951	596.45833
2206.549	604.79167
2209.146	609.45833
2211.74	599.79167
2214.333	600.45833
2216.924	574.45833
2219.514	589.125
2222.101	583.45833
2224.687	600.45833
2227.271	590.79167
2229.853	575.45833
2232.433	560.125
2235.012	573.79167
2237.589	584.125
2240.164	592.79167
2242.738	579.45833
2245.309	564.45833
2247.879	584.45833
2250.448	572.79167
2253.014	559.45833
2255.579	545.125
2258.142	554.79167
2260.703	540.79167
2263.262	543.79167
2265.82	542.125
2268.376	539.45833
2270.93	521.125
2273.483	530.125
2276.033	542.79167
2278.583	528.125
2281.13	533.45833
2283.675	527.45833
2286.219	531.45833
2288.761	532.125
2291.302	533.125
2293.841	532.45833
2296.377	515.79167
2298.913	529.45833
2301.446	533.125
2303.978	525.125
2306.508	513.45833
2309.037	526.79167
2311.563	520.125
2314.088	533.125
2316.612	501.125
2319.133	521.45833
2321.653	516.125
2324.171	513.125
2326.688	528.125
2329.202	513.79167
2331.715	511.45833
2334.227	509.45833
2336.736	511.125
2339.244	514.125
2341.751	493.45833
2344.255	519.125
2346.758	500.125
2349.259	501.125
2351.759	512.125
2354.257	497.45833
2356.753	498.125
2359.247	503.45833
2361.74	511.125
2364.231	504.45833
2366.721	500.79167
2369.209	501.125
2371.695	499.125
2374.179	496.45833
2376.662	485.79167
2379.143	511.45833
2381.622	495.125
2384.1	500.125
2386.576	492.79167
2389.051	515.79167
2391.524	510.45833
2393.995	505.45833
2396.464	485.45833
2398.932	498.45833
2401.398	495.79167
2403.863	488.79167
2406.325	493.45833
2408.787	491.79167
2411.246	491.79167
2413.704	479.79167
2416.16	484.79167
2418.615	480.79167
2421.068	496.79167
2423.519	494.45833
2425.969	483.125
2428.417	485.45833
2430.863	510.79167
2433.308	498.125
2435.751	492.79167
2438.193	496.125
2440.633	495.125
2443.071	496.125
2445.508	487.125
2447.943	490.125
2450.376	480.125
2452.808	490.125
2455.238	475.45833
2457.667	516.45833
2460.093	475.45833
2462.519	469.79167
2464.942	482.125
2467.365	488.79167
2469.785	504.79167
2472.204	495.79167
2474.621	474.79167
2477.037	506.79167
2479.451	477.45833
2481.863	473.125
2484.274	481.125
2486.683	475.45833
2489.091	492.45833
2491.497	481.125
2493.901	489.45833
2496.304	476.45833
2498.705	499.45833
2501.105	475.79167
2503.503	504.45833
2505.899	472.45833
2508.294	498.79167
2510.687	487.125
2513.079	471.79167
2515.469	471.125
2517.858	486.45833
2520.245	497.125
2522.63	474.45833
2525.014	475.45833
2527.396	474.125
2529.776	466.79167
2532.156	485.79167
2534.533	472.79167
2536.909	473.125
2539.283	464.79167
2541.656	475.45833
2544.027	494.79167
2546.397	473.79167
2548.765	477.79167
2551.131	486.45833
2553.496	471.125
2555.86	483.79167
2558.221	483.45833
2560.582	475.79167
2562.94	464.79167
2565.298	487.125
2567.653	503.45833
2570.007	469.45833
2572.36	492.125
2574.711	481.45833
2577.06	493.45833
2579.408	486.125
2581.754	487.125
2584.099	488.45833
2586.442	486.125
2588.784	487.45833
2591.124	484.45833
2593.463	491.125
2595.8	493.125
2598.135	473.79167
2600.469	488.125
2602.802	494.79167
2605.133	504.45833
2607.462	476.125
2609.79	477.125
2612.116	487.45833
2614.441	496.45833
2616.764	489.45833
2619.086	484.79167
2621.406	493.79167
2623.725	502.45833
2626.042	496.79167
2628.358	492.45833
2630.672	486.45833
2632.985	504.79167
2635.296	488.125
2637.606	494.125
2639.914	477.45833
2642.22	495.45833
2644.525	501.125
2646.829	495.79167
2649.131	515.125
2651.432	517.79167
2653.731	506.79167
2656.028	521.125
2658.324	524.79167
2660.619	502.45833
2662.912	513.45833
2665.204	515.45833
2667.494	519.45833
2669.782	504.45833
2672.07	515.45833
2674.355	512.125
2676.639	511.125
2678.922	501.79167
2681.203	520.125
2683.483	503.79167
2685.761	507.45833
2688.038	518.45833
2690.313	527.125
2692.587	520.79167
2694.859	513.125
2697.13	518.79167
2699.399	534.79167
2701.667	536.125
2703.933	531.125
2706.198	531.79167
2708.461	544.45833
2710.723	547.79167
2712.984	544.125
2715.243	542.45833
2717.5	526.79167
2719.757	565.125
2722.011	549.79167
2724.264	555.125
2726.516	565.79167
2728.766	545.79167
2731.015	565.45833
2733.262	565.45833
2735.508	553.125
2737.753	558.45833
2739.996	550.125
2742.237	539.79167
2744.477	558.45833
2746.716	563.125
2748.953	544.45833
2751.189	558.45833
2753.423	544.45833
2755.656	537.125
2757.887	543.125
2760.117	542.125
2762.346	537.45833
2764.573	534.45833
2766.798	545.45833
2769.022	541.79167
2771.245	553.125
2773.467	544.45833
2775.686	545.79167
2777.905	562.45833
2780.122	556.79167
2782.337	552.125
2784.552	560.125
2786.764	556.79167
2788.976	564.79167
2791.186	572.125
2793.394	569.79167
2795.601	569.79167
2797.807	583.125
2800.011	592.125
2802.214	591.79167
2804.415	608.125
2806.615	592.79167
2808.814	597.125
2811.011	605.79167
2813.206	603.125
2815.401	618.79167
2817.594	610.79167
2819.785	625.45833
2821.975	616.125
2824.164	625.79167
2826.351	629.125
2828.537	641.125
2830.722	649.45833
2832.905	670.125
2835.086	688.125
2837.267	707.45833
2839.445	713.79167
2841.623	741.125
2843.799	752.125
2845.974	779.45833
2848.147	804.79167
2850.319	832.125
2852.489	849.79167
2854.659	851.45833
2856.826	861.79167
2858.993	906.79167
2861.158	882.79167
2863.321	879.45833
2865.483	887.79167
2867.644	900.45833
2869.804	891.79167
2871.962	882.45833
2874.118	898.79167
2876.274	890.79167
2878.428	895.125
2880.58	892.125
2882.731	867.125
2884.881	877.125
2887.03	890.45833
2889.177	882.125
2891.322	896.79167
2893.467	894.125
2895.61	889.125
2897.751	913.45833
2899.892	915.45833
2902.03	915.79167
2904.168	907.79167
2906.304	926.125
2908.439	953.45833
2910.572	921.45833
2912.704	938.125
2914.835	941.45833
2916.965	940.79167
2919.093	964.125
2921.219	936.45833
2923.345	963.125
2925.469	923.45833
2927.591	940.45833
2929.712	901.45833
2931.832	890.125
2933.951	893.45833
2936.068	862.125
2938.184	867.79167
2940.299	841.79167
2942.412	832.45833
2944.524	800.125
2946.634	804.79167
2948.744	753.79167
2950.851	794.125
2952.958	748.79167
2955.063	749.125
2957.167	737.125
2959.269	712.125
2961.371	736.125
2963.471	708.125
2965.569	698.79167
2967.666	682.45833
2969.762	678.79167
2971.857	677.125
2973.95	653.125
2976.042	651.125
2978.133	646.79167
2980.222	627.125
2982.31	613.45833
2984.396	589.45833
2986.482	600.79167
2988.566	589.79167
2990.648	592.125
2992.73	593.79167
2994.81	578.79167
2996.889	582.45833
2998.966	583.79167
3001.042	604.79167
3003.117	582.79167
3005.191	581.125
3007.263	585.79167
3009.334	571.125
3011.403	573.79167
3013.472	552.45833
3015.539	565.125
3017.604	566.125
3019.669	533.45833
3021.732	540.125
3023.794	533.125
3025.854	536.125
3027.914	528.79167
3029.971	537.79167
3032.028	525.125
3034.083	537.45833
3036.137	522.45833
3038.19	509.79167
3040.242	493.79167
3042.292	483.45833
3044.341	494.79167
3046.388	499.45833
3048.435	470.45833
3050.48	489.45833
3052.524	478.45833
3054.566	461.45833
3056.607	478.45833
3058.647	463.45833
3060.686	445.45833
3062.723	439.125
3064.759	415.125
3066.794	-1.20833
3068.828	3.79167
3070.86	2.79167
