-0.839	548.125
3.438	653.125
7.711	186.79167
11.981	63.79167
16.247	48.79167
20.509	50.45833
24.768	48.45833
29.024	54.79167
33.276	45.125
37.524	49.79167
41.769	49.45833
46.01	31.79167
50.247	48.45833
54.481	64.125
58.712	60.79167
62.939	48.45833
67.162	62.125
71.382	60.125
75.599	48.45833
79.812	59.45833
84.021	83.45833
88.227	63.45833
92.429	60.79167
96.628	55.45833
100.823	75.79167
105.015	78.79167
109.204	67.45833
113.388	78.125
117.57	76.79167
121.748	89.79167
125.922	78.45833
130.093	93.79167
134.261	102.79167
138.425	101.125
142.585	143.125
146.742	127.79167
150.896	164.79167
155.046	214.45833
159.193	323.45833
163.336	554.125
167.476	1022.125
171.613	1849.79167
175.746	3061.125
179.875	4512.125
184.002	5867.125
188.124	6778.79167
192.244	7089.125
196.36	7011.125
200.472	6805.79167
204.581	6603.45833
208.687	6434.45833
212.79	6317.79167
216.889	6306.125
220.984	6326.125
225.077	6345.125
229.165	6306.125
233.251	6341.79167
237.333	6325.125
241.412	6263.45833
245.487	6206.125
249.559	6136.45833
253.628	6102.125
257.694	6046.79167
261.756	5964.79167
265.814	5841.45833
269.87	5696.125
273.922	5495.125
277.97	5306.79167
282.016	5204.79167
286.058	5172.45833
290.097	5206.125
294.132	5229.125
298.164	5185.45833
302.193	5021.125
306.219	4706.125
310.241	4333.125
314.26	4012.125
318.276	3750.79167
322.288	3564.45833
326.297	3391.79167
330.303	3278.45833
334.305	3207.45833
338.305	3149.45833
342.301	3124.45833
346.294	3080.79167
350.283	3078.79167
354.269	3037.45833
358.252	3017.125
362.232	3022.79167
366.209	2974.45833
370.182	2952.45833
374.152	2947.79167
378.119	2937.79167
382.083	2931.125
386.043	2952.45833
390	2933.125
393.954	2933.79167
397.905	2923.45833
401.852	2921.79167
405.797	2884.125
409.738	2898.125
413.676	2902.125
417.61	2902.125
421.542	2855.125
425.47	2813.79167
429.396	2792.79167
433.318	2774.45833
437.236	2788.125
441.152	2793.79167
445.065	2740.79167
448.974	2749.125
452.88	2698.79167
456.783	2695.45833
460.683	2674.79167
464.58	2662.79167
468.473	2660.45833
472.364	2680.125
476.251	2679.45833
480.135	2712.125
484.016	2732.79167
487.894	2762.125
491.769	2742.45833
495.641	2751.79167
499.509	2768.45833
503.375	2778.79167
507.237	2757.79167
511.096	2745.79167
514.952	2755.125
518.805	2771.125
522.655	2776.125
526.502	2744.125
530.346	2744.125
534.187	2765.125
538.024	2787.79167
541.859	2783.125
545.69	2828.125
549.519	2796.125
553.344	2788.45833
557.166	2748.45833
560.985	2712.125
564.802	2664.45833
568.615	2630.45833
572.425	2588.45833
576.232	2589.125
580.036	2576.79167
583.836	2583.79167
587.634	2578.125
591.429	2587.45833
595.221	2627.45833
599.01	2662.45833
602.796	2709.45833
606.578	2724.125
610.358	2719.125
614.135	2694.125
617.909	2672.45833
621.679	2660.125
625.447	2623.45833
629.212	2639.125
632.973	2644.125
636.732	2633.45833
640.488	2641.125
644.241	2605.125
647.991	2596.45833
651.737	2630.45833
655.481	2606.45833
659.222	2610.79167
662.96	2594.45833
666.695	2613.79167
670.427	2635.125
674.156	2635.125
677.882	2628.45833
681.605	2613.45833
685.325	2598.125
689.043	2598.125
692.757	2575.45833
696.468	2589.45833
700.177	2561.45833
703.882	2540.125
707.585	2505.125
711.284	2498.79167
714.981	2523.45833
718.675	2516.125
722.366	2549.45833
726.054	2522.79167
729.739	2528.45833
733.421	2511.79167
737.1	2508.125
740.777	2545.45833
744.45	2554.45833
748.121	2565.45833
751.789	2608.79167
755.453	2599.79167
759.115	2607.45833
762.774	2632.45833
766.431	2663.79167
770.084	2679.45833
773.734	2725.125
777.382	2765.125
781.027	2785.125
784.669	2785.125
788.308	2798.125
791.944	2803.45833
795.577	2802.45833
799.208	2824.79167
802.835	2827.79167
806.46	2850.45833
810.082	2851.45833
813.701	2863.79167
817.317	2889.45833
820.931	2900.45833
824.542	2897.45833
828.149	2839.45833
831.754	2844.45833
835.357	2826.45833
838.956	2850.79167
842.553	2835.125
846.146	2835.125
849.737	2800.125
853.326	2797.79167
856.911	2764.79167
860.493	2792.125
864.073	2851.125
867.65	2866.45833
871.225	2907.45833
874.796	2905.125
878.365	2902.79167
881.931	2932.45833
885.494	2952.45833
889.054	2932.45833
892.612	2961.79167
896.166	2933.125
899.719	2902.79167
903.268	2862.79167
906.814	2838.79167
910.358	2800.45833
913.899	2795.45833
917.438	2802.45833
920.973	2780.125
924.506	2855.45833
928.036	2882.45833
931.564	2930.125
935.088	2922.45833
938.61	2961.45833
942.129	2988.125
945.646	3059.125
949.16	3108.125
952.671	3165.45833
956.179	3154.125
959.685	3113.125
963.188	3137.79167
966.688	3088.79167
970.185	3002.79167
973.68	2925.79167
977.173	2886.79167
980.662	2851.45833
984.149	2818.79167
987.633	2815.125
991.114	2852.79167
994.593	2901.45833
998.069	2944.79167
1001.542	3038.45833
1005.013	3029.79167
1008.481	2880.125
1011.947	2826.125
1015.409	2826.45833
1018.869	2810.79167
1022.327	2802.45833
1025.782	2774.125
1029.234	2768.125
1032.683	2723.79167
1036.13	2652.79167
1039.574	2550.79167
1043.016	2483.45833
1046.455	2446.125
1049.891	2416.45833
1053.325	2464.125
1056.756	2442.45833
1060.184	2461.45833
1063.61	2483.45833
1067.033	2472.79167
1070.454	2468.45833
1073.872	2489.125
1077.287	2477.45833
1080.7	2508.125
1084.11	2473.79167
1087.517	2473.79167
1090.922	2418.45833
1094.325	2408.125
1097.724	2387.79167
1101.122	2398.45833
1104.516	2416.125
1107.908	2397.79167
1111.298	2431.125
1114.684	2457.125
1118.069	2483.79167
1121.45	2516.125
1124.83	2499.79167
1128.206	2534.125
1131.58	2545.45833
1134.951	2619.79167
1138.32	2723.79167
1141.687	2815.45833
1145.05	2883.125
1148.412	2909.79167
1151.77	2906.45833
1155.126	2885.79167
1158.48	2857.125
1161.831	2888.45833
1165.18	2898.125
1168.525	2936.79167
1171.869	2970.79167
1175.21	2998.45833
1178.548	3032.125
1181.884	3072.125
1185.217	3080.45833
1188.548	3164.79167
1191.877	3233.45833
1195.202	3320.79167
1198.526	3351.45833
1201.846	3378.125
1205.165	3370.79167
1208.48	3340.79167
1211.794	3340.79167
1215.104	3341.45833
1218.413	3302.125
1221.719	3320.79167
1225.022	3256.79167
1228.323	3206.45833
1231.621	3168.45833
1234.917	3139.79167
1238.21	3184.125
1241.501	3138.125
1244.79	3139.45833
1248.076	3134.45833
1251.359	3173.45833
1254.64	3243.79167
1257.919	3265.125
1261.195	3314.79167
1264.468	3359.125
1267.74	3404.45833
1271.008	3439.125
1274.275	3432.45833
1277.538	3379.79167
1280.8	3377.45833
1284.059	3356.125
1287.315	3409.79167
1290.569	3410.125
1293.821	3423.45833
1297.07	3452.79167
1300.317	3472.125
1303.562	3467.125
1306.803	3447.79167
1310.043	3452.79167
1313.28	3385.45833
1316.515	3373.79167
1319.747	3340.45833
1322.977	3298.125
1326.204	3245.79167
1329.429	3236.45833
1332.652	3223.45833
1335.872	3192.125
1339.09	3140.45833
1342.306	3119.79167
1345.519	3075.45833
1348.729	3037.45833
1351.938	3032.45833
1355.144	2991.79167
1358.347	2944.125
1361.548	2953.79167
1364.747	2957.45833
1367.944	2915.45833
1371.138	2898.79167
1374.329	2925.125
1377.518	2958.79167
1380.705	2984.79167
1383.89	2948.125
1387.072	2871.45833
1390.252	2767.125
1393.429	2674.45833
1396.605	2576.125
1399.777	2513.125
1402.948	2488.79167
1406.116	2465.79167
1409.282	2473.79167
1412.445	2441.45833
1415.606	2464.79167
1418.765	2503.125
1421.921	2545.125
1425.075	2620.45833
1428.227	2673.45833
1431.376	2793.79167
1434.524	2904.45833
1437.668	2991.45833
1440.811	3052.79167
1443.951	3077.125
1447.089	3070.125
1450.224	3068.79167
1453.357	3063.125
1456.488	3030.45833
1459.617	2982.79167
1462.743	2930.125
1465.867	2896.125
1468.989	2856.45833
1472.108	2811.45833
1475.225	2754.79167
1478.34	2749.79167
1481.453	2758.79167
1484.563	2728.79167
1487.671	2761.125
1490.776	2817.45833
1493.88	2859.125
1496.981	2906.125
1500.08	2948.79167
1503.176	2983.79167
1506.271	3019.79167
1509.363	3084.79167
1512.452	3089.125
1515.54	3149.79167
1518.625	3167.79167
1521.708	3275.79167
1524.789	3331.125
1527.867	3492.125
1530.944	3649.125
1534.018	3827.45833
1537.089	3943.79167
1540.159	3971.125
1543.226	3947.79167
1546.291	3858.79167
1549.354	3770.125
1552.415	3679.125
1555.473	3618.45833
1558.529	3551.45833
1561.583	3512.45833
1564.634	3490.45833
1567.684	3513.125
1570.731	3542.45833
1573.776	3582.79167
1576.819	3631.45833
1579.859	3692.125
1582.898	3728.45833
1585.934	3775.125
1588.968	3777.79167
1591.999	3764.45833
1595.029	3812.79167
1598.056	3810.79167
1601.081	3830.125
1604.104	3792.45833
1607.125	3773.125
1610.144	3663.45833
1613.16	3601.45833
1616.174	3515.79167
1619.186	3442.125
1622.196	3358.45833
1625.203	3297.45833
1628.209	3231.125
1631.212	3196.79167
1634.213	3148.125
1637.212	3167.79167
1640.209	3103.125
1643.203	3006.45833
1646.196	2915.125
1649.186	2785.45833
1652.174	2668.79167
1655.16	2585.125
1658.144	2486.125
1661.125	2372.79167
1664.105	2271.125
1667.082	2171.45833
1670.057	2065.125
1673.03	1952.79167
1676.001	1832.45833
1678.97	1725.45833
1681.937	1626.45833
1684.901	1623.79167
1687.863	1477.45833
1690.824	1399.45833
1693.782	1383.125
1696.738	1316.125
1699.692	1309.45833
1702.643	1248.45833
1705.593	1250.79167
1708.54	1231.45833
1711.486	1232.45833
1714.429	1188.125
1717.37	1200.79167
1720.309	1158.45833
1723.246	1179.125
1726.181	1135.79167
1729.113	1135.79167
1732.044	1127.125
1734.972	1112.79167
1737.899	1134.45833
1740.823	1110.125
1743.745	1127.79167
1746.665	1059.45833
1749.583	1043.79167
1752.499	1035.125
1755.413	1028.125
1758.325	1003.79167
1761.235	999.125
1764.142	988.45833
1767.048	960.125
1769.951	977.79167
1772.852	970.125
1775.752	970.45833
1778.649	964.79167
1781.544	948.125
1784.437	929.79167
1787.328	941.79167
1790.217	926.125
1793.104	920.79167
1795.989	916.79167
1798.872	885.45833
1801.753	912.79167
1804.631	905.125
1807.508	902.79167
1810.383	909.45833
1813.255	900.79167
1816.126	901.125
1818.994	889.45833
1821.861	879.45833
1824.725	872.125
1827.587	874.79167
1830.448	874.125
1833.306	829.45833
1836.162	856.45833
1839.017	858.45833
1841.869	844.79167
1844.719	847.79167
1847.567	824.45833
1850.414	818.79167
1853.258	832.79167
1856.1	842.79167
1858.94	843.125
1861.778	826.45833
1864.614	830.79167
1867.448	825.125
1870.28	814.125
1873.111	853.45833
1875.939	812.125
1878.765	843.79167
1881.589	814.79167
1884.411	801.125
1887.231	817.79167
1890.049	808.125
1892.865	813.79167
1895.68	801.45833
1898.492	805.45833
1901.302	801.79167
1904.11	796.79167
1906.916	776.45833
1909.721	773.45833
1912.523	785.125
1915.323	771.125
1918.122	766.79167
1920.918	792.79167
1923.712	759.79167
1926.505	764.45833
1929.295	754.45833
1932.084	773.79167
1934.87	766.79167
1937.655	764.79167
1940.438	757.125
1943.218	751.125
1945.997	764.79167
1948.774	753.45833
1951.549	773.45833
1954.322	745.79167
1957.093	747.45833
1959.862	723.79167
1962.629	748.125
1965.394	733.79167
1968.157	725.45833
1970.918	725.125
1973.678	714.79167
1976.435	737.45833
1979.19	722.45833
1981.944	726.125
1984.696	720.79167
1987.445	691.45833
1990.193	713.45833
1992.939	714.79167
1995.683	698.79167
1998.425	680.45833
2001.165	722.79167
2003.903	690.45833
2006.639	693.125
2009.374	705.79167
2012.106	705.125
2014.837	683.125
2017.566	690.125
2020.292	697.125
2023.017	687.79167
2025.74	693.45833
2028.461	673.45833
2031.18	679.79167
2033.898	671.45833
2036.613	678.79167
2039.327	674.45833
2042.038	672.125
2044.748	662.79167
2047.456	667.45833
2050.162	668.125
2052.866	662.125
2055.568	682.125
2058.268	657.125
2060.967	669.79167
2063.663	651.45833
2066.358	648.125
2069.051	640.125
2071.742	654.79167
2074.431	655.45833
2077.118	655.79167
2079.804	638.125
2082.487	643.125
2085.169	653.125
2087.849	660.125
2090.527	643.79167
2093.203	647.125
2095.877	655.45833
2098.55	660.79167
2101.22	660.45833
2103.889	664.79167
2106.556	653.79167
2109.221	673.45833
2111.884	672.45833
2114.546	707.45833
2117.205	754.79167
2119.863	802.125
2122.519	829.125
2125.173	881.79167
2127.825	945.79167
2130.475	949.45833
2133.124	930.125
2135.771	899.45833
2138.416	872.125
2141.059	824.45833
2143.7	787.79167
2146.339	735.125
2148.977	694.45833
2151.613	691.79167
2154.247	675.45833
2156.879	658.79167
2159.51	645.45833
2162.138	638.79167
2164.765	638.79167
2167.39	610.125
2170.013	628.45833
2172.634	614.125
2175.254	614.45833
2177.872	632.79167
2180.488	593.45833
2183.102	598.125
2185.714	590.45833
2188.325	571.45833
2190.934	588.79167
2193.541	583.125
2196.146	574.45833
2198.75	558.79167
2201.351	562.79167
2203.951	557.79167
2206.549	567.125
2209.146	554.79167
2211.74	561.79167
2214.333	558.45833
2216.924	544.45833
2219.514	550.125
2222.101	538.45833
2224.687	561.45833
2227.271	534.45833
2229.853	524.45833
2232.433	519.125
2235.012	550.45833
2237.589	535.79167
2240.164	553.79167
2242.738	529.45833
2245.309	520.45833
2247.879	536.79167
2250.448	532.79167
2253.014	506.125
2255.579	490.125
2258.142	509.125
2260.703	499.125
2263.262	500.125
2265.82	487.79167
2268.376	485.45833
2270.93	481.79167
2273.483	484.125
2276.033	482.45833
2278.583	481.79167
2281.13	476.79167
2283.675	472.45833
2286.219	469.79167
2288.761	468.79167
2291.302	475.45833
2293.841	480.45833
2296.377	453.125
2298.913	462.79167
2301.446	477.45833
2303.978	466.125
2306.508	462.125
2309.037	463.79167
2311.563	464.45833
2314.088	460.79167
2316.612	442.125
2319.133	455.45833
2321.653	460.79167
2324.171	452.79167
2326.688	456.125
2329.202	441.45833
2331.715	445.125
2334.227	443.79167
2336.736	443.45833
2339.244	435.125
2341.751	422.45833
2344.255	441.45833
2346.758	437.45833
2349.259	413.125
2351.759	438.79167
2354.257	432.79167
2356.753	416.45833
2359.247	423.125
2361.74	431.45833
2364.231	427.125
2366.721	427.79167
2369.209	416.125
2371.695	422.79167
2374.179	418.79167
2376.662	411.79167
2379.143	421.45833
2381.622	413.125
2384.1	417.79167
2386.576	411.125
2389.051	431.125
2391.524	429.79167
2393.995	419.45833
2396.464	407.125
2398.932	405.79167
2401.398	409.125
2403.863	404.79167
2406.325	410.45833
2408.787	404.45833
2411.246	404.125
2413.704	399.45833
2416.16	399.45833
2418.615	399.79167
2421.068	404.45833
2423.519	398.79167
2425.969	395.79167
2428.417	396.79167
2430.863	409.125
2433.308	402.45833
2435.751	407.125
2438.193	392.125
2440.633	391.45833
2443.071	402.45833
2445.508	388.125
2447.943	388.45833
2450.376	382.79167
2452.808	388.79167
2455.238	374.45833
2457.667	425.125
2460.093	380.125
2462.519	373.125
2464.942	386.45833
2467.365	384.125
2469.785	388.125
2472.204	379.125
2474.621	375.45833
2477.037	384.79167
2479.451	361.79167
2481.863	370.125
2484.274	375.45833
2486.683	375.125
2489.091	376.79167
2491.497	373.125
2493.901	383.45833
2496.304	369.79167
2498.705	371.79167
2501.105	362.45833
2503.503	389.45833
2505.899	357.79167
2508.294	384.125
2510.687	365.79167
2513.079	363.79167
2515.469	355.79167
2517.858	365.79167
2520.245	374.45833
2522.63	349.45833
2525.014	357.125
2527.396	354.125
2529.776	354.125
2532.156	365.45833
2534.533	347.79167
2536.909	341.79167
2539.283	337.125
2541.656	341.125
2544.027	366.45833
2546.397	344.79167
2548.765	343.45833
2551.131	348.79167
2553.496	346.45833
2555.86	359.125
2558.221	344.45833
2560.582	342.45833
2562.94	335.45833
2565.298	339.79167
2567.653	357.45833
2570.007	331.45833
2572.36	353.125
2574.711	330.79167
2577.06	358.45833
2579.408	347.125
2581.754	342.79167
2584.099	333.125
2586.442	339.45833
2588.784	348.45833
2591.124	341.125
2593.463	335.79167
2595.8	342.125
2598.135	322.79167
2600.469	332.45833
2602.802	343.45833
2605.133	345.45833
2607.462	323.79167
2609.79	321.45833
2612.116	330.79167
2614.441	334.79167
2616.764	336.79167
2619.086	335.45833
2621.406	314.125
2623.725	343.45833
2626.042	343.125
2628.358	329.125
2630.672	328.79167
2632.985	345.125
2635.296	325.79167
2637.606	328.125
2639.914	320.45833
2642.22	325.45833
2644.525	329.45833
2646.829	329.79167
2649.131	342.45833
2651.432	336.45833
2653.731	336.45833
2656.028	343.45833
2658.324	340.79167
2660.619	320.79167
2662.912	335.45833
2665.204	325.79167
2667.494	335.125
2669.782	325.79167
2672.07	338.79167
2674.355	335.79167
2676.639	325.45833
2678.922	332.125
2681.203	335.79167
2683.483	327.125
2685.761	324.79167
2688.038	330.79167
2690.313	348.45833
2692.587	326.45833
2694.859	333.125
2697.13	336.45833
2699.399	345.125
2701.667	348.79167
2703.933	331.125
2706.198	346.45833
2708.461	343.45833
2710.723	349.79167
2712.984	340.79167
2715.243	349.125
2717.5	331.79167
2719.757	357.45833
2722.011	347.125
2724.264	349.79167
2726.516	372.45833
2728.766	354.45833
2731.015	352.125
2733.262	354.45833
2735.508	349.125
2737.753	353.125
2739.996	345.45833
2742.237	337.79167
2744.477	353.45833
2746.716	348.125
2748.953	342.45833
2751.189	343.45833
2753.423	335.45833
2755.656	323.79167
2757.887	331.79167
2760.117	322.45833
2762.346	317.125
2764.573	320.79167
2766.798	325.125
2769.022	325.125
2771.245	336.125
2773.467	326.45833
2775.686	323.45833
2777.905	338.45833
2780.122	328.79167
2782.337	341.125
2784.552	335.79167
2786.764	335.79167
2788.976	343.125
2791.186	335.45833
2793.394	343.45833
2795.601	347.79167
2797.807	359.125
2800.011	367.79167
2802.214	360.125
2804.415	364.79167
2806.615	363.79167
2808.814	361.125
2811.011	385.45833
2813.206	367.45833
2815.401	387.79167
2817.594	393.125
2819.785	398.125
2821.975	389.125
2824.164	396.125
2826.351	402.45833
2828.537	424.45833
2830.722	423.125
2832.905	442.125
2835.086	464.79167
2837.267	487.45833
2839.445	499.125
2841.623	513.45833
2843.799	538.125
2845.974	571.79167
2848.147	601.45833
2850.319	615.45833
2852.489	640.79167
2854.659	660.45833
2856.826	666.125
2858.993	697.79167
2861.158	683.79167
2863.321	684.45833
2865.483	700.45833
2867.644	698.45833
2869.804	703.79167
2871.962	688.45833
2874.118	705.79167
2876.274	698.45833
2878.428	705.79167
2880.58	697.79167
2882.731	691.79167
2884.881	678.45833
2887.03	693.79167
2889.177	696.45833
2891.322	707.45833
2893.467	693.45833
2895.61	698.125
2897.751	721.79167
2899.892	717.79167
2902.03	715.125
2904.168	728.125
2906.304	719.79167
2908.439	749.125
2910.572	740.45833
2912.704	736.45833
2914.835	742.79167
2916.965	742.125
2919.093	765.125
2921.219	727.79167
2923.345	755.125
2925.469	721.79167
2927.591	742.79167
2929.712	700.79167
2931.832	699.45833
2933.951	689.45833
2936.068	680.125
2938.184	651.79167
2940.299	637.125
2942.412	616.125
2944.524	584.79167
2946.634	585.45833
2948.744	529.79167
2950.851	554.79167
2952.958	510.125
2955.063	511.45833
2957.167	507.79167
2959.269	473.79167
2961.371	488.45833
2963.471	454.45833
2965.569	462.79167
2967.666	433.79167
2969.762	429.79167
2971.857	406.45833
2973.95	396.79167
2976.042	406.125
2978.133	389.79167
2980.222	383.45833
2982.31	365.45833
2984.396	346.45833
2986.482	352.45833
2988.566	346.45833
2990.648	341.125
2992.73	327.125
2994.81	328.45833
2996.889	323.79167
2998.966	323.79167
3001.042	332.125
3003.117	319.45833
3005.191	316.79167
3007.263	316.45833
3009.334	306.125
3011.403	309.125
3013.472	302.79167
3015.539	306.125
3017.604	308.125
3019.669	272.125
3021.732	276.79167
3023.794	288.45833
3025.854	280.125
3027.914	268.125
3029.971	273.45833
3032.028	269.125
3034.083	271.125
3036.137	267.125
3038.19	256.79167
3040.242	248.79167
3042.292	242.79167
3044.341	250.79167
3046.388	260.79167
3048.435	238.79167
3050.48	260.79167
3052.524	244.79167
3054.566	229.45833
3056.607	244.125
3058.647	234.79167
3060.686	219.125
3062.723	217.125
3064.759	210.125
3066.794	0.125
3068.828	2.125
3070.86	2.45833
