-0.839	380.83333
3.438	449.5
7.711	139.83333
11.981	55.16667
16.247	41.5
20.509	46.16667
24.768	45.5
29.024	51.5
33.276	42.83333
37.524	52.16667
41.769	42.83333
46.01	34.16667
50.247	44.5
54.481	51.83333
58.712	57.83333
62.939	44.5
67.162	59.83333
71.382	55.16667
75.599	45.16667
79.812	55.5
84.021	76.83333
88.227	63.5
92.429	60.16667
96.628	46.16667
100.823	61.83333
105.015	64.83333
109.204	60.5
113.388	70.16667
117.57	64.83333
121.748	80.5
125.922	71.5
130.093	85.16667
134.261	86.83333
138.425	82.83333
142.585	120.16667
146.742	107.5
150.896	128.16667
155.046	164.83333
159.193	257.16667
163.336	412.16667
167.476	744.16667
171.613	1377.5
175.746	2304.16667
179.875	3379.16667
184.002	4413.16667
188.124	5070.83333
192.244	5281.83333
196.36	5199.16667
200.472	5024.16667
204.581	4843.83333
208.687	4687.83333
212.79	4623.5
216.889	4551.16667
220.984	4491.5
225.077	4486.83333
229.165	4441.83333
233.251	4443.83333
237.333	4438.5
241.412	4326.5
245.487	4261.16667
249.559	4222.16667
253.628	4131.5
257.694	4121.83333
261.756	4072.5
265.814	3940.16667
269.87	3843.5
273.922	3684.16667
277.97	3579.5
282.016	3550.83333
286.058	3535.16667
290.097	3564.5
294.132	3603.83333
298.164	3541.5
302.193	3401.83333
306.219	3169.5
310.241	2935.16667
314.26	2734.16667
318.276	2572.16667
322.288	2461.5
326.297	2357.83333
330.303	2271.5
334.305	2196.16667
338.305	2151.16667
342.301	2130.16667
346.294	2108.16667
350.283	2104.83333
354.269	2081.16667
358.252	2033.83333
362.232	2045.5
366.209	2041.5
370.182	1994.16667
374.152	1988.16667
378.119	2004.83333
382.083	1979.5
386.043	1995.83333
390	1977.16667
393.954	1964.83333
397.905	1957.83333
401.852	1961.83333
405.797	1947.5
409.738	1947.83333
413.676	1943.5
417.61	1941.16667
421.542	1937.83333
425.47	1931.5
429.396	1888.16667
433.318	1875.16667
437.236	1870.16667
441.152	1897.5
445.065	1850.5
448.974	1842.5
452.88	1812.83333
456.783	1807.16667
460.683	1773.5
464.58	1767.16667
468.473	1780.16667
472.364	1798.5
476.251	1792.83333
480.135	1818.16667
484.016	1839.83333
487.894	1834.83333
491.769	1836.5
495.641	1843.16667
499.509	1839.83333
503.375	1860.16667
507.237	1869.83333
511.096	1960.83333
514.952	2259.83333
518.805	2576.5
522.655	2700.83333
526.502	2309.83333
530.346	1977.5
534.187	1908.5
538.024	1880.16667
541.859	1872.83333
545.69	1892.5
549.519	1881.16667
553.344	1872.83333
557.166	1821.5
560.985	1799.83333
564.802	1775.83333
568.615	1732.5
572.425	1696.5
576.232	1707.16667
580.036	1716.83333
583.836	1702.16667
587.634	1731.83333
591.429	1719.5
595.221	1765.83333
599.01	1771.5
602.796	1783.5
606.578	1788.5
610.358	1799.5
614.135	1763.16667
617.909	1770.16667
621.679	1761.5
625.447	1732.5
629.212	1721.16667
632.973	1734.16667
636.732	1736.83333
640.488	1752.83333
644.241	1717.16667
647.991	1712.16667
651.737	1746.5
655.481	1707.16667
659.222	1712.83333
662.96	1703.83333
666.695	1721.5
670.427	1725.83333
674.156	1736.16667
677.882	1722.16667
681.605	1751.83333
685.325	1700.5
689.043	1726.83333
692.757	1700.5
696.468	1697.16667
700.177	1693.5
703.882	1688.83333
707.585	1683.83333
711.284	1684.5
714.981	1670.83333
718.675	1677.83333
722.366	1687.5
726.054	1677.83333
729.739	1667.5
733.421	1675.83333
737.1	1677.5
740.777	1718.5
744.45	1683.5
748.121	1702.5
751.789	1737.5
755.453	1710.5
759.115	1717.83333
762.774	1749.5
766.431	1760.5
770.084	1761.83333
773.734	1780.83333
777.382	1813.83333
781.027	1826.16667
784.669	1843.83333
788.308	1865.5
791.944	1874.83333
795.577	1883.83333
799.208	1888.5
802.835	1900.16667
806.46	1906.5
810.082	1907.5
813.701	1920.16667
817.317	1923.83333
820.931	1931.83333
824.542	1922.16667
828.149	1887.5
831.754	1890.16667
835.357	1890.16667
838.956	1896.16667
842.553	1885.16667
846.146	1880.5
849.737	1856.83333
853.326	1869.83333
856.911	1848.83333
860.493	1884.16667
864.073	1891.83333
867.65	1906.83333
871.225	1940.83333
874.796	1938.5
878.365	1939.83333
881.931	1935.16667
885.494	1943.83333
889.054	1935.16667
892.612	1984.5
896.166	1916.16667
899.719	1913.83333
903.268	1875.83333
906.814	1864.83333
910.358	1863.16667
913.899	1832.16667
917.438	1844.5
920.973	1828.5
924.506	1889.83333
928.036	1930.83333
931.564	1958.16667
935.088	2004.5
938.61	1997.16667
942.129	2024.16667
945.646	2080.16667
949.16	2089.5
952.671	2127.83333
956.179	2128.5
959.685	2087.83333
963.188	2088.83333
966.688	2087.83333
970.185	2026.16667
973.68	1961.16667
977.173	1942.16667
980.662	1907.16667
984.149	1905.83333
987.633	1874.16667
991.114	1909.16667
994.593	1950.83333
998.069	1992.5
1001.542	2044.5
1005.013	2006.5
1008.481	1897.5
1011.947	1877.83333
1015.409	1859.83333
1018.869	1875.16667
1022.327	1878.16667
1025.782	1837.16667
1029.234	1839.16667
1032.683	1808.5
1036.13	1758.16667
1039.574	1692.83333
1043.016	1650.83333
1046.455	1625.83333
1049.891	1607.16667
1053.325	1626.16667
1056.756	1612.83333
1060.184	1633.83333
1063.61	1651.83333
1067.033	1656.83333
1070.454	1653.83333
1073.872	1679.83333
1077.287	1664.5
1080.7	1686.5
1084.11	1670.5
1087.517	1636.5
1090.922	1629.5
1094.325	1625.5
1097.724	1586.5
1101.122	1619.16667
1104.516	1588.16667
1107.908	1579.16667
1111.298	1631.83333
1114.684	1628.5
1118.069	1648.83333
1121.45	1678.83333
1124.83	1662.83333
1128.206	1690.83333
1131.58	1705.16667
1134.951	1762.16667
1138.32	1802.5
1141.687	1878.83333
1145.05	1901.5
1148.412	1945.5
1151.77	1922.5
1155.126	1905.16667
1158.48	1887.83333
1161.831	1892.16667
1165.18	1904.83333
1168.525	1937.5
1171.869	1968.5
1175.21	1953.83333
1178.548	1967.5
1181.884	1986.5
1185.217	2011.5
1188.548	2044.5
1191.877	2080.16667
1195.202	2154.83333
1198.526	2205.83333
1201.846	2224.16667
1205.165	2212.5
1208.48	2211.83333
1211.794	2193.16667
1215.104	2208.83333
1218.413	2195.5
1221.719	2227.5
1225.022	2185.16667
1228.323	2135.16667
1231.621	2141.16667
1234.917	2128.16667
1238.21	2140.16667
1241.501	2120.83333
1244.79	2112.83333
1248.076	2090.16667
1251.359	2109.5
1254.64	2175.83333
1257.919	2193.83333
1261.195	2212.83333
1264.468	2256.5
1267.74	2288.5
1271.008	2290.83333
1274.275	2278.83333
1277.538	2252.83333
1280.8	2249.16667
1284.059	2237.83333
1287.315	2286.83333
1290.569	2281.83333
1293.821	2303.5
1297.07	2311.83333
1300.317	2348.5
1303.562	2331.5
1306.803	2308.83333
1310.043	2314.16667
1313.28	2282.5
1316.515	2256.5
1319.747	2250.5
1322.977	2225.16667
1326.204	2198.16667
1329.429	2165.83333
1332.652	2160.16667
1335.872	2137.16667
1339.09	2136.16667
1342.306	2102.16667
1345.519	2065.5
1348.729	2077.5
1351.938	2077.16667
1355.144	2037.5
1358.347	2009.83333
1361.548	2004.16667
1364.747	1990.16667
1367.944	1970.16667
1371.138	1969.5
1374.329	2011.83333
1377.518	2019.16667
1380.705	2044.83333
1383.89	2021.83333
1387.072	1962.5
1390.252	1869.83333
1393.429	1821.83333
1396.605	1771.83333
1399.777	1703.16667
1402.948	1681.16667
1406.116	1686.5
1409.282	1668.83333
1412.445	1677.16667
1415.606	1685.16667
1418.765	1711.83333
1421.921	1725.5
1425.075	1769.16667
1428.227	1821.16667
1431.376	1916.83333
1434.524	1997.83333
1437.668	2039.16667
1440.811	2064.83333
1443.951	2082.16667
1447.089	2088.83333
1450.224	2081.83333
1453.357	2066.5
1456.488	2059.16667
1459.617	2028.16667
1462.743	1996.5
1465.867	1935.83333
1468.989	1889.83333
1472.108	1892.5
1475.225	1840.5
1478.34	1834.16667
1481.453	1831.83333
1484.563	1819.5
1487.671	1828.16667
1490.776	1878.83333
1493.88	1892.16667
1496.981	1925.5
1500.08	1942.5
1503.176	1960.16667
1506.271	2003.5
1509.363	2034.16667
1512.452	2051.16667
1515.54	2093.5
1518.625	2085.16667
1521.708	2133.16667
1524.789	2186.83333
1527.867	2256.83333
1530.944	2386.5
1534.018	2467.16667
1537.089	2551.83333
1540.159	2590.5
1543.226	2587.16667
1546.291	2502.5
1549.354	2472.83333
1552.415	2434.16667
1555.473	2376.5
1558.529	2339.83333
1561.583	2310.16667
1564.634	2293.16667
1567.684	2320.5
1570.731	2319.5
1573.776	2367.83333
1576.819	2383.83333
1579.859	2428.5
1582.898	2451.16667
1585.934	2485.83333
1588.968	2503.16667
1591.999	2487.5
1595.029	2493.83333
1598.056	2510.83333
1601.081	2536.83333
1604.104	2526.16667
1607.125	2509.16667
1610.144	2475.5
1613.16	2422.83333
1616.174	2353.83333
1619.186	2306.16667
1622.196	2246.5
1625.203	2180.16667
1628.209	2147.5
1631.212	2114.83333
1634.213	2131.16667
1637.212	2104.5
1640.209	2092.5
1643.203	2045.16667
1646.196	1987.83333
1649.186	1897.16667
1652.174	1844.83333
1655.16	1796.16667
1658.144	1764.16667
1661.125	1669.16667
1664.105	1602.16667
1667.082	1527.5
1670.057	1450.5
1673.03	1375.83333
1676.001	1290.5
1678.97	1204.16667
1681.937	1148.5
1684.901	1074.5
1687.863	1060.16667
1690.824	1013.16667
1693.782	1000.83333
1696.738	950.83333
1699.692	934.5
1702.643	915.16667
1705.593	898.83333
1708.54	891.5
1711.486	894.83333
1714.429	872.16667
1717.37	877.5
1720.309	850.83333
1723.246	850.5
1726.181	836.83333
1729.113	833.16667
1732.044	831.16667
1734.972	823.83333
1737.899	835.16667
1740.823	831.16667
1743.745	834.83333
1746.665	794.16667
1749.583	770.16667
1752.499	775.16667
1755.413	773.16667
1758.325	748.83333
1761.235	747.83333
1764.142	738.83333
1767.048	720.16667
1769.951	726.16667
1772.852	730.16667
1775.752	734.5
1778.649	720.5
1781.544	727.5
1784.437	697.83333
1787.328	719.83333
1790.217	709.16667
1793.104	698.16667
1795.989	693.16667
1798.872	689.16667
1801.753	707.5
1804.631	695.83333
1807.508	709.16667
1810.383	701.83333
1813.255	689.16667
1816.126	703.5
1818.994	691.16667
1821.861	684.83333
1824.725	700.5
1827.587	694.16667
1830.448	687.16667
1833.306	674.16667
1836.162	677.16667
1839.017	671.83333
1841.869	669.83333
1844.719	663.83333
1847.567	662.16667
1850.414	660.16667
1853.258	660.16667
1856.1	681.83333
1858.94	675.83333
1861.778	677.83333
1864.614	662.16667
1867.448	654.5
1870.28	651.16667
1873.111	685.16667
1875.939	671.16667
1878.765	682.16667
1881.589	664.5
1884.411	667.16667
1887.231	681.5
1890.049	669.83333
1892.865	668.83333
1895.68	648.16667
1898.492	664.5
1901.302	662.16667
1904.11	662.16667
1906.916	644.5
1909.721	647.16667
1912.523	647.16667
1915.323	638.16667
1918.122	649.16667
1920.918	655.83333
1923.712	655.83333
1926.505	645.5
1929.295	641.83333
1932.084	664.5
1934.87	649.5
1937.655	652.5
1940.438	657.83333
1943.218	650.5
1945.997	657.5
1948.774	667.16667
1951.549	666.83333
1954.322	661.5
1957.093	653.5
1959.862	650.83333
1962.629	645.16667
1965.394	643.5
1968.157	636.16667
1970.918	632.83333
1973.678	640.16667
1976.435	645.16667
1979.19	647.83333
1981.944	637.83333
1984.696	643.83333
1987.445	636.5
1990.193	639.83333
1992.939	662.83333
1995.683	641.16667
1998.425	617.16667
2001.165	658.16667
2003.903	642.83333
2006.639	642.5
2009.374	661.83333
2012.106	653.16667
2014.837	627.5
2017.566	663.83333
2020.292	652.16667
2023.017	655.83333
2025.74	650.16667
2028.461	641.5
2031.18	655.83333
2033.898	645.83333
2036.613	652.5
2039.327	655.16667
2042.038	626.5
2044.748	638.5
2047.456	650.5
2050.162	635.5
2052.866	648.83333
2055.568	655.83333
2058.268	652.83333
2060.967	659.16667
2063.663	636.16667
2066.358	649.83333
2069.051	636.5
2071.742	652.5
2074.431	661.83333
2077.118	660.16667
2079.804	645.5
2082.487	663.16667
2085.169	659.16667
2087.849	682.5
2090.527	660.83333
2093.203	667.16667
2095.877	684.83333
2098.55	683.5
2101.22	686.16667
2103.889	689.5
2106.556	686.83333
2109.221	703.5
2111.884	701.5
2114.546	734.5
2117.205	747.16667
2119.863	803.5
2122.519	803.16667
2125.173	852.83333
2127.825	889.5
2130.475	889.16667
2133.124	863.5
2135.771	851.5
2138.416	834.16667
2141.059	797.5
2143.7	787.16667
2146.339	758.5
2148.977	725.5
2151.613	731.5
2154.247	718.16667
2156.879	721.83333
2159.51	710.5
2162.138	696.83333
2164.765	702.5
2167.39	693.16667
2170.013	713.16667
2172.634	706.5
2175.254	708.83333
2177.872	731.83333
2180.488	679.16667
2183.102	689.83333
2185.714	705.16667
2188.325	680.16667
2190.934	687.16667
2193.541	706.83333
2196.146	694.16667
2198.75	684.5
2201.351	689.83333
2203.951	677.83333
2206.549	692.83333
2209.146	678.16667
2211.74	674.16667
2214.333	700.83333
2216.924	673.83333
2219.514	690.83333
2222.101	681.5
2224.687	708.83333
2227.271	693.83333
2229.853	688.16667
2232.433	681.16667
2235.012	699.83333
2237.589	696.16667
2240.164	715.16667
2242.738	687.5
2245.309	684.5
2247.879	708.83333
2250.448	718.16667
2253.014	689.83333
2255.579	678.5
2258.142	687.5
2260.703	693.5
2263.262	700.16667
2265.82	688.5
2268.376	702.5
2270.93	684.83333
2273.483	692.5
2276.033	705.5
2278.583	703.5
2281.13	698.16667
2283.675	685.83333
2286.219	699.5
2288.761	704.16667
2291.302	708.5
2293.841	713.16667
2296.377	697.5
2298.913	709.5
2301.446	711.83333
2303.978	716.83333
2306.508	715.83333
2309.037	728.5
2311.563	723.16667
2314.088	724.16667
2316.612	712.16667
2319.133	728.83333
2321.653	726.5
2324.171	726.16667
2326.688	739.5
2329.202	728.16667
2331.715	722.5
2334.227	735.5
2336.736	739.83333
2339.244	733.16667
2341.751	718.83333
2344.255	739.83333
2346.758	738.5
2349.259	730.5
2351.759	745.83333
2354.257	745.5
2356.753	729.83333
2359.247	749.83333
2361.74	757.83333
2364.231	748.83333
2366.721	761.16667
2369.209	753.16667
2371.695	761.5
2374.179	760.16667
2376.662	749.5
2379.143	776.5
2381.622	763.16667
2384.1	779.83333
2386.576	791.16667
2389.051	787.16667
2391.524	807.16667
2393.995	792.5
2396.464	791.16667
2398.932	781.16667
2401.398	789.83333
2403.863	793.16667
2406.325	792.16667
2408.787	793.5
2411.246	795.16667
2413.704	797.16667
2416.16	798.83333
2418.615	822.16667
2421.068	823.5
2423.519	813.5
2425.969	795.83333
2428.417	811.5
2430.863	840.83333
2433.308	828.5
2435.751	820.16667
2438.193	833.5
2440.633	822.83333
2443.071	831.5
2445.508	831.83333
2447.943	836.83333
2450.376	839.83333
2452.808	837.5
2455.238	841.5
2457.667	874.5
2460.093	850.16667
2462.519	857.83333
2464.942	848.5
2467.365	862.5
2469.785	876.16667
2472.204	870.83333
2474.621	873.83333
2477.037	883.16667
2479.451	859.83333
2481.863	861.83333
2484.274	875.16667
2486.683	884.83333
2489.091	890.83333
2491.497	879.5
2493.901	889.5
2496.304	892.5
2498.705	903.16667
2501.105	904.5
2503.503	928.83333
2505.899	882.16667
2508.294	922.83333
2510.687	906.83333
2513.079	922.83333
2515.469	908.83333
2517.858	926.16667
2520.245	921.83333
2522.63	919.83333
2525.014	915.5
2527.396	920.5
2529.776	922.5
2532.156	937.5
2534.533	926.83333
2536.909	920.16667
2539.283	917.5
2541.656	928.16667
2544.027	975.16667
2546.397	954.5
2548.765	936.83333
2551.131	952.5
2553.496	958.5
2555.86	965.16667
2558.221	964.5
2560.582	968.83333
2562.94	953.5
2565.298	959.16667
2567.653	992.83333
2570.007	969.16667
2572.36	990.16667
2574.711	972.16667
2577.06	991.83333
2579.408	1001.5
2581.754	1009.83333
2584.099	1003.16667
2586.442	1011.83333
2588.784	1022.16667
2591.124	1016.83333
2593.463	1023.5
2595.8	1026.83333
2598.135	1016.5
2600.469	1015.16667
2602.802	1029.83333
2605.133	1040.83333
2607.462	1024.83333
2609.79	1020.5
2612.116	1040.5
2614.441	1039.83333
2616.764	1049.83333
2619.086	1059.16667
2621.406	1052.83333
2623.725	1066.83333
2626.042	1078.5
2628.358	1061.5
2630.672	1070.83333
2632.985	1097.83333
2635.296	1080.83333
2637.606	1091.83333
2639.914	1072.16667
2642.22	1091.83333
2644.525	1102.83333
2646.829	1112.83333
2649.131	1125.83333
2651.432	1124.5
2653.731	1127.16667
2656.028	1149.83333
2658.324	1154.5
2660.619	1144.83333
2662.912	1156.16667
2665.204	1151.16667
2667.494	1166.16667
2669.782	1133.5
2672.07	1153.5
2674.355	1171.83333
2676.639	1162.16667
2678.922	1157.16667
2681.203	1161.5
2683.483	1157.83333
2685.761	1156.16667
2688.038	1167.16667
2690.313	1183.83333
2692.587	1179.83333
2694.859	1175.83333
2697.13	1173.83333
2699.399	1183.5
2701.667	1193.16667
2703.933	1189.83333
2706.198	1199.16667
2708.461	1223.83333
2710.723	1233.83333
2712.984	1220.5
2715.243	1229.5
2717.5	1210.83333
2719.757	1231.83333
2722.011	1248.5
2724.264	1248.83333
2726.516	1261.16667
2728.766	1261.16667
2731.015	1282.83333
2733.262	1283.5
2735.508	1288.16667
2737.753	1282.83333
2739.996	1279.16667
2742.237	1272.5
2744.477	1279.16667
2746.716	1281.5
2748.953	1278.5
2751.189	1281.83333
2753.423	1264.5
2755.656	1258.16667
2757.887	1267.16667
2760.117	1271.5
2762.346	1268.16667
2764.573	1255.16667
2766.798	1271.16667
2769.022	1271.5
2771.245	1285.16667
2773.467	1289.83333
2775.686	1286.5
2777.905	1287.83333
2780.122	1320.83333
2782.337	1309.5
2784.552	1325.5
2786.764	1322.16667
2788.976	1326.16667
2791.186	1340.16667
2793.394	1337.83333
2795.601	1359.83333
2797.807	1369.16667
2800.011	1376.16667
2802.214	1374.83333
2804.415	1392.5
2806.615	1373.5
2808.814	1396.16667
2811.011	1391.83333
2813.206	1396.83333
2815.401	1391.5
2817.594	1409.16667
2819.785	1406.5
2821.975	1391.5
2824.164	1393.5
2826.351	1419.83333
2828.537	1429.16667
2830.722	1436.5
2832.905	1435.5
2835.086	1446.16667
2837.267	1476.5
2839.445	1479.83333
2841.623	1494.16667
2843.799	1501.16667
2845.974	1525.16667
2848.147	1555.5
2850.319	1585.16667
2852.489	1613.5
2854.659	1609.16667
2856.826	1613.5
2858.993	1643.5
2861.158	1628.5
2863.321	1626.83333
2865.483	1658.16667
2867.644	1649.16667
2869.804	1637.16667
2871.962	1628.5
2874.118	1615.5
2876.274	1628.16667
2878.428	1634.83333
2880.58	1618.16667
2882.731	1597.5
2884.881	1608.16667
2887.03	1616.16667
2889.177	1609.83333
2891.322	1630.83333
2893.467	1612.5
2895.61	1638.83333
2897.751	1670.5
2899.892	1640.83333
2902.03	1669.83333
2904.168	1659.16667
2906.304	1667.83333
2908.439	1714.83333
2910.572	1667.83333
2912.704	1716.83333
2914.835	1698.83333
2916.965	1710.16667
2919.093	1728.5
2921.219	1691.16667
2923.345	1731.83333
2925.469	1700.83333
2927.591	1712.5
2929.712	1680.5
2931.832	1674.83333
2933.951	1656.16667
2936.068	1643.83333
2938.184	1623.5
2940.299	1619.16667
2942.412	1607.5
2944.524	1574.16667
2946.634	1595.5
2948.744	1549.83333
2950.851	1589.5
2952.958	1574.5
2955.063	1556.5
2957.167	1566.16667
2959.269	1555.83333
2961.371	1578.5
2963.471	1551.16667
2965.569	1565.16667
2967.666	1535.83333
2969.762	1535.5
2971.857	1522.16667
2973.95	1503.83333
2976.042	1521.83333
2978.133	1491.16667
2980.222	1467.83333
2982.31	1454.16667
2984.396	1443.16667
2986.482	1441.5
2988.566	1439.5
2990.648	1446.83333
2992.73	1434.83333
2994.81	1426.16667
2996.889	1432.83333
2998.966	1444.83333
3001.042	1449.5
3003.117	1442.83333
3005.191	1462.5
3007.263	1443.83333
3009.334	1441.83333
3011.403	1429.83333
3013.472	1410.16667
3015.539	1406.5
3017.604	1389.16667
3019.669	1356.83333
3021.732	1368.16667
3023.794	1364.83333
3025.854	1362.83333
3027.914	1351.16667
3029.971	1368.5
3032.028	1369.5
3034.083	1352.16667
3036.137	1346.16667
3038.19	1316.16667
3040.242	1273.5
3042.292	1255.16667
3044.341	1235.5
3046.388	1247.83333
3048.435	1214.16667
3050.48	1239.83333
3052.524	1226.16667
3054.566	1205.16667
3056.607	1213.16667
3058.647	1195.16667
3060.686	1147.83333
3062.723	1127.83333
3064.759	1083.16667
3066.794	-0.16667
3068.828	5.16667
3070.86	3.5
