-0.839	409.91667
3.438	479.25
7.711	144.91667
11.981	58.91667
16.247	44.58333
20.509	47.58333
24.768	46.91667
29.024	56.25
33.276	45.25
37.524	49.58333
41.769	47.91667
46.01	34.58333
50.247	44.25
54.481	57.58333
58.712	58.91667
62.939	49.58333
67.162	67.25
71.382	56.25
75.599	46.25
79.812	62.25
84.021	79.91667
88.227	60.25
92.429	57.25
96.628	49.91667
100.823	69.91667
105.015	74.91667
109.204	67.58333
113.388	71.58333
117.57	74.58333
121.748	85.91667
125.922	79.91667
130.093	89.91667
134.261	98.91667
138.425	90.58333
142.585	134.25
146.742	125.91667
150.896	147.58333
155.046	184.91667
159.193	290.91667
163.336	478.91667
167.476	870.91667
171.613	1612.25
175.746	2688.58333
179.875	3971.25
184.002	5188.25
188.124	6068.91667
192.244	6383.25
196.36	6359.25
200.472	6235.58333
204.581	6069.91667
208.687	5967.58333
212.79	5942.58333
216.889	5900.58333
220.984	5965.58333
225.077	5959.91667
229.165	5975.91667
233.251	6047.25
237.333	6006.91667
241.412	5921.91667
245.487	5895.58333
249.559	5834.91667
253.628	5794.25
257.694	5701.25
261.756	5679.91667
265.814	5572.25
269.87	5378.25
273.922	5228.91667
277.97	5098.58333
282.016	5034.58333
286.058	5015.91667
290.097	5086.25
294.132	5143.91667
298.164	5086.58333
302.193	4863.91667
306.219	4524.25
310.241	4197.58333
314.26	3886.91667
318.276	3609.58333
322.288	3460.25
326.297	3291.91667
330.303	3183.25
334.305	3103.91667
338.305	3047.25
342.301	3045.58333
346.294	3005.91667
350.283	2959.58333
354.269	2952.91667
358.252	2933.58333
362.232	2919.91667
366.209	2877.25
370.182	2849.58333
374.152	2813.58333
378.119	2853.25
382.083	2837.25
386.043	2861.58333
390	2826.25
393.954	2856.91667
397.905	2827.91667
401.852	2828.25
405.797	2814.25
409.738	2802.25
413.676	2798.58333
417.61	2810.91667
421.542	2782.58333
425.47	2735.91667
429.396	2730.58333
433.318	2712.58333
437.236	2733.25
441.152	2724.25
445.065	2668.25
448.974	2686.91667
452.88	2659.91667
456.783	2619.25
460.683	2608.58333
464.58	2622.25
468.473	2604.91667
472.364	2621.58333
476.251	2632.91667
480.135	2655.25
484.016	2690.91667
487.894	2713.58333
491.769	2691.58333
495.641	2700.25
499.509	2704.58333
503.375	2709.91667
507.237	2707.25
511.096	2698.25
514.952	2785.58333
518.805	2849.58333
522.655	2855.91667
526.502	2745.91667
530.346	2720.91667
534.187	2712.58333
538.024	2756.25
541.859	2752.25
545.69	2762.58333
549.519	2719.25
553.344	2727.25
557.166	2678.25
560.985	2617.58333
564.802	2597.91667
568.615	2550.25
572.425	2528.25
576.232	2520.91667
580.036	2501.91667
583.836	2508.91667
587.634	2514.58333
591.429	2521.91667
595.221	2599.58333
599.01	2598.58333
602.796	2644.58333
606.578	2652.58333
610.358	2645.25
614.135	2637.58333
617.909	2628.25
621.679	2597.25
625.447	2571.58333
629.212	2546.91667
632.973	2581.91667
636.732	2566.25
640.488	2573.25
644.241	2557.58333
647.991	2562.25
651.737	2572.91667
655.481	2550.25
659.222	2534.91667
662.96	2546.25
666.695	2574.58333
670.427	2565.91667
674.156	2598.91667
677.882	2561.58333
681.605	2565.91667
685.325	2547.58333
689.043	2558.91667
692.757	2513.91667
696.468	2515.25
700.177	2507.25
703.882	2497.58333
707.585	2485.58333
711.284	2466.58333
714.981	2489.58333
718.675	2473.25
722.366	2475.91667
726.054	2459.58333
729.739	2477.25
733.421	2465.91667
737.1	2470.91667
740.777	2494.91667
744.45	2482.25
748.121	2489.58333
751.789	2562.58333
755.453	2543.58333
759.115	2548.91667
762.774	2582.58333
766.431	2595.91667
770.084	2630.91667
773.734	2626.91667
777.382	2677.25
781.027	2681.91667
784.669	2712.58333
788.308	2728.25
791.944	2747.91667
795.577	2751.91667
799.208	2758.58333
802.835	2787.25
806.46	2772.58333
810.082	2810.91667
813.701	2811.25
817.317	2818.58333
820.931	2803.25
824.542	2799.58333
828.149	2778.58333
831.754	2770.25
835.357	2747.91667
838.956	2786.91667
842.553	2767.58333
846.146	2769.25
849.737	2714.58333
853.326	2718.25
856.911	2697.58333
860.493	2757.58333
864.073	2775.91667
867.65	2809.91667
871.225	2850.58333
874.796	2843.91667
878.365	2841.58333
881.931	2858.91667
885.494	2859.58333
889.054	2893.58333
892.612	2883.25
896.166	2834.58333
899.719	2805.58333
903.268	2773.58333
906.814	2762.91667
910.358	2725.25
913.899	2723.58333
917.438	2708.58333
920.973	2705.58333
924.506	2738.25
928.036	2774.25
931.564	2814.58333
935.088	2865.91667
938.61	2853.25
942.129	2912.58333
945.646	2949.91667
949.16	3036.91667
952.671	3057.25
956.179	3064.91667
959.685	3021.25
963.188	3018.58333
966.688	2979.91667
970.185	2897.58333
973.68	2848.91667
977.173	2776.91667
980.662	2734.25
984.149	2746.91667
987.633	2713.25
991.114	2778.91667
994.593	2813.58333
998.069	2889.91667
1001.542	2975.58333
1005.013	2944.91667
1008.481	2775.91667
1011.947	2728.58333
1015.409	2705.91667
1018.869	2714.91667
1022.327	2725.58333
1025.782	2673.91667
1029.234	2681.91667
1032.683	2652.91667
1036.13	2575.25
1039.574	2479.91667
1043.016	2414.58333
1046.455	2388.91667
1049.891	2351.58333
1053.325	2364.58333
1056.756	2360.58333
1060.184	2373.58333
1063.61	2388.25
1067.033	2413.25
1070.454	2391.91667
1073.872	2430.58333
1077.287	2410.91667
1080.7	2434.91667
1084.11	2398.91667
1087.517	2386.25
1090.922	2357.25
1094.325	2339.58333
1097.724	2310.58333
1101.122	2316.25
1104.516	2326.91667
1107.908	2337.58333
1111.298	2360.25
1114.684	2392.91667
1118.069	2395.58333
1121.45	2439.91667
1124.83	2437.91667
1128.206	2445.25
1131.58	2482.91667
1134.951	2530.91667
1138.32	2639.25
1141.687	2727.25
1145.05	2769.58333
1148.412	2777.25
1151.77	2796.91667
1155.126	2784.25
1158.48	2749.25
1161.831	2782.91667
1165.18	2794.91667
1168.525	2841.58333
1171.869	2858.58333
1175.21	2874.58333
1178.548	2908.58333
1181.884	2920.25
1185.217	2952.25
1188.548	3022.91667
1191.877	3087.91667
1195.202	3181.25
1198.526	3234.58333
1201.846	3247.91667
1205.165	3225.25
1208.48	3206.91667
1211.794	3174.25
1215.104	3166.91667
1218.413	3151.25
1221.719	3159.25
1225.022	3136.91667
1228.323	3070.25
1231.621	3053.91667
1234.917	3026.91667
1238.21	3051.58333
1241.501	3017.25
1244.79	3006.25
1248.076	3006.58333
1251.359	3011.25
1254.64	3086.91667
1257.919	3126.25
1261.195	3173.25
1264.468	3207.58333
1267.74	3280.91667
1271.008	3263.25
1274.275	3230.25
1277.538	3213.91667
1280.8	3217.58333
1284.059	3245.25
1287.315	3259.91667
1290.569	3243.58333
1293.821	3303.25
1297.07	3305.58333
1300.317	3309.58333
1303.562	3311.91667
1306.803	3264.25
1310.043	3291.91667
1313.28	3239.58333
1316.515	3207.91667
1319.747	3188.58333
1322.977	3137.91667
1326.204	3113.25
1329.429	3084.25
1332.652	3058.91667
1335.872	3047.58333
1339.09	3009.58333
1342.306	2961.91667
1345.519	2948.58333
1348.729	2942.58333
1351.938	2930.91667
1355.144	2894.25
1358.347	2816.25
1361.548	2814.91667
1364.747	2797.58333
1367.944	2784.25
1371.138	2786.25
1374.329	2769.58333
1377.518	2785.25
1380.705	2838.58333
1383.89	2788.91667
1387.072	2717.91667
1390.252	2633.25
1393.429	2518.91667
1396.605	2456.58333
1399.777	2379.25
1402.948	2363.91667
1406.116	2344.91667
1409.282	2314.58333
1412.445	2331.58333
1415.606	2368.91667
1418.765	2388.25
1421.921	2428.58333
1425.075	2478.91667
1428.227	2559.91667
1431.376	2671.58333
1434.524	2777.91667
1437.668	2846.58333
1440.811	2890.91667
1443.951	2911.25
1447.089	2903.58333
1450.224	2915.25
1453.357	2888.58333
1456.488	2859.25
1459.617	2805.58333
1462.743	2795.58333
1465.867	2723.58333
1468.989	2686.25
1472.108	2662.25
1475.225	2616.58333
1478.34	2580.91667
1481.453	2564.91667
1484.563	2559.58333
1487.671	2640.91667
1490.776	2659.58333
1493.88	2703.91667
1496.981	2749.91667
1500.08	2774.25
1503.176	2802.58333
1506.271	2839.25
1509.363	2886.91667
1512.452	2924.91667
1515.54	2946.58333
1518.625	3013.25
1521.708	3060.91667
1524.789	3128.25
1527.867	3246.58333
1530.944	3396.91667
1534.018	3535.91667
1537.089	3679.91667
1540.159	3708.58333
1543.226	3688.25
1546.291	3624.25
1549.354	3542.91667
1552.415	3466.25
1555.473	3403.25
1558.529	3326.25
1561.583	3315.91667
1564.634	3270.58333
1567.684	3302.91667
1570.731	3325.58333
1573.776	3366.58333
1576.819	3414.58333
1579.859	3470.25
1582.898	3485.58333
1585.934	3539.91667
1588.968	3528.58333
1591.999	3503.58333
1595.029	3535.25
1598.056	3550.91667
1601.081	3554.91667
1604.104	3523.25
1607.125	3501.58333
1610.144	3439.25
1613.16	3354.91667
1616.174	3288.58333
1619.186	3225.91667
1622.196	3133.25
1625.203	3063.91667
1628.209	3008.91667
1631.212	2972.25
1634.213	2918.25
1637.212	2908.91667
1640.209	2843.58333
1643.203	2783.25
1646.196	2689.58333
1649.186	2587.58333
1652.174	2530.91667
1655.16	2423.25
1658.144	2341.25
1661.125	2246.25
1664.105	2148.58333
1667.082	2039.25
1670.057	1943.58333
1673.03	1831.91667
1676.001	1718.25
1678.97	1617.25
1681.937	1512.91667
1684.901	1455.58333
1687.863	1393.91667
1690.824	1333.91667
1693.782	1306.58333
1696.738	1241.25
1699.692	1240.25
1702.643	1186.91667
1705.593	1190.58333
1708.54	1163.25
1711.486	1170.58333
1714.429	1134.91667
1717.37	1131.58333
1720.309	1115.58333
1723.246	1112.58333
1726.181	1098.91667
1729.113	1098.58333
1732.044	1073.91667
1734.972	1065.91667
1737.899	1063.25
1740.823	1060.58333
1743.745	1068.58333
1746.665	1027.25
1749.583	999.25
1752.499	992.25
1755.413	982.58333
1758.325	959.58333
1761.235	958.58333
1764.142	939.25
1767.048	920.25
1769.951	930.25
1772.852	925.91667
1775.752	926.25
1778.649	932.91667
1781.544	925.25
1784.437	895.25
1787.328	914.58333
1790.217	893.58333
1793.104	857.58333
1795.989	870.58333
1798.872	861.58333
1801.753	871.58333
1804.631	863.58333
1807.508	883.91667
1810.383	867.91667
1813.255	872.25
1816.126	851.91667
1818.994	852.91667
1821.861	839.91667
1824.725	842.58333
1827.587	841.25
1830.448	843.91667
1833.306	809.25
1836.162	825.91667
1839.017	821.58333
1841.869	816.25
1844.719	798.25
1847.567	804.91667
1850.414	779.91667
1853.258	794.58333
1856.1	809.91667
1858.94	804.91667
1861.778	795.58333
1864.614	782.25
1867.448	797.25
1870.28	772.58333
1873.111	803.58333
1875.939	790.25
1878.765	806.91667
1881.589	786.25
1884.411	769.58333
1887.231	778.58333
1890.049	774.25
1892.865	770.91667
1895.68	769.91667
1898.492	782.58333
1901.302	768.25
1904.11	763.25
1906.916	747.58333
1909.721	748.25
1912.523	770.58333
1915.323	753.58333
1918.122	736.91667
1920.918	752.25
1923.712	746.91667
1926.505	736.58333
1929.295	727.58333
1932.084	742.91667
1934.87	735.91667
1937.655	744.91667
1940.438	733.58333
1943.218	739.91667
1945.997	736.25
1948.774	738.25
1951.549	734.91667
1954.322	731.91667
1957.093	723.91667
1959.862	719.91667
1962.629	721.91667
1965.394	711.91667
1968.157	701.25
1970.918	713.58333
1973.678	701.91667
1976.435	712.91667
1979.19	696.58333
1981.944	690.58333
1984.696	698.58333
1987.445	686.91667
1990.193	694.58333
1992.939	695.91667
1995.683	692.25
1998.425	667.91667
2001.165	704.58333
2003.903	671.91667
2006.639	680.58333
2009.374	703.91667
2012.106	679.25
2014.837	664.91667
2017.566	677.58333
2020.292	686.25
2023.017	684.58333
2025.74	672.25
2028.461	673.58333
2031.18	670.25
2033.898	665.25
2036.613	657.91667
2039.327	670.25
2042.038	660.25
2044.748	660.91667
2047.456	658.25
2050.162	637.91667
2052.866	646.58333
2055.568	660.58333
2058.268	649.25
2060.967	649.25
2063.663	641.91667
2066.358	641.58333
2069.051	640.91667
2071.742	645.91667
2074.431	638.58333
2077.118	642.91667
2079.804	641.58333
2082.487	641.58333
2085.169	645.25
2087.849	662.91667
2090.527	628.25
2093.203	639.25
2095.877	661.25
2098.55	648.25
2101.22	655.25
2103.889	654.58333
2106.556	657.58333
2109.221	682.58333
2111.884	676.58333
2114.546	706.58333
2117.205	748.58333
2119.863	790.58333
2122.519	829.91667
2125.173	868.91667
2127.825	904.58333
2130.475	910.25
2133.124	901.25
2135.771	867.58333
2138.416	843.58333
2141.059	798.91667
2143.7	766.25
2146.339	739.91667
2148.977	690.58333
2151.613	688.58333
2154.247	676.58333
2156.879	667.58333
2159.51	644.58333
2162.138	644.58333
2164.765	637.25
2167.39	617.91667
2170.013	638.91667
2172.634	633.25
2175.254	610.58333
2177.872	649.25
2180.488	616.25
2183.102	605.58333
2185.714	608.25
2188.325	582.25
2190.934	599.91667
2193.541	603.58333
2196.146	589.91667
2198.75	577.25
2201.351	581.25
2203.951	574.58333
2206.549	580.25
2209.146	582.25
2211.74	574.58333
2214.333	582.91667
2216.924	551.91667
2219.514	575.91667
2222.101	552.91667
2224.687	574.58333
2227.271	570.58333
2229.853	552.58333
2232.433	543.91667
2235.012	572.25
2237.589	562.58333
2240.164	579.25
2242.738	556.25
2245.309	545.91667
2247.879	553.58333
2250.448	549.91667
2253.014	540.91667
2255.579	520.25
2258.142	532.58333
2260.703	531.25
2263.262	522.58333
2265.82	518.25
2268.376	528.91667
2270.93	508.58333
2273.483	512.58333
2276.033	522.91667
2278.583	514.25
2281.13	515.25
2283.675	500.25
2286.219	507.91667
2288.761	495.25
2291.302	507.25
2293.841	513.25
2296.377	500.91667
2298.913	502.58333
2301.446	519.58333
2303.978	503.58333
2306.508	502.91667
2309.037	498.58333
2311.563	496.25
2314.088	503.91667
2316.612	486.25
2319.133	493.91667
2321.653	501.58333
2324.171	485.91667
2326.688	497.25
2329.202	481.91667
2331.715	491.58333
2334.227	492.25
2336.736	498.91667
2339.244	490.58333
2341.751	474.91667
2344.255	503.58333
2346.758	488.25
2349.259	469.25
2351.759	483.91667
2354.257	482.91667
2356.753	470.25
2359.247	476.91667
2361.74	495.58333
2364.231	480.25
2366.721	487.91667
2369.209	484.25
2371.695	478.25
2374.179	470.25
2376.662	460.58333
2379.143	492.25
2381.622	482.91667
2384.1	488.91667
2386.576	483.25
2389.051	493.25
2391.524	491.58333
2393.995	478.58333
2396.464	477.58333
2398.932	487.58333
2401.398	473.58333
2403.863	477.25
2406.325	458.91667
2408.787	466.91667
2411.246	484.25
2413.704	471.58333
2416.16	470.25
2418.615	464.25
2421.068	482.58333
2423.519	474.58333
2425.969	463.91667
2428.417	475.25
2430.863	491.25
2433.308	483.25
2435.751	464.58333
2438.193	467.91667
2440.633	478.91667
2443.071	481.58333
2445.508	466.25
2447.943	465.58333
2450.376	465.58333
2452.808	463.58333
2455.238	463.25
2457.667	503.91667
2460.093	473.91667
2462.519	468.25
2464.942	468.58333
2467.365	477.25
2469.785	476.91667
2472.204	483.25
2474.621	465.58333
2477.037	485.25
2479.451	456.25
2481.863	459.91667
2484.274	458.25
2486.683	470.91667
2489.091	478.91667
2491.497	467.58333
2493.901	471.25
2496.304	462.58333
2498.705	472.91667
2501.105	473.91667
2503.503	488.25
2505.899	458.58333
2508.294	477.58333
2510.687	474.91667
2513.079	468.91667
2515.469	468.91667
2517.858	477.25
2520.245	480.25
2522.63	462.25
2525.014	455.91667
2527.396	466.25
2529.776	455.58333
2532.156	476.58333
2534.533	462.91667
2536.909	455.91667
2539.283	457.91667
2541.656	460.58333
2544.027	485.58333
2546.397	462.58333
2548.765	459.91667
2551.131	461.91667
2553.496	469.58333
2555.86	473.91667
2558.221	473.58333
2560.582	468.58333
2562.94	448.25
2565.298	468.91667
2567.653	485.25
2570.007	462.91667
2572.36	469.25
2574.711	462.25
2577.06	473.58333
2579.408	473.58333
2581.754	472.25
2584.099	480.91667
2586.442	472.58333
2588.784	476.58333
2591.124	467.91667
2593.463	466.58333
2595.8	476.91667
2598.135	466.91667
2600.469	467.58333
2602.802	471.58333
2605.133	481.58333
2607.462	473.25
2609.79	454.25
2612.116	472.58333
2614.441	475.58333
2616.764	478.91667
2619.086	478.25
2621.406	462.91667
2623.725	494.25
2626.042	480.25
2628.358	476.25
2630.672	474.58333
2632.985	493.91667
2635.296	494.91667
2637.606	482.58333
2639.914	473.25
2642.22	483.25
2644.525	489.91667
2646.829	488.25
2649.131	505.58333
2651.432	504.25
2653.731	485.91667
2656.028	499.91667
2658.324	500.58333
2660.619	503.58333
2662.912	507.58333
2665.204	496.58333
2667.494	506.58333
2669.782	495.25
2672.07	512.91667
2674.355	507.25
2676.639	505.25
2678.922	493.58333
2681.203	502.25
2683.483	492.58333
2685.761	497.25
2688.038	509.25
2690.313	519.58333
2692.587	511.25
2694.859	506.91667
2697.13	507.25
2699.399	516.91667
2701.667	517.25
2703.933	519.58333
2706.198	524.91667
2708.461	530.91667
2710.723	532.58333
2712.984	521.58333
2715.243	529.58333
2717.5	522.58333
2719.757	547.25
2722.011	537.91667
2724.264	547.58333
2726.516	561.25
2728.766	542.91667
2731.015	549.25
2733.262	558.58333
2735.508	544.58333
2737.753	554.25
2739.996	536.91667
2742.237	535.25
2744.477	546.25
2746.716	551.91667
2748.953	534.91667
2751.189	542.58333
2753.423	542.91667
2755.656	522.58333
2757.887	521.91667
2760.117	534.91667
2762.346	518.25
2764.573	527.91667
2766.798	524.91667
2769.022	517.58333
2771.245	535.25
2773.467	527.91667
2775.686	550.25
2777.905	542.25
2780.122	546.58333
2782.337	554.58333
2784.552	539.58333
2786.764	546.25
2788.976	557.25
2791.186	551.58333
2793.394	563.25
2795.601	563.25
2797.807	568.58333
2800.011	574.58333
2802.214	575.91667
2804.415	581.91667
2806.615	578.91667
2808.814	581.25
2811.011	599.91667
2813.206	593.58333
2815.401	601.25
2817.594	613.25
2819.785	615.25
2821.975	605.58333
2824.164	611.25
2826.351	629.25
2828.537	635.58333
2830.722	645.58333
2832.905	646.25
2835.086	675.25
2837.267	704.58333
2839.445	702.25
2841.623	715.58333
2843.799	742.91667
2845.974	765.25
2848.147	790.58333
2850.319	818.58333
2852.489	835.91667
2854.659	840.25
2856.826	848.25
2858.993	894.25
2861.158	866.91667
2863.321	875.58333
2865.483	895.91667
2867.644	887.58333
2869.804	869.91667
2871.962	865.91667
2874.118	878.25
2876.274	883.25
2878.428	884.91667
2880.58	867.58333
2882.731	871.58333
2884.881	866.91667
2887.03	874.58333
2889.177	862.25
2891.322	884.91667
2893.467	883.25
2895.61	881.91667
2897.751	912.25
2899.892	902.58333
2902.03	899.91667
2904.168	899.25
2906.304	914.58333
2908.439	929.25
2910.572	914.91667
2912.704	935.58333
2914.835	932.91667
2916.965	936.58333
2919.093	944.91667
2921.219	920.58333
2923.345	941.58333
2925.469	914.25
2927.591	917.91667
2929.712	894.91667
2931.832	885.25
2933.951	867.25
2936.068	857.25
2938.184	844.58333
2940.299	820.58333
2942.412	822.91667
2944.524	789.25
2946.634	786.91667
2948.744	736.25
2950.851	767.25
2952.958	744.91667
2955.063	738.58333
2957.167	728.91667
2959.269	699.25
2961.371	726.58333
2963.471	686.91667
2965.569	704.91667
2967.666	669.91667
2969.762	675.91667
2971.857	654.91667
2973.95	634.58333
2976.042	637.91667
2978.133	633.58333
2980.222	613.91667
2982.31	606.91667
2984.396	592.25
2986.482	597.91667
2988.566	585.91667
2990.648	585.58333
2992.73	579.58333
2994.81	573.91667
2996.889	570.25
2998.966	573.91667
3001.042	584.91667
3003.117	577.25
3005.191	569.25
3007.263	568.91667
3009.334	567.58333
3011.403	567.91667
3013.472	546.25
3015.539	555.58333
3017.604	539.58333
3019.669	515.91667
3021.732	526.58333
3023.794	524.58333
3025.854	525.25
3027.914	519.25
3029.971	533.58333
3032.028	529.91667
3034.083	522.58333
3036.137	513.91667
3038.19	500.25
3040.242	490.91667
3042.292	474.25
3044.341	479.58333
3046.388	489.25
3048.435	462.58333
3050.48	479.25
3052.524	476.91667
3054.566	456.25
3056.607	466.91667
3058.647	452.58333
3060.686	434.25
3062.723	430.25
3064.759	409.25
3066.794	-1.08333
3068.828	4.25
3070.86	3.25
