-0.839	428.20833
3.438	495.54167
7.711	157.54167
11.981	61.20833
16.247	45.875
20.509	53.54167
24.768	46.54167
29.024	56.875
33.276	48.875
37.524	52.875
41.769	50.875
46.01	38.54167
50.247	49.875
54.481	59.20833
58.712	62.20833
62.939	54.875
67.162	67.875
71.382	61.20833
75.599	51.54167
79.812	65.54167
84.021	82.875
88.227	64.875
92.429	64.875
96.628	59.20833
100.823	72.54167
105.015	76.875
109.204	72.875
113.388	81.875
117.57	84.20833
121.748	99.875
125.922	91.20833
130.093	108.54167
134.261	108.875
138.425	109.20833
142.585	155.875
146.742	134.20833
150.896	185.54167
155.046	224.875
159.193	354.20833
163.336	590.54167
167.476	1072.875
171.613	1990.875
175.746	3321.20833
179.875	4950.875
184.002	6495.20833
188.124	7581.20833
192.244	7981.875
196.36	8004.54167
200.472	7808.20833
204.581	7641.875
208.687	7475.54167
212.79	7425.875
216.889	7408.20833
220.984	7461.20833
225.077	7476.54167
229.165	7515.54167
233.251	7580.54167
237.333	7534.875
241.412	7480.20833
245.487	7405.54167
249.559	7352.20833
253.628	7292.54167
257.694	7248.54167
261.756	7173.20833
265.814	7079.20833
269.87	6871.875
273.922	6641.875
277.97	6491.875
282.016	6444.20833
286.058	6448.875
290.097	6532.54167
294.132	6587.875
298.164	6503.54167
302.193	6256.54167
306.219	5847.20833
310.241	5465.20833
314.26	5080.54167
318.276	4771.20833
322.288	4568.54167
326.297	4389.875
330.303	4246.20833
334.305	4144.20833
338.305	4086.54167
342.301	4027.875
346.294	3990.20833
350.283	3986.20833
354.269	3963.20833
358.252	3928.54167
362.232	3911.875
366.209	3892.875
370.182	3851.875
374.152	3826.20833
378.119	3823.54167
382.083	3843.54167
386.043	3806.20833
390	3818.54167
393.954	3818.875
397.905	3801.20833
401.852	3763.20833
405.797	3748.54167
409.738	3755.875
413.676	3754.54167
417.61	3751.875
421.542	3736.20833
425.47	3716.875
429.396	3696.54167
433.318	3671.20833
437.236	3654.20833
441.152	3689.54167
445.065	3632.20833
448.974	3626.54167
452.88	3625.20833
456.783	3532.54167
460.683	3545.875
464.58	3541.20833
468.473	3554.20833
472.364	3574.875
476.251	3599.54167
480.135	3601.20833
484.016	3629.20833
487.894	3649.875
491.769	3681.875
495.641	3654.20833
499.509	3654.54167
503.375	3677.20833
507.237	3665.875
511.096	3639.54167
514.952	3659.20833
518.805	3685.875
522.655	3716.20833
526.502	3670.54167
530.346	3641.20833
534.187	3696.54167
538.024	3700.20833
541.859	3705.875
545.69	3741.875
549.519	3697.875
553.344	3685.54167
557.166	3643.20833
560.985	3613.875
564.802	3523.875
568.615	3447.875
572.425	3414.20833
576.232	3413.54167
580.036	3425.54167
583.836	3436.875
587.634	3432.20833
591.429	3452.875
595.221	3511.875
599.01	3534.875
602.796	3570.875
606.578	3576.20833
610.358	3593.20833
614.135	3575.875
617.909	3545.54167
621.679	3522.875
625.447	3502.20833
629.212	3497.54167
632.973	3496.54167
636.732	3489.20833
640.488	3485.875
644.241	3442.20833
647.991	3451.875
651.737	3458.20833
655.481	3412.20833
659.222	3456.875
662.96	3426.20833
666.695	3456.875
670.427	3501.54167
674.156	3496.875
677.882	3439.875
681.605	3462.20833
685.325	3418.54167
689.043	3449.20833
692.757	3395.54167
696.468	3381.875
700.177	3398.875
703.882	3346.20833
707.585	3336.54167
711.284	3343.54167
714.981	3341.20833
718.675	3336.54167
722.366	3337.875
726.054	3316.20833
729.739	3324.20833
733.421	3331.875
737.1	3319.20833
740.777	3330.54167
744.45	3364.54167
748.121	3395.875
751.789	3426.875
755.453	3421.875
759.115	3456.54167
762.774	3462.54167
766.431	3459.54167
770.084	3483.20833
773.734	3527.54167
777.382	3583.20833
781.027	3584.875
784.669	3617.875
788.308	3668.875
791.944	3649.875
795.577	3645.875
799.208	3663.54167
802.835	3673.875
806.46	3684.20833
810.082	3722.875
813.701	3694.54167
817.317	3754.875
820.931	3742.20833
824.542	3745.54167
828.149	3701.875
831.754	3702.875
835.357	3683.875
838.956	3680.54167
842.553	3672.875
846.146	3653.54167
849.737	3621.875
853.326	3634.875
856.911	3628.20833
860.493	3652.54167
864.073	3684.20833
867.65	3743.875
871.225	3752.20833
874.796	3766.875
878.365	3795.20833
881.931	3790.54167
885.494	3803.875
889.054	3822.875
892.612	3823.875
896.166	3791.54167
899.719	3738.875
903.268	3722.875
906.814	3690.54167
910.358	3653.20833
913.899	3611.54167
917.438	3626.875
920.973	3630.20833
924.506	3673.20833
928.036	3722.54167
931.564	3774.54167
935.088	3797.20833
938.61	3798.875
942.129	3835.54167
945.646	3964.54167
949.16	4013.875
952.671	4045.20833
956.179	4034.875
959.685	4018.20833
963.188	3974.54167
966.688	3953.875
970.185	3825.54167
973.68	3753.54167
977.173	3677.20833
980.662	3637.20833
984.149	3616.54167
987.633	3588.54167
991.114	3668.875
994.593	3725.875
998.069	3807.875
1001.542	3890.20833
1005.013	3848.20833
1008.481	3671.20833
1011.947	3596.54167
1015.409	3583.20833
1018.869	3576.54167
1022.327	3570.54167
1025.782	3528.875
1029.234	3524.20833
1032.683	3463.20833
1036.13	3363.875
1039.574	3251.875
1043.016	3174.54167
1046.455	3130.20833
1049.891	3095.20833
1053.325	3105.54167
1056.756	3120.875
1060.184	3121.20833
1063.61	3142.54167
1067.033	3148.54167
1070.454	3129.54167
1073.872	3173.54167
1077.287	3168.54167
1080.7	3196.54167
1084.11	3165.20833
1087.517	3152.54167
1090.922	3103.54167
1094.325	3087.875
1097.724	3037.54167
1101.122	3075.20833
1104.516	3064.875
1107.908	3060.54167
1111.298	3097.54167
1114.684	3150.20833
1118.069	3178.875
1121.45	3183.20833
1124.83	3207.20833
1128.206	3267.875
1131.58	3305.20833
1134.951	3394.54167
1138.32	3502.20833
1141.687	3590.20833
1145.05	3696.20833
1148.412	3714.875
1151.77	3685.54167
1155.126	3674.20833
1158.48	3654.875
1161.831	3662.20833
1165.18	3714.875
1168.525	3765.20833
1171.869	3788.20833
1175.21	3793.20833
1178.548	3813.54167
1181.884	3876.54167
1185.217	3916.54167
1188.548	3974.875
1191.877	4058.20833
1195.202	4156.20833
1198.526	4219.20833
1201.846	4232.20833
1205.165	4216.875
1208.48	4194.54167
1211.794	4169.54167
1215.104	4166.875
1218.413	4163.875
1221.719	4137.20833
1225.022	4090.54167
1228.323	4032.20833
1231.621	3964.875
1234.917	3936.20833
1238.21	3949.875
1241.501	3938.875
1244.79	3902.20833
1248.076	3913.875
1251.359	3957.20833
1254.64	4054.20833
1257.919	4096.54167
1261.195	4139.20833
1264.468	4221.875
1267.74	4254.54167
1271.008	4269.54167
1274.275	4264.54167
1277.538	4217.875
1280.8	4193.54167
1284.059	4180.875
1287.315	4250.875
1290.569	4258.875
1293.821	4268.875
1297.07	4268.20833
1300.317	4271.875
1303.562	4264.20833
1306.803	4231.875
1310.043	4234.20833
1313.28	4163.54167
1316.515	4144.54167
1319.747	4107.54167
1322.977	4067.875
1326.204	4008.875
1329.429	3976.54167
1332.652	3945.54167
1335.872	3941.875
1339.09	3881.54167
1342.306	3857.875
1345.519	3807.54167
1348.729	3765.20833
1351.938	3763.875
1355.144	3733.54167
1358.347	3667.20833
1361.548	3672.54167
1364.747	3641.54167
1367.944	3613.875
1371.138	3648.20833
1374.329	3666.54167
1377.518	3667.20833
1380.705	3708.20833
1383.89	3685.54167
1387.072	3589.20833
1390.252	3451.20833
1393.429	3317.20833
1396.605	3214.54167
1399.777	3154.875
1402.948	3110.875
1406.116	3072.20833
1409.282	3065.20833
1412.445	3038.875
1415.606	3088.875
1418.765	3111.20833
1421.921	3188.875
1425.075	3258.20833
1428.227	3340.875
1431.376	3474.20833
1434.524	3586.20833
1437.668	3678.20833
1440.811	3706.54167
1443.951	3746.54167
1447.089	3765.20833
1450.224	3764.54167
1453.357	3754.20833
1456.488	3745.20833
1459.617	3678.20833
1462.743	3627.54167
1465.867	3560.54167
1468.989	3539.54167
1472.108	3468.20833
1475.225	3445.54167
1478.34	3424.20833
1481.453	3429.20833
1484.563	3445.20833
1487.671	3499.54167
1490.776	3536.20833
1493.88	3620.54167
1496.981	3658.875
1500.08	3685.54167
1503.176	3760.20833
1506.271	3782.875
1509.363	3844.20833
1512.452	3889.20833
1515.54	3932.54167
1518.625	3977.54167
1521.708	4064.54167
1524.789	4150.20833
1527.867	4270.54167
1530.944	4482.20833
1534.018	4656.54167
1537.089	4794.54167
1540.159	4835.875
1543.226	4838.875
1546.291	4754.20833
1549.354	4649.20833
1552.415	4542.875
1555.473	4464.20833
1558.529	4404.875
1561.583	4348.54167
1564.634	4331.20833
1567.684	4341.20833
1570.731	4343.54167
1573.776	4397.875
1576.819	4471.20833
1579.859	4522.20833
1582.898	4565.875
1585.934	4613.875
1588.968	4613.20833
1591.999	4610.20833
1595.029	4620.875
1598.056	4625.54167
1601.081	4627.875
1604.104	4605.875
1607.125	4575.20833
1610.144	4465.20833
1613.16	4368.54167
1616.174	4276.54167
1619.186	4203.54167
1622.196	4070.20833
1625.203	3960.20833
1628.209	3888.875
1631.212	3816.20833
1634.213	3788.20833
1637.212	3766.20833
1640.209	3676.20833
1643.203	3604.20833
1646.196	3474.54167
1649.186	3332.54167
1652.174	3221.54167
1655.16	3101.54167
1658.144	2999.875
1661.125	2863.20833
1664.105	2717.54167
1667.082	2608.54167
1670.057	2502.20833
1673.03	2366.54167
1676.001	2214.20833
1678.97	2111.20833
1681.937	1986.20833
1684.901	1907.20833
1687.863	1818.875
1690.824	1747.20833
1693.782	1727.54167
1696.738	1655.875
1699.692	1629.54167
1702.643	1595.20833
1705.593	1566.20833
1708.54	1532.20833
1711.486	1551.875
1714.429	1496.54167
1717.37	1510.875
1720.309	1444.54167
1723.246	1481.875
1726.181	1447.20833
1729.113	1449.54167
1732.044	1416.20833
1734.972	1401.875
1737.899	1412.875
1740.823	1409.875
1743.745	1407.875
1746.665	1357.875
1749.583	1344.875
1752.499	1311.875
1755.413	1311.875
1758.325	1284.54167
1761.235	1283.20833
1764.142	1263.54167
1767.048	1245.54167
1769.951	1236.875
1772.852	1241.875
1775.752	1220.20833
1778.649	1223.875
1781.544	1216.20833
1784.437	1188.20833
1787.328	1201.875
1790.217	1203.54167
1793.104	1156.20833
1795.989	1174.20833
1798.872	1153.54167
1801.753	1174.54167
1804.631	1158.54167
1807.508	1180.875
1810.383	1154.875
1813.255	1152.20833
1816.126	1149.20833
1818.994	1145.875
1821.861	1138.20833
1824.725	1120.875
1827.587	1128.875
1830.448	1109.20833
1833.306	1084.54167
1836.162	1092.20833
1839.017	1088.54167
1841.869	1087.20833
1844.719	1091.875
1847.567	1069.20833
1850.414	1064.875
1853.258	1067.875
1856.1	1078.20833
1858.94	1086.875
1861.778	1067.54167
1864.614	1050.20833
1867.448	1061.20833
1870.28	1043.20833
1873.111	1074.54167
1875.939	1051.875
1878.765	1072.20833
1881.589	1031.875
1884.411	1035.875
1887.231	1052.54167
1890.049	1026.875
1892.865	1033.875
1895.68	1014.54167
1898.492	1022.20833
1901.302	1022.875
1904.11	1022.875
1906.916	1007.54167
1909.721	990.20833
1912.523	1003.20833
1915.323	981.20833
1918.122	984.20833
1920.918	998.20833
1923.712	982.20833
1926.505	985.20833
1929.295	964.20833
1932.084	967.54167
1934.87	974.54167
1937.655	956.875
1940.438	964.54167
1943.218	968.20833
1945.997	970.20833
1948.774	980.875
1951.549	982.20833
1954.322	952.875
1957.093	959.54167
1959.862	957.54167
1962.629	936.54167
1965.394	939.20833
1968.157	929.20833
1970.918	921.20833
1973.678	924.875
1976.435	934.20833
1979.19	916.875
1981.944	908.20833
1984.696	909.875
1987.445	892.875
1990.193	920.20833
1992.939	927.875
1995.683	893.54167
1998.425	889.54167
2001.165	912.54167
2003.903	896.875
2006.639	888.20833
2009.374	912.20833
2012.106	889.54167
2014.837	874.875
2017.566	902.54167
2020.292	889.54167
2023.017	885.54167
2025.74	878.20833
2028.461	866.875
2031.18	877.875
2033.898	873.20833
2036.613	854.54167
2039.327	867.54167
2042.038	855.54167
2044.748	851.875
2047.456	863.20833
2050.162	843.20833
2052.866	845.875
2055.568	851.54167
2058.268	859.54167
2060.967	859.20833
2063.663	828.54167
2066.358	831.54167
2069.051	827.54167
2071.742	839.20833
2074.431	847.54167
2077.118	827.875
2079.804	817.20833
2082.487	837.20833
2085.169	849.54167
2087.849	866.54167
2090.527	830.875
2093.203	835.54167
2095.877	839.875
2098.55	862.875
2101.22	855.54167
2103.889	864.20833
2106.556	859.54167
2109.221	887.54167
2111.884	898.875
2114.546	956.20833
2117.205	992.20833
2119.863	1067.20833
2122.519	1114.54167
2125.173	1181.20833
2127.825	1230.20833
2130.475	1226.875
2133.124	1199.20833
2135.771	1155.54167
2138.416	1129.54167
2141.059	1048.875
2143.7	1033.20833
2146.339	971.20833
2148.977	934.875
2151.613	914.875
2154.247	888.875
2156.879	876.20833
2159.51	843.54167
2162.138	837.20833
2164.765	818.875
2167.39	807.20833
2170.013	820.875
2172.634	807.875
2175.254	799.54167
2177.872	815.54167
2180.488	768.20833
2183.102	777.54167
2185.714	768.20833
2188.325	742.875
2190.934	753.54167
2193.541	763.20833
2196.146	744.54167
2198.75	737.20833
2201.351	721.54167
2203.951	727.20833
2206.549	732.20833
2209.146	724.54167
2211.74	718.54167
2214.333	712.54167
2216.924	699.875
2219.514	701.20833
2222.101	699.54167
2224.687	705.54167
2227.271	690.875
2229.853	681.54167
2232.433	677.20833
2235.012	698.54167
2237.589	688.20833
2240.164	693.54167
2242.738	686.54167
2245.309	680.875
2247.879	689.54167
2250.448	676.875
2253.014	653.54167
2255.579	649.20833
2258.142	640.20833
2260.703	642.875
2263.262	644.20833
2265.82	627.54167
2268.376	634.54167
2270.93	620.20833
2273.483	615.54167
2276.033	630.20833
2278.583	624.20833
2281.13	615.875
2283.675	609.20833
2286.219	607.54167
2288.761	616.875
2291.302	612.54167
2293.841	620.875
2296.377	592.875
2298.913	599.875
2301.446	606.875
2303.978	602.875
2306.508	588.54167
2309.037	594.20833
2311.563	596.54167
2314.088	598.54167
2316.612	581.20833
2319.133	585.20833
2321.653	581.54167
2324.171	567.875
2326.688	585.875
2329.202	572.20833
2331.715	585.54167
2334.227	571.54167
2336.736	571.20833
2339.244	567.54167
2341.751	543.875
2344.255	575.20833
2346.758	565.20833
2349.259	551.875
2351.759	553.54167
2354.257	554.54167
2356.753	550.20833
2359.247	550.54167
2361.74	559.54167
2364.231	551.54167
2366.721	553.54167
2369.209	543.875
2371.695	548.20833
2374.179	530.875
2376.662	528.20833
2379.143	546.20833
2381.622	533.54167
2384.1	544.875
2386.576	533.20833
2389.051	547.875
2391.524	545.54167
2393.995	537.54167
2396.464	526.875
2398.932	537.875
2401.398	524.875
2403.863	528.54167
2406.325	512.20833
2408.787	523.875
2411.246	517.54167
2413.704	515.54167
2416.16	515.54167
2418.615	512.875
2421.068	528.875
2423.519	522.54167
2425.969	513.875
2428.417	515.875
2430.863	527.20833
2433.308	521.54167
2435.751	514.20833
2438.193	514.875
2440.633	510.875
2443.071	510.875
2445.508	497.20833
2447.943	504.875
2450.376	491.20833
2452.808	502.875
2455.238	486.20833
2457.667	527.875
2460.093	497.875
2462.519	488.20833
2464.942	493.20833
2467.365	493.875
2469.785	497.20833
2472.204	490.875
2474.621	467.875
2477.037	496.54167
2479.451	470.20833
2481.863	468.875
2484.274	476.875
2486.683	477.875
2489.091	484.875
2491.497	474.54167
2493.901	481.54167
2496.304	466.20833
2498.705	484.875
2501.105	465.54167
2503.503	501.875
2505.899	455.20833
2508.294	491.54167
2510.687	471.20833
2513.079	461.875
2515.469	452.20833
2517.858	461.875
2520.245	484.54167
2522.63	458.875
2525.014	455.54167
2527.396	450.54167
2529.776	455.20833
2532.156	465.54167
2534.533	449.54167
2536.909	450.875
2539.283	435.54167
2541.656	446.54167
2544.027	465.20833
2546.397	447.20833
2548.765	447.54167
2551.131	442.20833
2553.496	443.54167
2555.86	451.875
2558.221	444.875
2560.582	441.875
2562.94	432.54167
2565.298	443.875
2567.653	462.875
2570.007	428.20833
2572.36	446.54167
2574.711	426.875
2577.06	456.875
2579.408	449.20833
2581.754	435.875
2584.099	434.20833
2586.442	434.54167
2588.784	436.875
2591.124	431.20833
2593.463	432.875
2595.8	434.54167
2598.135	426.20833
2600.469	428.875
2602.802	431.54167
2605.133	443.875
2607.462	422.20833
2609.79	415.875
2612.116	429.20833
2614.441	428.875
2616.764	432.20833
2619.086	421.54167
2621.406	410.20833
2623.725	440.54167
2626.042	429.20833
2628.358	418.875
2630.672	421.875
2632.985	437.875
2635.296	427.20833
2637.606	424.54167
2639.914	411.875
2642.22	412.54167
2644.525	424.20833
2646.829	422.20833
2649.131	436.20833
2651.432	440.875
2653.731	422.54167
2656.028	444.20833
2658.324	441.20833
2660.619	424.875
2662.912	429.20833
2665.204	416.20833
2667.494	437.20833
2669.782	426.875
2672.07	429.875
2674.355	436.875
2676.639	426.20833
2678.922	419.20833
2681.203	430.20833
2683.483	415.54167
2685.761	423.20833
2688.038	424.875
2690.313	441.20833
2692.587	420.875
2694.859	423.875
2697.13	433.54167
2699.399	440.875
2701.667	444.20833
2703.933	426.54167
2706.198	440.20833
2708.461	440.20833
2710.723	452.20833
2712.984	443.54167
2715.243	451.875
2717.5	437.875
2719.757	450.54167
2722.011	447.54167
2724.264	457.875
2726.516	455.875
2728.766	438.875
2731.015	452.875
2733.262	459.875
2735.508	451.875
2737.753	443.54167
2739.996	431.54167
2742.237	427.20833
2744.477	440.54167
2746.716	444.54167
2748.953	430.875
2751.189	438.20833
2753.423	424.875
2755.656	419.54167
2757.887	422.20833
2760.117	421.54167
2762.346	416.20833
2764.573	410.20833
2766.798	416.875
2769.022	418.875
2771.245	424.875
2773.467	424.875
2775.686	428.54167
2777.905	436.875
2780.122	426.54167
2782.337	435.20833
2784.552	424.875
2786.764	438.20833
2788.976	431.54167
2791.186	442.20833
2793.394	450.875
2795.601	456.875
2797.807	464.875
2800.011	461.54167
2802.214	477.875
2804.415	478.875
2806.615	467.875
2808.814	473.875
2811.011	485.54167
2813.206	490.875
2815.401	501.20833
2817.594	505.20833
2819.785	517.20833
2821.975	508.54167
2824.164	505.20833
2826.351	517.54167
2828.537	550.875
2830.722	554.875
2832.905	556.54167
2835.086	584.20833
2837.267	599.875
2839.445	633.875
2841.623	638.875
2843.799	663.54167
2845.974	697.54167
2848.147	737.20833
2850.319	757.54167
2852.489	786.54167
2854.659	797.875
2856.826	807.54167
2858.993	836.54167
2861.158	821.54167
2863.321	821.20833
2865.483	835.875
2867.644	836.20833
2869.804	832.20833
2871.962	827.20833
2874.118	824.875
2876.274	832.20833
2878.428	822.54167
2880.58	828.875
2882.731	802.875
2884.881	813.875
2887.03	818.20833
2889.177	821.875
2891.322	839.20833
2893.467	841.20833
2895.61	837.875
2897.751	858.20833
2899.892	846.875
2902.03	861.54167
2904.168	854.875
2906.304	857.20833
2908.439	878.54167
2910.572	876.20833
2912.704	881.875
2914.835	872.875
2916.965	872.875
2919.093	887.875
2921.219	858.20833
2923.345	881.20833
2925.469	855.875
2927.591	859.20833
2929.712	829.875
2931.832	824.875
2933.951	796.54167
2936.068	789.875
2938.184	781.875
2940.299	747.875
2942.412	731.54167
2944.524	695.20833
2946.634	683.875
2948.744	633.20833
2950.851	646.875
2952.958	620.875
2955.063	602.54167
2957.167	606.54167
2959.269	569.875
2961.371	592.20833
2963.471	556.875
2965.569	550.20833
2967.666	517.20833
2969.762	508.875
2971.857	505.20833
2973.95	482.54167
2976.042	476.20833
2978.133	467.20833
2980.222	449.54167
2982.31	448.20833
2984.396	411.875
2986.482	416.875
2988.566	410.875
2990.648	405.54167
2992.73	402.54167
2994.81	400.54167
2996.889	402.875
2998.966	396.875
3001.042	393.875
3003.117	394.875
3005.191	389.875
3007.263	382.875
3009.334	369.875
3011.403	373.54167
3013.472	365.20833
3015.539	363.20833
3017.604	371.54167
3019.669	329.54167
3021.732	344.875
3023.794	342.875
3025.854	326.875
3027.914	328.20833
3029.971	343.20833
3032.028	326.875
3034.083	336.54167
3036.137	329.20833
3038.19	317.20833
3040.242	302.20833
3042.292	305.20833
3044.341	303.875
3046.388	310.875
3048.435	286.54167
3050.48	305.54167
3052.524	296.20833
3054.566	280.20833
3056.607	296.54167
3058.647	281.20833
3060.686	270.875
3062.723	264.875
3064.759	255.54167
3066.794	0.875
3068.828	3.875
3070.86	2.54167
