-0.839	456.79167
3.438	527.45833
7.711	156.125
11.981	60.125
16.247	47.125
20.509	50.45833
24.768	45.45833
29.024	58.45833
33.276	48.125
37.524	50.125
41.769	49.45833
46.01	36.45833
50.247	49.45833
54.481	60.79167
58.712	68.125
62.939	52.125
67.162	67.45833
71.382	57.125
75.599	47.79167
79.812	65.79167
84.021	82.79167
88.227	64.45833
92.429	65.45833
96.628	57.125
100.823	74.79167
105.015	79.45833
109.204	72.79167
113.388	81.125
117.57	80.125
121.748	91.45833
125.922	89.125
130.093	102.79167
134.261	103.125
138.425	108.45833
142.585	152.125
146.742	137.125
150.896	172.125
155.046	219.79167
159.193	338.45833
163.336	570.45833
167.476	1060.79167
171.613	1926.79167
175.746	3243.125
179.875	4792.125
184.002	6339.45833
188.124	7333.125
192.244	7714.45833
196.36	7718.45833
200.472	7525.45833
204.581	7384.125
208.687	7220.79167
212.79	7175.125
216.889	7226.125
220.984	7197.79167
225.077	7290.45833
229.165	7321.79167
233.251	7379.45833
237.333	7336.125
241.412	7315.79167
245.487	7244.45833
249.559	7167.79167
253.628	7123.45833
257.694	7061.79167
261.756	6991.79167
265.814	6854.79167
269.87	6609.125
273.922	6423.125
277.97	6256.45833
282.016	6158.125
286.058	6121.125
290.097	6180.45833
294.132	6248.79167
298.164	6134.125
302.193	5885.45833
306.219	5494.125
310.241	5090.45833
314.26	4733.125
318.276	4446.45833
322.288	4254.79167
326.297	4080.45833
330.303	3961.125
334.305	3855.125
338.305	3791.125
342.301	3786.45833
346.294	3729.79167
350.283	3718.125
354.269	3687.79167
358.252	3639.45833
362.232	3636.125
366.209	3588.45833
370.182	3564.125
374.152	3534.45833
378.119	3581.79167
382.083	3528.79167
386.043	3566.125
390	3520.125
393.954	3537.125
397.905	3537.45833
401.852	3519.125
405.797	3483.45833
409.738	3491.45833
413.676	3468.79167
417.61	3483.79167
421.542	3460.45833
425.47	3422.125
429.396	3384.79167
433.318	3393.125
437.236	3374.79167
441.152	3414.79167
445.065	3324.125
448.974	3328.79167
452.88	3289.79167
456.783	3278.45833
460.683	3279.45833
464.58	3248.79167
468.473	3280.79167
472.364	3281.45833
476.251	3301.125
480.135	3345.79167
484.016	3368.45833
487.894	3371.125
491.769	3366.125
495.641	3380.45833
499.509	3374.125
503.375	3354.45833
507.237	3359.125
511.096	3328.125
514.952	3360.79167
518.805	3377.125
522.655	3368.125
526.502	3337.125
530.346	3355.45833
534.187	3376.79167
538.024	3383.125
541.859	3414.125
545.69	3437.79167
549.519	3403.125
553.344	3371.125
557.166	3346.45833
560.985	3315.79167
564.802	3258.45833
568.615	3183.45833
572.425	3151.125
576.232	3155.79167
580.036	3127.79167
583.836	3125.125
587.634	3155.45833
591.429	3164.45833
595.221	3245.45833
599.01	3256.45833
602.796	3309.45833
606.578	3319.79167
610.358	3335.125
614.135	3282.125
617.909	3278.45833
621.679	3256.125
625.447	3217.45833
629.212	3222.79167
632.973	3224.45833
636.732	3194.45833
640.488	3208.125
644.241	3191.125
647.991	3181.79167
651.737	3179.79167
655.481	3162.45833
659.222	3170.45833
662.96	3176.125
666.695	3206.79167
670.427	3210.45833
674.156	3233.125
677.882	3227.45833
681.605	3184.45833
685.325	3156.45833
689.043	3145.125
692.757	3120.45833
696.468	3117.45833
700.177	3109.125
703.882	3101.79167
707.585	3092.125
711.284	3068.125
714.981	3067.79167
718.675	3079.79167
722.366	3094.45833
726.054	3067.79167
729.739	3068.125
733.421	3067.125
737.1	3089.45833
740.777	3081.79167
744.45	3125.45833
748.121	3140.79167
751.789	3190.45833
755.453	3171.79167
759.115	3202.125
762.774	3210.125
766.431	3223.45833
770.084	3241.45833
773.734	3271.125
777.382	3344.125
781.027	3357.125
784.669	3356.79167
788.308	3368.45833
791.944	3390.125
795.577	3407.79167
799.208	3436.79167
802.835	3428.79167
806.46	3469.45833
810.082	3482.125
813.701	3469.79167
817.317	3515.79167
820.931	3489.79167
824.542	3495.79167
828.149	3482.45833
831.754	3411.45833
835.357	3446.79167
838.956	3445.79167
842.553	3448.79167
846.146	3399.125
849.737	3385.125
853.326	3399.125
856.911	3395.45833
860.493	3426.45833
864.073	3443.45833
867.65	3469.79167
871.225	3547.79167
874.796	3558.125
878.365	3578.125
881.931	3578.125
885.494	3584.45833
889.054	3598.79167
892.612	3578.79167
896.166	3554.79167
899.719	3516.79167
903.268	3495.125
906.814	3452.125
910.358	3401.45833
913.899	3406.45833
917.438	3399.79167
920.973	3383.45833
924.506	3424.125
928.036	3467.45833
931.564	3527.79167
935.088	3592.79167
938.61	3612.79167
942.129	3649.79167
945.646	3698.79167
949.16	3768.45833
952.671	3840.45833
956.179	3816.79167
959.685	3803.125
963.188	3807.45833
966.688	3719.125
970.185	3650.79167
973.68	3542.125
977.173	3490.45833
980.662	3449.79167
984.149	3414.79167
987.633	3411.125
991.114	3430.45833
994.593	3520.79167
998.069	3598.79167
1001.542	3694.125
1005.013	3655.45833
1008.481	3477.45833
1011.947	3441.45833
1015.409	3406.79167
1018.869	3378.79167
1022.327	3373.79167
1025.782	3368.45833
1029.234	3337.125
1032.683	3273.79167
1036.13	3208.45833
1039.574	3067.45833
1043.016	2994.79167
1046.455	2950.45833
1049.891	2906.125
1053.325	2950.125
1056.756	2940.79167
1060.184	2963.79167
1063.61	2970.125
1067.033	2964.79167
1070.454	2980.45833
1073.872	3011.45833
1077.287	2986.125
1080.7	3014.125
1084.11	2973.79167
1087.517	2967.45833
1090.922	2928.45833
1094.325	2902.125
1097.724	2882.79167
1101.122	2871.125
1104.516	2880.125
1107.908	2874.125
1111.298	2909.45833
1114.684	2959.125
1118.069	3010.79167
1121.45	3044.79167
1124.83	3008.125
1128.206	3074.125
1131.58	3100.79167
1134.951	3177.45833
1138.32	3287.125
1141.687	3415.125
1145.05	3476.45833
1148.412	3469.45833
1151.77	3489.125
1155.126	3474.45833
1158.48	3480.79167
1161.831	3492.125
1165.18	3509.125
1168.525	3566.125
1171.869	3595.125
1175.21	3600.79167
1178.548	3630.125
1181.884	3669.125
1185.217	3683.45833
1188.548	3802.45833
1191.877	3875.79167
1195.202	3973.125
1198.526	4054.125
1201.846	4030.45833
1205.165	4043.45833
1208.48	4009.45833
1211.794	3985.125
1215.104	3969.45833
1218.413	3947.45833
1221.719	3921.125
1225.022	3870.45833
1228.323	3820.125
1231.621	3808.79167
1234.917	3760.45833
1238.21	3775.45833
1241.501	3762.45833
1244.79	3751.125
1248.076	3743.45833
1251.359	3783.45833
1254.64	3870.45833
1257.919	3871.45833
1261.195	3932.79167
1264.468	4029.125
1267.74	4077.45833
1271.008	4085.45833
1274.275	4059.125
1277.538	4028.45833
1280.8	4026.125
1284.059	4013.79167
1287.315	4035.79167
1290.569	4065.125
1293.821	4083.45833
1297.07	4093.125
1300.317	4128.125
1303.562	4135.45833
1306.803	4084.79167
1310.043	4063.125
1313.28	4028.125
1316.515	3977.79167
1319.747	3970.45833
1322.977	3929.79167
1326.204	3876.45833
1329.429	3823.125
1332.652	3792.125
1335.872	3767.79167
1339.09	3720.125
1342.306	3706.45833
1345.519	3656.79167
1348.729	3613.125
1351.938	3610.45833
1355.144	3567.79167
1358.347	3534.125
1361.548	3524.125
1364.747	3483.79167
1367.944	3459.79167
1371.138	3473.79167
1374.329	3478.125
1377.518	3495.45833
1380.705	3511.45833
1383.89	3514.125
1387.072	3427.125
1390.252	3277.125
1393.429	3137.125
1396.605	3063.125
1399.777	2970.125
1402.948	2952.125
1406.116	2926.125
1409.282	2908.125
1412.445	2899.45833
1415.606	2929.45833
1418.765	2964.45833
1421.921	3031.125
1425.075	3101.79167
1428.227	3204.79167
1431.376	3308.125
1434.524	3417.79167
1437.668	3514.45833
1440.811	3594.125
1443.951	3606.79167
1447.089	3618.45833
1450.224	3611.125
1453.357	3562.125
1456.488	3567.125
1459.617	3529.79167
1462.743	3493.79167
1465.867	3413.125
1468.989	3367.125
1472.108	3290.45833
1475.225	3287.125
1478.34	3251.125
1481.453	3251.79167
1484.563	3251.79167
1487.671	3297.79167
1490.776	3317.125
1493.88	3410.125
1496.981	3457.45833
1500.08	3531.45833
1503.176	3562.45833
1506.271	3593.125
1509.363	3643.79167
1512.452	3672.125
1515.54	3726.125
1518.625	3769.45833
1521.708	3864.79167
1524.789	3956.79167
1527.867	4111.45833
1530.944	4320.45833
1534.018	4487.79167
1537.089	4631.125
1540.159	4687.125
1543.226	4639.125
1546.291	4587.125
1549.354	4490.125
1552.415	4378.79167
1555.473	4313.79167
1558.529	4250.79167
1561.583	4219.79167
1564.634	4178.45833
1567.684	4194.125
1570.731	4205.79167
1573.776	4276.125
1576.819	4344.45833
1579.859	4362.45833
1582.898	4423.125
1585.934	4480.45833
1588.968	4509.45833
1591.999	4486.79167
1595.029	4493.125
1598.056	4528.125
1601.081	4526.125
1604.104	4506.45833
1607.125	4441.79167
1610.144	4369.79167
1613.16	4254.125
1616.174	4174.125
1619.186	4054.125
1622.196	3955.79167
1625.203	3863.125
1628.209	3789.125
1631.212	3717.79167
1634.213	3701.125
1637.212	3695.45833
1640.209	3628.79167
1643.203	3526.79167
1646.196	3421.79167
1649.186	3251.45833
1652.174	3142.79167
1655.16	3017.125
1658.144	2921.125
1661.125	2778.45833
1664.105	2654.45833
1667.082	2521.79167
1670.057	2429.79167
1673.03	2269.79167
1676.001	2161.125
1678.97	2012.79167
1681.937	1901.45833
1684.901	1800.125
1687.863	1753.79167
1690.824	1662.79167
1693.782	1625.45833
1696.738	1552.79167
1699.692	1536.79167
1702.643	1490.45833
1705.593	1488.125
1708.54	1458.79167
1711.486	1442.125
1714.429	1415.45833
1717.37	1431.125
1720.309	1392.45833
1723.246	1400.125
1726.181	1367.125
1729.113	1368.125
1732.044	1336.45833
1734.972	1318.125
1737.899	1333.125
1740.823	1333.79167
1743.745	1325.45833
1746.665	1274.125
1749.583	1241.125
1752.499	1214.45833
1755.413	1215.125
1758.325	1200.79167
1761.235	1187.125
1764.142	1160.125
1767.048	1154.79167
1769.951	1159.45833
1772.852	1146.125
1775.752	1133.45833
1778.649	1149.45833
1781.544	1135.79167
1784.437	1103.45833
1787.328	1116.125
1790.217	1103.125
1793.104	1086.45833
1795.989	1081.79167
1798.872	1064.45833
1801.753	1089.45833
1804.631	1069.79167
1807.508	1088.79167
1810.383	1075.45833
1813.255	1073.125
1816.126	1073.125
1818.994	1059.79167
1821.861	1042.125
1824.725	1046.125
1827.587	1037.45833
1830.448	1031.79167
1833.306	1012.125
1836.162	1025.125
1839.017	1020.125
1841.869	1021.79167
1844.719	1008.125
1847.567	1009.79167
1850.414	987.45833
1853.258	977.79167
1856.1	996.125
1858.94	1003.125
1861.778	994.79167
1864.614	991.125
1867.448	985.125
1870.28	966.45833
1873.111	986.45833
1875.939	964.45833
1878.765	994.125
1881.589	970.79167
1884.411	964.79167
1887.231	980.79167
1890.049	962.79167
1892.865	970.79167
1895.68	955.79167
1898.492	957.79167
1901.302	941.79167
1904.11	930.125
1906.916	927.79167
1909.721	917.79167
1912.523	929.45833
1915.323	905.79167
1918.122	912.79167
1920.918	922.125
1923.712	913.79167
1926.505	895.125
1929.295	880.45833
1932.084	909.125
1934.87	905.79167
1937.655	903.125
1940.438	886.125
1943.218	895.125
1945.997	895.125
1948.774	903.79167
1951.549	904.79167
1954.322	886.79167
1957.093	889.125
1959.862	888.45833
1962.629	884.125
1965.394	867.79167
1968.157	855.79167
1970.918	864.125
1973.678	854.45833
1976.435	866.125
1979.19	848.45833
1981.944	846.125
1984.696	850.45833
1987.445	839.125
1990.193	841.79167
1992.939	859.45833
1995.683	835.125
1998.425	825.125
2001.165	858.79167
2003.903	835.79167
2006.639	832.79167
2009.374	824.79167
2012.106	837.125
2014.837	801.45833
2017.566	831.45833
2020.292	820.79167
2023.017	812.79167
2025.74	807.45833
2028.461	811.125
2031.18	808.125
2033.898	800.125
2036.613	803.79167
2039.327	813.125
2042.038	787.125
2044.748	794.125
2047.456	793.45833
2050.162	781.79167
2052.866	771.45833
2055.568	791.45833
2058.268	777.45833
2060.967	775.125
2063.663	758.125
2066.358	777.45833
2069.051	764.79167
2071.742	769.125
2074.431	779.45833
2077.118	768.125
2079.804	762.125
2082.487	782.125
2085.169	771.125
2087.849	787.79167
2090.527	757.125
2093.203	775.45833
2095.877	781.79167
2098.55	787.125
2101.22	799.45833
2103.889	797.45833
2106.556	793.125
2109.221	815.45833
2111.884	825.125
2114.546	879.79167
2117.205	920.125
2119.863	986.79167
2122.519	1031.45833
2125.173	1095.79167
2127.825	1158.45833
2130.475	1153.79167
2133.124	1139.125
2135.771	1084.125
2138.416	1050.125
2141.059	996.79167
2143.7	963.125
2146.339	905.45833
2148.977	858.45833
2151.613	842.125
2154.247	829.79167
2156.879	806.79167
2159.51	783.79167
2162.138	764.45833
2164.765	757.79167
2167.39	745.45833
2170.013	762.45833
2172.634	751.125
2175.254	742.45833
2177.872	754.45833
2180.488	716.125
2183.102	738.125
2185.714	702.125
2188.325	690.79167
2190.934	708.125
2193.541	706.45833
2196.146	696.79167
2198.75	673.79167
2201.351	677.79167
2203.951	672.79167
2206.549	679.79167
2209.146	664.45833
2211.74	666.125
2214.333	667.125
2216.924	646.79167
2219.514	660.125
2222.101	653.45833
2224.687	655.125
2227.271	635.79167
2229.853	629.79167
2232.433	632.45833
2235.012	637.79167
2237.589	641.45833
2240.164	641.125
2242.738	624.79167
2245.309	616.79167
2247.879	621.125
2250.448	622.125
2253.014	598.125
2255.579	581.45833
2258.142	596.79167
2260.703	587.125
2263.262	598.125
2265.82	578.45833
2268.376	591.79167
2270.93	572.79167
2273.483	569.79167
2276.033	573.79167
2278.583	564.79167
2281.13	563.79167
2283.675	553.45833
2286.219	552.45833
2288.761	557.125
2291.302	557.79167
2293.841	576.79167
2296.377	542.125
2298.913	545.125
2301.446	550.45833
2303.978	548.45833
2306.508	536.45833
2309.037	537.79167
2311.563	542.125
2314.088	553.125
2316.612	520.79167
2319.133	530.45833
2321.653	533.79167
2324.171	522.79167
2326.688	539.79167
2329.202	519.125
2331.715	520.45833
2334.227	517.125
2336.736	517.125
2339.244	513.125
2341.751	506.45833
2344.255	519.45833
2346.758	511.79167
2349.259	494.45833
2351.759	504.125
2354.257	501.125
2356.753	499.79167
2359.247	501.79167
2361.74	505.79167
2364.231	500.125
2366.721	511.125
2369.209	503.79167
2371.695	502.79167
2374.179	489.125
2376.662	484.125
2379.143	505.45833
2381.622	479.125
2384.1	504.79167
2386.576	487.125
2389.051	486.125
2391.524	501.45833
2393.995	491.125
2396.464	475.125
2398.932	482.125
2401.398	473.45833
2403.863	482.79167
2406.325	464.125
2408.787	476.45833
2411.246	468.79167
2413.704	461.45833
2416.16	457.125
2418.615	472.79167
2421.068	480.79167
2423.519	470.45833
2425.969	468.125
2428.417	453.79167
2430.863	479.125
2433.308	467.125
2435.751	457.79167
2438.193	457.45833
2440.633	465.125
2443.071	461.79167
2445.508	444.125
2447.943	447.125
2450.376	448.79167
2452.808	451.79167
2455.238	446.125
2457.667	476.125
2460.093	446.125
2462.519	436.79167
2464.942	449.45833
2467.365	454.125
2469.785	455.125
2472.204	441.45833
2474.621	432.125
2477.037	447.125
2479.451	426.79167
2481.863	414.45833
2484.274	423.79167
2486.683	426.45833
2489.091	439.45833
2491.497	428.45833
2493.901	432.125
2496.304	427.125
2498.705	434.45833
2501.105	428.45833
2503.503	446.45833
2505.899	413.125
2508.294	439.45833
2510.687	422.45833
2513.079	418.79167
2515.469	412.125
2517.858	427.125
2520.245	428.125
2522.63	410.45833
2525.014	408.79167
2527.396	408.79167
2529.776	406.45833
2532.156	423.79167
2534.533	404.45833
2536.909	402.79167
2539.283	389.125
2541.656	395.79167
2544.027	417.45833
2546.397	399.125
2548.765	402.125
2551.131	395.125
2553.496	401.45833
2555.86	410.45833
2558.221	394.125
2560.582	390.125
2562.94	386.45833
2565.298	391.125
2567.653	413.125
2570.007	379.45833
2572.36	389.125
2574.711	374.125
2577.06	408.45833
2579.408	405.125
2581.754	387.125
2584.099	397.125
2586.442	382.79167
2588.784	388.45833
2591.124	390.79167
2593.463	385.125
2595.8	390.125
2598.135	381.45833
2600.469	374.125
2602.802	388.125
2605.133	395.125
2607.462	381.79167
2609.79	376.125
2612.116	391.45833
2614.441	384.125
2616.764	388.79167
2619.086	378.79167
2621.406	362.125
2623.725	380.125
2626.042	378.79167
2628.358	368.125
2630.672	369.45833
2632.985	385.79167
2635.296	382.125
2637.606	383.45833
2639.914	369.79167
2642.22	365.125
2644.525	373.125
2646.829	386.45833
2649.131	382.79167
2651.432	381.45833
2653.731	372.45833
2656.028	386.79167
2658.324	389.45833
2660.619	374.79167
2662.912	376.79167
2665.204	372.45833
2667.494	385.79167
2669.782	374.45833
2672.07	376.79167
2674.355	386.45833
2676.639	386.79167
2678.922	369.125
2681.203	378.79167
2683.483	364.125
2685.761	371.45833
2688.038	372.45833
2690.313	390.125
2692.587	382.45833
2694.859	377.79167
2697.13	376.45833
2699.399	384.45833
2701.667	391.79167
2703.933	390.45833
2706.198	386.125
2708.461	400.45833
2710.723	391.45833
2712.984	390.45833
2715.243	389.79167
2717.5	381.79167
2719.757	411.79167
2722.011	395.45833
2724.264	398.45833
2726.516	413.79167
2728.766	395.79167
2731.015	406.125
2733.262	403.79167
2735.508	395.125
2737.753	395.125
2739.996	389.45833
2742.237	382.45833
2744.477	391.79167
2746.716	387.125
2748.953	380.79167
2751.189	384.79167
2753.423	376.45833
2755.656	368.79167
2757.887	369.45833
2760.117	381.79167
2762.346	357.125
2764.573	359.79167
2766.798	365.125
2769.022	364.125
2771.245	371.125
2773.467	367.125
2775.686	367.125
2777.905	378.125
2780.122	380.45833
2782.337	390.125
2784.552	376.45833
2786.764	381.79167
2788.976	380.45833
2791.186	380.79167
2793.394	391.45833
2795.601	399.79167
2797.807	411.125
2800.011	414.79167
2802.214	414.125
2804.415	413.45833
2806.615	419.125
2808.814	415.125
2811.011	436.79167
2813.206	415.79167
2815.401	440.125
2817.594	449.79167
2819.785	464.79167
2821.975	452.125
2824.164	451.79167
2826.351	466.125
2828.537	493.45833
2830.722	507.79167
2832.905	494.79167
2835.086	519.45833
2837.267	551.79167
2839.445	562.45833
2841.623	581.45833
2843.799	606.125
2845.974	639.45833
2848.147	670.45833
2850.319	698.45833
2852.489	727.79167
2854.659	732.125
2856.826	754.125
2858.993	771.125
2861.158	761.79167
2863.321	759.45833
2865.483	783.45833
2867.644	777.125
2869.804	772.125
2871.962	761.45833
2874.118	757.45833
2876.274	767.79167
2878.428	771.45833
2880.58	767.45833
2882.731	751.125
2884.881	772.45833
2887.03	766.125
2889.177	765.45833
2891.322	783.45833
2893.467	767.125
2895.61	769.45833
2897.751	805.79167
2899.892	783.79167
2902.03	791.79167
2904.168	795.45833
2906.304	808.125
2908.439	829.125
2910.572	807.125
2912.704	826.45833
2914.835	812.45833
2916.965	817.79167
2919.093	831.125
2921.219	808.45833
2923.345	824.45833
2925.469	793.125
2927.591	799.125
2929.712	765.45833
2931.832	766.45833
2933.951	752.125
2936.068	742.79167
2938.184	716.45833
2940.299	698.125
2942.412	675.45833
2944.524	635.125
2946.634	633.79167
2948.744	587.45833
2950.851	591.45833
2952.958	556.45833
2955.063	560.125
2957.167	553.79167
2959.269	499.125
2961.371	535.125
2963.471	490.45833
2965.569	491.79167
2967.666	466.125
2969.762	465.125
2971.857	450.79167
2973.95	434.79167
2976.042	438.79167
2978.133	406.125
2980.222	400.125
2982.31	384.125
2984.396	369.79167
2986.482	369.79167
2988.566	367.125
2990.648	354.125
2992.73	348.125
2994.81	342.125
2996.889	343.79167
2998.966	342.125
3001.042	340.79167
3003.117	334.79167
3005.191	338.45833
3007.263	339.79167
3009.334	316.45833
3011.403	323.45833
3013.472	309.125
3015.539	318.79167
3017.604	326.79167
3019.669	288.79167
3021.732	293.125
3023.794	297.125
3025.854	290.125
3027.914	292.45833
3029.971	297.45833
3032.028	281.125
3034.083	287.125
3036.137	280.79167
3038.19	262.45833
3040.242	267.79167
3042.292	256.79167
3044.341	255.45833
3046.388	266.125
3048.435	250.79167
3050.48	262.125
3052.524	259.125
3054.566	237.79167
3056.607	251.45833
3058.647	238.45833
3060.686	231.125
3062.723	224.45833
3064.759	214.79167
3066.794	-0.20833
3068.828	2.125
3070.86	1.125
