-0.839	428.95833
3.438	517.95833
7.711	159.29167
11.981	63.29167
16.247	47.29167
20.509	52.29167
24.768	47.95833
29.024	59.29167
33.276	49.95833
37.524	50.95833
41.769	49.95833
46.01	38.29167
50.247	51.625
54.481	63.29167
58.712	63.625
62.939	53.29167
67.162	68.625
71.382	62.625
75.599	51.95833
79.812	66.29167
84.021	82.95833
88.227	66.95833
92.429	64.95833
96.628	57.95833
100.823	78.95833
105.015	83.95833
109.204	75.625
113.388	80.29167
117.57	82.95833
121.748	94.29167
125.922	88.625
130.093	109.29167
134.261	110.29167
138.425	108.95833
142.585	151.625
146.742	147.29167
150.896	176.95833
155.046	227.625
159.193	341.625
163.336	594.95833
167.476	1088.625
171.613	2000.625
175.746	3328.29167
179.875	4986.625
184.002	6503.95833
188.124	7561.95833
192.244	7993.625
196.36	8000.95833
200.472	7807.29167
204.581	7664.625
208.687	7498.29167
212.79	7435.29167
216.889	7442.625
220.984	7458.625
225.077	7495.625
229.165	7545.95833
233.251	7585.625
237.333	7574.625
241.412	7476.625
245.487	7478.29167
249.559	7374.625
253.628	7304.625
257.694	7244.95833
261.756	7235.625
265.814	7083.625
269.87	6917.625
273.922	6687.29167
277.97	6560.29167
282.016	6441.95833
286.058	6419.29167
290.097	6549.29167
294.132	6598.95833
298.164	6504.625
302.193	6275.625
306.219	5879.625
310.241	5483.625
314.26	5087.625
318.276	4799.625
322.288	4595.625
326.297	4402.29167
330.303	4271.29167
334.305	4171.29167
338.305	4109.29167
342.301	4050.625
346.294	4039.29167
350.283	4010.29167
354.269	3979.95833
358.252	3929.95833
362.232	3944.625
366.209	3929.625
370.182	3851.95833
374.152	3856.29167
378.119	3871.29167
382.083	3855.29167
386.043	3883.29167
390	3814.29167
393.954	3836.625
397.905	3808.625
401.852	3839.625
405.797	3825.95833
409.738	3809.95833
413.676	3804.29167
417.61	3798.95833
421.542	3784.95833
425.47	3743.95833
429.396	3715.625
433.318	3719.95833
437.236	3682.29167
441.152	3731.95833
445.065	3658.625
448.974	3695.95833
452.88	3629.29167
456.783	3598.95833
460.683	3594.29167
464.58	3582.625
468.473	3588.95833
472.364	3635.29167
476.251	3644.29167
480.135	3657.29167
484.016	3701.29167
487.894	3729.29167
491.769	3716.95833
495.641	3701.29167
499.509	3713.29167
503.375	3718.625
507.237	3720.95833
511.096	3700.29167
514.952	3735.95833
518.805	3710.625
522.655	3749.95833
526.502	3722.29167
530.346	3724.625
534.187	3733.95833
538.024	3727.625
541.859	3752.29167
545.69	3786.95833
549.519	3756.95833
553.344	3726.29167
557.166	3685.29167
560.985	3624.625
564.802	3576.29167
568.615	3537.95833
572.425	3471.95833
576.232	3444.625
580.036	3453.95833
583.836	3428.29167
587.634	3479.625
591.429	3476.625
595.221	3553.95833
599.01	3552.95833
602.796	3637.95833
606.578	3638.95833
610.358	3626.29167
614.135	3608.625
617.909	3610.95833
621.679	3579.95833
625.447	3564.625
629.212	3528.625
632.973	3544.625
636.732	3528.95833
640.488	3544.95833
644.241	3517.625
647.991	3490.29167
651.737	3514.625
655.481	3485.29167
659.222	3485.29167
662.96	3476.29167
666.695	3494.29167
670.427	3493.625
674.156	3533.29167
677.882	3500.625
681.605	3514.625
685.325	3469.95833
689.043	3463.95833
692.757	3456.625
696.468	3428.625
700.177	3430.95833
703.882	3404.625
707.585	3376.625
711.284	3375.29167
714.981	3375.29167
718.675	3352.625
722.366	3373.95833
726.054	3352.29167
729.739	3361.95833
733.421	3371.95833
737.1	3351.95833
740.777	3400.625
744.45	3405.95833
748.121	3430.29167
751.789	3511.95833
755.453	3475.29167
759.115	3486.29167
762.774	3517.29167
766.431	3517.95833
770.084	3558.29167
773.734	3578.95833
777.382	3618.625
781.027	3663.95833
784.669	3650.29167
788.308	3651.625
791.944	3682.95833
795.577	3677.625
799.208	3707.29167
802.835	3712.95833
806.46	3713.625
810.082	3747.625
813.701	3765.625
817.317	3760.29167
820.931	3762.625
824.542	3763.625
828.149	3738.95833
831.754	3696.625
835.357	3687.29167
838.956	3721.95833
842.553	3721.95833
846.146	3712.29167
849.737	3633.95833
853.326	3637.625
856.911	3659.95833
860.493	3705.29167
864.073	3727.95833
867.65	3758.95833
871.225	3790.625
874.796	3796.625
878.365	3797.625
881.931	3837.29167
885.494	3855.29167
889.054	3843.625
892.612	3853.625
896.166	3806.29167
899.719	3777.29167
903.268	3750.625
906.814	3731.29167
910.358	3664.95833
913.899	3639.95833
917.438	3652.625
920.973	3630.625
924.506	3689.625
928.036	3759.95833
931.564	3790.29167
935.088	3818.625
938.61	3842.29167
942.129	3881.95833
945.646	3962.29167
949.16	4032.95833
952.671	4066.625
956.179	4074.625
959.685	4033.29167
963.188	4027.29167
966.688	3954.95833
970.185	3861.29167
973.68	3810.95833
977.173	3701.625
980.662	3650.29167
984.149	3661.625
987.633	3628.95833
991.114	3685.95833
994.593	3753.95833
998.069	3844.95833
1001.542	3904.95833
1005.013	3877.29167
1008.481	3681.95833
1011.947	3617.625
1015.409	3589.625
1018.869	3609.29167
1022.327	3600.29167
1025.782	3568.95833
1029.234	3535.625
1032.683	3494.625
1036.13	3372.625
1039.574	3292.625
1043.016	3188.95833
1046.455	3135.29167
1049.891	3118.95833
1053.325	3114.625
1056.756	3131.95833
1060.184	3161.29167
1063.61	3151.625
1067.033	3174.29167
1070.454	3169.29167
1073.872	3210.625
1077.287	3213.29167
1080.7	3187.95833
1084.11	3181.95833
1087.517	3166.29167
1090.922	3131.625
1094.325	3093.625
1097.724	3082.625
1101.122	3086.625
1104.516	3083.625
1107.908	3075.625
1111.298	3123.29167
1114.684	3145.625
1118.069	3203.29167
1121.45	3217.95833
1124.83	3233.625
1128.206	3280.95833
1131.58	3305.29167
1134.951	3409.29167
1138.32	3506.29167
1141.687	3648.29167
1145.05	3724.625
1148.412	3711.29167
1151.77	3684.29167
1155.126	3697.29167
1158.48	3698.625
1161.831	3685.29167
1165.18	3690.29167
1168.525	3750.95833
1171.869	3792.625
1175.21	3823.95833
1178.548	3830.625
1181.884	3885.625
1185.217	3908.95833
1188.548	4009.29167
1191.877	4084.95833
1195.202	4157.29167
1198.526	4236.95833
1201.846	4251.625
1205.165	4211.95833
1208.48	4184.95833
1211.794	4196.625
1215.104	4163.95833
1218.413	4149.625
1221.719	4160.95833
1225.022	4092.95833
1228.323	4043.29167
1231.621	3991.29167
1234.917	3961.625
1238.21	3983.29167
1241.501	3961.95833
1244.79	3961.29167
1248.076	3925.625
1251.359	3995.95833
1254.64	4066.29167
1257.919	4091.29167
1261.195	4152.625
1264.468	4219.29167
1267.74	4267.29167
1271.008	4283.625
1274.275	4273.625
1277.538	4213.29167
1280.8	4244.625
1284.059	4215.95833
1287.315	4237.29167
1290.569	4244.625
1293.821	4283.625
1297.07	4288.625
1300.317	4284.625
1303.562	4270.29167
1306.803	4247.625
1310.043	4210.95833
1313.28	4184.95833
1316.515	4152.29167
1319.747	4129.29167
1322.977	4080.29167
1326.204	4028.625
1329.429	3984.625
1332.652	3966.95833
1335.872	3932.29167
1339.09	3912.95833
1342.306	3878.95833
1345.519	3834.625
1348.729	3817.29167
1351.938	3803.29167
1355.144	3736.95833
1358.347	3695.95833
1361.548	3691.29167
1364.747	3672.29167
1367.944	3638.29167
1371.138	3660.95833
1374.329	3661.95833
1377.518	3715.625
1380.705	3721.625
1383.89	3689.29167
1387.072	3593.95833
1390.252	3460.29167
1393.429	3337.29167
1396.605	3248.29167
1399.777	3146.95833
1402.948	3132.625
1406.116	3100.625
1409.282	3062.95833
1412.445	3084.625
1415.606	3102.95833
1418.765	3119.95833
1421.921	3197.29167
1425.075	3251.625
1428.227	3329.625
1431.376	3490.29167
1434.524	3598.95833
1437.668	3668.625
1440.811	3730.95833
1443.951	3763.29167
1447.089	3793.95833
1450.224	3766.625
1453.357	3757.29167
1456.488	3742.29167
1459.617	3684.625
1462.743	3628.95833
1465.867	3574.625
1468.989	3512.29167
1472.108	3496.625
1475.225	3435.95833
1478.34	3441.29167
1481.453	3423.29167
1484.563	3439.29167
1487.671	3488.29167
1490.776	3520.29167
1493.88	3596.95833
1496.981	3641.29167
1500.08	3683.95833
1503.176	3749.625
1506.271	3778.29167
1509.363	3816.29167
1512.452	3887.29167
1515.54	3956.95833
1518.625	3976.95833
1521.708	4050.625
1524.789	4161.29167
1527.867	4327.29167
1530.944	4497.625
1534.018	4692.29167
1537.089	4806.29167
1540.159	4876.29167
1543.226	4824.95833
1546.291	4713.29167
1549.354	4648.625
1552.415	4573.29167
1555.473	4484.29167
1558.529	4385.95833
1561.583	4355.29167
1564.634	4325.625
1567.684	4362.29167
1570.731	4353.95833
1573.776	4419.29167
1576.819	4463.625
1579.859	4527.625
1582.898	4585.95833
1585.934	4612.625
1588.968	4648.625
1591.999	4621.95833
1595.029	4619.625
1598.056	4612.29167
1601.081	4623.625
1604.104	4596.29167
1607.125	4559.95833
1610.144	4464.625
1613.16	4363.625
1616.174	4284.29167
1619.186	4180.29167
1622.196	4080.625
1625.203	3984.95833
1628.209	3911.95833
1631.212	3842.29167
1634.213	3830.95833
1637.212	3776.95833
1640.209	3712.625
1643.203	3615.625
1646.196	3494.625
1649.186	3351.625
1652.174	3227.625
1655.16	3099.95833
1658.144	3021.625
1661.125	2874.625
1664.105	2767.625
1667.082	2640.95833
1670.057	2518.625
1673.03	2393.625
1676.001	2231.95833
1678.97	2128.95833
1681.937	1987.29167
1684.901	1904.95833
1687.863	1838.95833
1690.824	1757.625
1693.782	1732.29167
1696.738	1689.625
1699.692	1637.95833
1702.643	1586.29167
1705.593	1565.95833
1708.54	1547.95833
1711.486	1534.95833
1714.429	1491.29167
1717.37	1507.95833
1720.309	1493.29167
1723.246	1479.625
1726.181	1470.95833
1729.113	1438.95833
1732.044	1438.95833
1734.972	1429.95833
1737.899	1431.29167
1740.823	1421.29167
1743.745	1427.95833
1746.665	1370.95833
1749.583	1339.29167
1752.499	1334.625
1755.413	1318.625
1758.325	1300.29167
1761.235	1271.95833
1764.142	1268.29167
1767.048	1242.95833
1769.951	1251.625
1772.852	1238.625
1775.752	1241.625
1778.649	1240.625
1781.544	1232.625
1784.437	1194.29167
1787.328	1208.95833
1790.217	1200.625
1793.104	1167.625
1795.989	1176.29167
1798.872	1177.625
1801.753	1171.95833
1804.631	1167.625
1807.508	1168.29167
1810.383	1167.625
1813.255	1172.95833
1816.126	1169.29167
1818.994	1155.95833
1821.861	1135.625
1824.725	1148.625
1827.587	1130.625
1830.448	1125.625
1833.306	1094.29167
1836.162	1111.29167
1839.017	1101.29167
1841.869	1111.625
1844.719	1091.95833
1847.567	1098.29167
1850.414	1075.625
1853.258	1075.29167
1856.1	1091.625
1858.94	1092.29167
1861.778	1076.95833
1864.614	1069.625
1867.448	1073.29167
1870.28	1057.29167
1873.111	1078.29167
1875.939	1059.625
1878.765	1077.95833
1881.589	1057.625
1884.411	1045.625
1887.231	1051.29167
1890.049	1051.29167
1892.865	1056.95833
1895.68	1035.29167
1898.492	1037.95833
1901.302	1036.95833
1904.11	1022.625
1906.916	1020.29167
1909.721	991.625
1912.523	1007.29167
1915.323	999.29167
1918.122	1000.625
1920.918	1004.29167
1923.712	986.29167
1926.505	995.29167
1929.295	980.625
1932.084	1006.625
1934.87	985.625
1937.655	978.625
1940.438	973.95833
1943.218	972.29167
1945.997	990.29167
1948.774	976.625
1951.549	981.625
1954.322	964.29167
1957.093	977.625
1959.862	965.95833
1962.629	957.95833
1965.394	947.95833
1968.157	947.625
1970.918	941.95833
1973.678	926.29167
1976.435	947.29167
1979.19	936.625
1981.944	925.95833
1984.696	908.29167
1987.445	904.95833
1990.193	913.95833
1992.939	926.95833
1995.683	907.625
1998.425	890.95833
2001.165	919.29167
2003.903	899.625
2006.639	892.29167
2009.374	909.95833
2012.106	900.29167
2014.837	888.625
2017.566	906.29167
2020.292	896.625
2023.017	889.625
2025.74	887.625
2028.461	877.95833
2031.18	875.625
2033.898	864.625
2036.613	876.625
2039.327	870.625
2042.038	863.29167
2044.748	860.29167
2047.456	864.95833
2050.162	847.29167
2052.866	850.625
2055.568	860.29167
2058.268	851.29167
2060.967	852.625
2063.663	839.625
2066.358	831.625
2069.051	834.625
2071.742	841.95833
2074.431	849.625
2077.118	844.29167
2079.804	832.625
2082.487	840.95833
2085.169	845.625
2087.849	861.625
2090.527	829.95833
2093.203	851.95833
2095.877	866.29167
2098.55	858.29167
2101.22	867.625
2103.889	871.29167
2106.556	864.95833
2109.221	888.625
2111.884	908.29167
2114.546	945.625
2117.205	998.625
2119.863	1062.95833
2122.519	1110.625
2125.173	1172.625
2127.825	1236.625
2130.475	1225.29167
2133.124	1200.29167
2135.771	1162.95833
2138.416	1130.29167
2141.059	1071.95833
2143.7	1022.29167
2146.339	973.625
2148.977	930.29167
2151.613	913.95833
2154.247	889.625
2156.879	868.95833
2159.51	852.29167
2162.138	836.29167
2164.765	830.95833
2167.39	818.625
2170.013	813.625
2172.634	817.625
2175.254	804.625
2177.872	820.95833
2180.488	778.625
2183.102	777.625
2185.714	772.95833
2188.325	743.625
2190.934	762.95833
2193.541	766.625
2196.146	751.29167
2198.75	732.625
2201.351	732.625
2203.951	724.625
2206.549	738.29167
2209.146	731.625
2211.74	719.29167
2214.333	717.625
2216.924	712.29167
2219.514	701.95833
2222.101	701.29167
2224.687	716.29167
2227.271	705.29167
2229.853	691.625
2232.433	681.95833
2235.012	702.29167
2237.589	691.95833
2240.164	695.95833
2242.738	688.29167
2245.309	673.95833
2247.879	685.29167
2250.448	672.95833
2253.014	656.625
2255.579	651.625
2258.142	652.29167
2260.703	643.95833
2263.262	643.625
2265.82	635.29167
2268.376	647.95833
2270.93	627.29167
2273.483	626.625
2276.033	628.625
2278.583	627.95833
2281.13	617.29167
2283.675	614.95833
2286.219	610.29167
2288.761	613.95833
2291.302	617.29167
2293.841	625.625
2296.377	596.625
2298.913	610.29167
2301.446	610.625
2303.978	603.95833
2306.508	595.29167
2309.037	595.625
2311.563	594.95833
2314.088	597.29167
2316.612	578.95833
2319.133	584.29167
2321.653	588.625
2324.171	574.95833
2326.688	596.625
2329.202	576.625
2331.715	571.95833
2334.227	571.29167
2336.736	568.625
2339.244	558.29167
2341.751	564.625
2344.255	567.29167
2346.758	561.29167
2349.259	554.95833
2351.759	561.29167
2354.257	544.625
2356.753	544.95833
2359.247	558.95833
2361.74	562.29167
2364.231	542.95833
2366.721	546.29167
2369.209	535.95833
2371.695	539.625
2374.179	536.625
2376.662	530.95833
2379.143	550.95833
2381.622	535.95833
2384.1	538.625
2386.576	529.29167
2389.051	548.625
2391.524	543.625
2393.995	543.95833
2396.464	523.29167
2398.932	535.95833
2401.398	518.29167
2403.863	528.625
2406.325	516.95833
2408.787	532.29167
2411.246	518.29167
2413.704	510.95833
2416.16	511.29167
2418.615	513.29167
2421.068	525.29167
2423.519	522.625
2425.969	513.95833
2428.417	522.625
2430.863	542.95833
2433.308	519.625
2435.751	507.95833
2438.193	503.625
2440.633	508.95833
2443.071	508.29167
2445.508	497.625
2447.943	496.625
2450.376	493.95833
2452.808	497.29167
2455.238	481.29167
2457.667	525.95833
2460.093	491.29167
2462.519	488.625
2464.942	491.95833
2467.365	485.95833
2469.785	492.95833
2472.204	494.625
2474.621	477.625
2477.037	509.29167
2479.451	478.625
2481.863	473.29167
2484.274	469.95833
2486.683	478.625
2489.091	491.625
2491.497	476.29167
2493.901	485.625
2496.304	465.29167
2498.705	487.29167
2501.105	469.625
2503.503	492.625
2505.899	461.95833
2508.294	486.29167
2510.687	464.95833
2513.079	493.95833
2515.469	537.625
2517.858	462.95833
2520.245	471.29167
2522.63	453.95833
2525.014	453.95833
2527.396	458.29167
2529.776	449.625
2532.156	468.625
2534.533	446.625
2536.909	441.625
2539.283	439.625
2541.656	446.625
2544.027	462.95833
2546.397	451.29167
2548.765	441.29167
2551.131	441.95833
2553.496	446.29167
2555.86	447.625
2558.221	452.29167
2560.582	438.625
2562.94	429.625
2565.298	479.95833
2567.653	563.29167
2570.007	442.95833
2572.36	439.29167
2574.711	434.625
2577.06	450.625
2579.408	453.95833
2581.754	427.625
2584.099	446.95833
2586.442	431.95833
2588.784	444.625
2591.124	437.29167
2593.463	436.625
2595.8	436.29167
2598.135	423.29167
2600.469	430.95833
2602.802	433.29167
2605.133	434.29167
2607.462	412.95833
2609.79	410.29167
2612.116	425.29167
2614.441	424.95833
2616.764	423.29167
2619.086	419.29167
2621.406	417.625
2623.725	438.625
2626.042	430.625
2628.358	416.625
2630.672	408.29167
2632.985	435.95833
2635.296	432.29167
2637.606	422.29167
2639.914	411.29167
2642.22	415.95833
2644.525	414.625
2646.829	419.625
2649.131	431.29167
2651.432	424.625
2653.731	430.95833
2656.028	430.95833
2658.324	436.29167
2660.619	413.625
2662.912	434.95833
2665.204	407.29167
2667.494	426.625
2669.782	427.95833
2672.07	432.625
2674.355	436.29167
2676.639	415.625
2678.922	412.95833
2681.203	426.29167
2683.483	413.625
2685.761	408.95833
2688.038	423.95833
2690.313	439.625
2692.587	425.29167
2694.859	419.29167
2697.13	422.29167
2699.399	433.95833
2701.667	440.95833
2703.933	430.625
2706.198	440.625
2708.461	445.95833
2710.723	440.29167
2712.984	441.95833
2715.243	445.95833
2717.5	426.95833
2719.757	451.625
2722.011	440.95833
2724.264	447.29167
2726.516	457.95833
2728.766	442.95833
2731.015	454.29167
2733.262	447.625
2735.508	460.95833
2737.753	440.29167
2739.996	436.95833
2742.237	428.95833
2744.477	436.29167
2746.716	443.625
2748.953	429.95833
2751.189	437.95833
2753.423	428.29167
2755.656	415.625
2757.887	417.95833
2760.117	418.29167
2762.346	411.95833
2764.573	406.95833
2766.798	406.625
2769.022	414.625
2771.245	419.95833
2773.467	415.95833
2775.686	423.95833
2777.905	418.29167
2780.122	430.625
2782.337	436.95833
2784.552	425.29167
2786.764	419.29167
2788.976	426.95833
2791.186	438.29167
2793.394	447.29167
2795.601	444.625
2797.807	461.625
2800.011	467.95833
2802.214	464.625
2804.415	461.95833
2806.615	469.625
2808.814	474.95833
2811.011	483.29167
2813.206	469.95833
2815.401	495.29167
2817.594	496.95833
2819.785	506.95833
2821.975	504.95833
2824.164	503.95833
2826.351	517.95833
2828.537	534.625
2830.722	547.29167
2832.905	551.95833
2835.086	587.29167
2837.267	605.29167
2839.445	608.625
2841.623	635.625
2843.799	660.625
2845.974	696.625
2848.147	723.95833
2850.319	750.625
2852.489	767.625
2854.659	791.625
2856.826	794.95833
2858.993	836.625
2861.158	815.95833
2863.321	810.29167
2865.483	836.625
2867.644	837.95833
2869.804	834.625
2871.962	832.95833
2874.118	831.95833
2876.274	822.29167
2878.428	825.95833
2880.58	809.625
2882.731	812.29167
2884.881	813.625
2887.03	814.625
2889.177	818.29167
2891.322	830.95833
2893.467	824.625
2895.61	822.625
2897.751	842.625
2899.892	835.625
2902.03	845.95833
2904.168	848.29167
2906.304	854.95833
2908.439	874.95833
2910.572	856.625
2912.704	871.29167
2914.835	879.625
2916.965	880.29167
2919.093	884.29167
2921.219	856.95833
2923.345	882.625
2925.469	847.625
2927.591	850.95833
2929.712	820.29167
2931.832	821.95833
2933.951	799.95833
2936.068	789.625
2938.184	758.95833
2940.299	740.625
2942.412	719.625
2944.524	675.29167
2946.634	690.95833
2948.744	626.625
2950.851	657.29167
2952.958	607.95833
2955.063	608.625
2957.167	596.29167
2959.269	559.29167
2961.371	580.95833
2963.471	551.29167
2965.569	548.625
2967.666	523.29167
2969.762	513.95833
2971.857	492.95833
2973.95	474.625
2976.042	477.625
2978.133	466.95833
2980.222	450.29167
2982.31	429.95833
2984.396	421.95833
2986.482	422.95833
2988.566	407.625
2990.648	414.29167
2992.73	396.625
2994.81	380.29167
2996.889	394.625
2998.966	376.95833
3001.042	394.29167
3003.117	387.29167
3005.191	378.29167
3007.263	380.29167
3009.334	360.95833
3011.403	371.95833
3013.472	354.625
3015.539	363.29167
3017.604	375.95833
3019.669	331.29167
3021.732	335.625
3023.794	332.29167
3025.854	328.625
3027.914	335.625
3029.971	335.625
3032.028	325.29167
3034.083	329.95833
3036.137	318.625
3038.19	309.95833
3040.242	299.95833
3042.292	292.95833
3044.341	299.625
3046.388	304.95833
3048.435	289.29167
3050.48	303.95833
3052.524	303.95833
3054.566	273.625
3056.607	293.95833
3058.647	279.95833
3060.686	270.95833
3062.723	261.625
3064.759	247.29167
3066.794	-2.04167
3068.828	3.29167
3070.86	2.95833
