-0.839	523.70833
3.438	624.375
7.711	185.04167
11.981	59.375
16.247	50.04167
20.509	51.375
24.768	48.04167
29.024	53.04167
33.276	46.70833
37.524	49.375
41.769	51.70833
46.01	36.70833
50.247	49.04167
54.481	62.04167
58.712	60.375
62.939	46.04167
67.162	64.04167
71.382	58.04167
75.599	45.70833
79.812	68.375
84.021	82.70833
88.227	63.70833
92.429	59.70833
96.628	57.04167
100.823	75.70833
105.015	74.375
109.204	70.70833
113.388	75.375
117.57	81.04167
121.748	89.375
125.922	80.04167
130.093	103.70833
134.261	102.375
138.425	97.70833
142.585	141.375
146.742	134.375
150.896	167.04167
155.046	210.375
159.193	330.04167
163.336	558.04167
167.476	1004.70833
171.613	1844.375
175.746	3092.375
179.875	4547.04167
184.002	5934.04167
188.124	6886.04167
192.244	7184.70833
196.36	7153.375
200.472	6973.70833
204.581	6813.04167
208.687	6614.04167
212.79	6598.375
216.889	6592.04167
220.984	6583.70833
225.077	6632.70833
229.165	6668.375
233.251	6674.70833
237.333	6658.04167
241.412	6599.70833
245.487	6552.70833
249.559	6466.04167
253.628	6422.04167
257.694	6379.375
261.756	6307.70833
265.814	6184.04167
269.87	6022.70833
273.922	5787.04167
277.97	5646.375
282.016	5531.70833
286.058	5487.375
290.097	5525.04167
294.132	5556.70833
298.164	5529.70833
302.193	5333.70833
306.219	5026.375
310.241	4629.375
314.26	4256.70833
318.276	4004.70833
322.288	3801.70833
326.297	3638.70833
330.303	3545.375
334.305	3452.375
338.305	3419.375
342.301	3371.04167
346.294	3310.70833
350.283	3294.70833
354.269	3296.70833
358.252	3236.70833
362.232	3242.04167
366.209	3229.70833
370.182	3195.70833
374.152	3200.375
378.119	3195.375
382.083	3169.375
386.043	3204.04167
390	3161.04167
393.954	3183.04167
397.905	3146.04167
401.852	3134.375
405.797	3139.70833
409.738	3148.375
413.676	3131.375
417.61	3144.70833
421.542	3113.375
425.47	3057.70833
429.396	3041.04167
433.318	3022.70833
437.236	3025.70833
441.152	3041.70833
445.065	2995.70833
448.974	2997.375
452.88	2972.70833
456.783	2952.04167
460.683	2945.70833
464.58	2952.70833
468.473	2935.375
472.364	2945.04167
476.251	2943.375
480.135	2980.375
484.016	2998.375
487.894	3031.375
491.769	3013.70833
495.641	3031.04167
499.509	3033.375
503.375	3013.04167
507.237	3008.04167
511.096	3010.04167
514.952	3016.70833
518.805	3022.70833
522.655	3029.70833
526.502	3004.70833
530.346	3014.70833
534.187	3032.70833
538.024	3016.04167
541.859	3075.04167
545.69	3100.70833
549.519	3067.04167
553.344	3058.04167
557.166	2998.70833
560.985	2941.04167
564.802	2925.04167
568.615	2869.04167
572.425	2834.375
576.232	2823.375
580.036	2826.70833
583.836	2809.04167
587.634	2828.375
591.429	2829.04167
595.221	2915.375
599.01	2927.375
602.796	2958.375
606.578	2969.375
610.358	2979.375
614.135	2952.375
617.909	2958.375
621.679	2916.04167
625.447	2879.70833
629.212	2872.375
632.973	2889.70833
636.732	2875.04167
640.488	2883.70833
644.241	2852.375
647.991	2851.70833
651.737	2887.375
655.481	2853.04167
659.222	2865.375
662.96	2856.04167
666.695	2870.04167
670.427	2879.04167
674.156	2871.04167
677.882	2855.04167
681.605	2854.04167
685.325	2848.04167
689.043	2847.70833
692.757	2791.375
696.468	2832.04167
700.177	2789.375
703.882	2781.04167
707.585	2775.04167
711.284	2776.04167
714.981	2763.04167
718.675	2755.04167
722.366	2778.375
726.054	2757.04167
729.739	2771.375
733.421	2753.04167
737.1	2739.70833
740.777	2777.04167
744.45	2803.70833
748.121	2824.04167
751.789	2838.04167
755.453	2838.04167
759.115	2870.375
762.774	2873.70833
766.431	2904.70833
770.084	2911.70833
773.734	2955.375
777.382	3000.70833
781.027	3031.70833
784.669	3061.375
788.308	3048.70833
791.944	3047.70833
795.577	3053.04167
799.208	3059.375
802.835	3091.70833
806.46	3094.70833
810.082	3121.70833
813.701	3122.375
817.317	3155.70833
820.931	3165.375
824.542	3124.375
828.149	3115.70833
831.754	3063.70833
835.357	3061.04167
838.956	3073.375
842.553	3064.375
846.146	3059.375
849.737	3021.04167
853.326	3014.375
856.911	3003.04167
860.493	3034.70833
864.073	3067.375
867.65	3098.375
871.225	3134.70833
874.796	3134.04167
878.365	3127.70833
881.931	3130.04167
885.494	3152.04167
889.054	3167.375
892.612	3174.375
896.166	3130.375
899.719	3115.70833
903.268	3062.375
906.814	3050.375
910.358	3020.375
913.899	3001.04167
917.438	3010.375
920.973	3021.04167
924.506	3050.70833
928.036	3111.04167
931.564	3153.04167
935.088	3176.04167
938.61	3175.375
942.129	3207.375
945.646	3273.70833
949.16	3333.04167
952.671	3373.375
956.179	3398.04167
959.685	3354.04167
963.188	3374.70833
966.688	3341.04167
970.185	3255.04167
973.68	3161.70833
977.173	3099.375
980.662	3072.375
984.149	3050.70833
987.633	3017.04167
991.114	3089.04167
994.593	3135.375
998.069	3202.375
1001.542	3276.04167
1005.013	3240.375
1008.481	3095.375
1011.947	3032.70833
1015.409	2994.70833
1018.869	2999.04167
1022.327	3003.04167
1025.782	2968.375
1029.234	2971.375
1032.683	2931.375
1036.13	2850.375
1039.574	2738.70833
1043.016	2647.70833
1046.455	2639.04167
1049.891	2591.375
1053.325	2598.375
1056.756	2618.375
1060.184	2652.04167
1063.61	2652.70833
1067.033	2653.70833
1070.454	2642.70833
1073.872	2697.04167
1077.287	2675.70833
1080.7	2667.375
1084.11	2646.70833
1087.517	2639.04167
1090.922	2602.04167
1094.325	2591.375
1097.724	2566.70833
1101.122	2578.375
1104.516	2567.70833
1107.908	2580.04167
1111.298	2609.04167
1114.684	2629.04167
1118.069	2650.04167
1121.45	2688.375
1124.83	2672.375
1128.206	2691.375
1131.58	2753.04167
1134.951	2806.375
1138.32	2894.04167
1141.687	3008.04167
1145.05	3058.70833
1148.412	3078.70833
1151.77	3061.70833
1155.126	3054.375
1158.48	3046.70833
1161.831	3054.04167
1165.18	3058.375
1168.525	3132.04167
1171.869	3143.70833
1175.21	3176.70833
1178.548	3202.375
1181.884	3233.70833
1185.217	3249.04167
1188.548	3345.04167
1191.877	3423.04167
1195.202	3501.04167
1198.526	3562.375
1201.846	3566.375
1205.165	3574.375
1208.48	3569.04167
1211.794	3544.70833
1215.104	3543.04167
1218.413	3545.70833
1221.719	3498.375
1225.022	3438.70833
1228.323	3384.70833
1231.621	3376.375
1234.917	3320.04167
1238.21	3356.04167
1241.501	3333.04167
1244.79	3333.04167
1248.076	3315.04167
1251.359	3339.04167
1254.64	3430.375
1257.919	3455.04167
1261.195	3507.04167
1264.468	3559.70833
1267.74	3597.70833
1271.008	3652.70833
1274.275	3616.70833
1277.538	3563.70833
1280.8	3536.375
1284.059	3547.04167
1287.315	3586.04167
1290.569	3606.375
1293.821	3620.70833
1297.07	3642.375
1300.317	3646.375
1303.562	3629.04167
1306.803	3633.04167
1310.043	3613.375
1313.28	3588.375
1316.515	3602.04167
1319.747	3530.70833
1322.977	3481.04167
1326.204	3465.70833
1329.429	3430.70833
1332.652	3409.375
1335.872	3379.70833
1339.09	3316.70833
1342.306	3315.375
1345.519	3257.04167
1348.729	3239.04167
1351.938	3217.70833
1355.144	3185.375
1358.347	3133.04167
1361.548	3129.04167
1364.747	3126.375
1367.944	3099.04167
1371.138	3095.04167
1374.329	3106.375
1377.518	3123.375
1380.705	3137.04167
1383.89	3117.70833
1387.072	3054.70833
1390.252	2917.04167
1393.429	2823.70833
1396.605	2752.375
1399.777	2671.375
1402.948	2613.04167
1406.116	2617.70833
1409.282	2609.04167
1412.445	2592.04167
1415.606	2619.375
1418.765	2642.70833
1421.921	2704.70833
1425.075	2750.70833
1428.227	2811.375
1431.376	2943.375
1434.524	3056.04167
1437.668	3154.70833
1440.811	3199.70833
1443.951	3236.04167
1447.089	3242.70833
1450.224	3233.04167
1453.357	3242.375
1456.488	3193.04167
1459.617	3172.375
1462.743	3116.375
1465.867	3034.04167
1468.989	3014.375
1472.108	2956.375
1475.225	2919.375
1478.34	2899.70833
1481.453	2904.04167
1484.563	2902.375
1487.671	2932.04167
1490.776	2963.70833
1493.88	3009.70833
1496.981	3043.70833
1500.08	3102.04167
1503.176	3127.70833
1506.271	3182.04167
1509.363	3244.04167
1512.452	3257.70833
1515.54	3294.70833
1518.625	3360.70833
1521.708	3420.04167
1524.789	3549.70833
1527.867	3675.70833
1530.944	3860.375
1534.018	4011.375
1537.089	4116.04167
1540.159	4168.04167
1543.226	4125.04167
1546.291	4018.70833
1549.354	3968.70833
1552.415	3885.04167
1555.473	3782.70833
1558.529	3736.375
1561.583	3692.04167
1564.634	3673.04167
1567.684	3672.70833
1570.731	3691.375
1573.776	3748.04167
1576.819	3805.375
1579.859	3866.375
1582.898	3898.375
1585.934	3947.04167
1588.968	3960.70833
1591.999	3939.70833
1595.029	3929.375
1598.056	3971.375
1601.081	3981.04167
1604.104	3935.04167
1607.125	3931.375
1610.144	3831.375
1613.16	3758.375
1616.174	3682.04167
1619.186	3616.375
1622.196	3549.04167
1625.203	3473.04167
1628.209	3420.70833
1631.212	3385.04167
1634.213	3382.70833
1637.212	3365.04167
1640.209	3316.375
1643.203	3245.375
1646.196	3132.375
1649.186	2954.375
1652.174	2849.04167
1655.16	2726.375
1658.144	2653.375
1661.125	2518.04167
1664.105	2406.70833
1667.082	2292.70833
1670.057	2207.375
1673.03	2072.04167
1676.001	1931.375
1678.97	1813.04167
1681.937	1708.70833
1684.901	1607.04167
1687.863	1549.375
1690.824	1501.04167
1693.782	1461.04167
1696.738	1402.375
1699.692	1382.04167
1702.643	1334.70833
1705.593	1325.375
1708.54	1321.04167
1711.486	1316.70833
1714.429	1277.375
1717.37	1280.375
1720.309	1247.04167
1723.246	1255.70833
1726.181	1223.70833
1729.113	1224.04167
1732.044	1197.70833
1734.972	1197.70833
1737.899	1196.375
1740.823	1175.70833
1743.745	1183.70833
1746.665	1147.04167
1749.583	1131.70833
1752.499	1097.70833
1755.413	1091.375
1758.325	1073.70833
1761.235	1073.04167
1764.142	1053.375
1767.048	1027.04167
1769.951	1036.70833
1772.852	1044.375
1775.752	1020.04167
1778.649	1023.04167
1781.544	1021.70833
1784.437	1005.04167
1787.328	998.70833
1790.217	1002.375
1793.104	972.04167
1795.989	976.70833
1798.872	968.04167
1801.753	972.70833
1804.631	977.70833
1807.508	968.375
1810.383	965.04167
1813.255	956.70833
1816.126	954.04167
1818.994	958.04167
1821.861	937.70833
1824.725	936.70833
1827.587	944.70833
1830.448	931.375
1833.306	907.375
1836.162	908.375
1839.017	917.375
1841.869	906.70833
1844.719	906.04167
1847.567	898.70833
1850.414	883.70833
1853.258	892.375
1856.1	898.375
1858.94	903.04167
1861.778	891.375
1864.614	881.70833
1867.448	880.70833
1870.28	872.375
1873.111	913.04167
1875.939	884.375
1878.765	902.375
1881.589	860.04167
1884.411	874.375
1887.231	867.375
1890.049	866.04167
1892.865	869.04167
1895.68	838.375
1898.492	870.70833
1901.302	841.70833
1904.11	854.70833
1906.916	832.04167
1909.721	828.375
1912.523	845.04167
1915.323	819.04167
1918.122	815.04167
1920.918	831.375
1923.712	809.375
1926.505	811.375
1929.295	816.70833
1932.084	829.70833
1934.87	819.70833
1937.655	821.70833
1940.438	810.04167
1943.218	805.375
1945.997	809.04167
1948.774	818.375
1951.549	803.70833
1954.322	816.375
1957.093	792.375
1959.862	790.70833
1962.629	780.70833
1965.394	785.70833
1968.157	776.375
1970.918	777.70833
1973.678	757.04167
1976.435	781.70833
1979.19	758.375
1981.944	759.04167
1984.696	758.70833
1987.445	753.70833
1990.193	753.375
1992.939	766.04167
1995.683	759.70833
1998.425	743.70833
2001.165	772.375
2003.903	736.04167
2006.639	743.375
2009.374	756.375
2012.106	736.04167
2014.837	726.375
2017.566	752.375
2020.292	736.70833
2023.017	731.375
2025.74	737.70833
2028.461	707.375
2031.18	711.04167
2033.898	728.375
2036.613	725.375
2039.327	730.04167
2042.038	710.375
2044.748	703.70833
2047.456	710.375
2050.162	698.375
2052.866	709.04167
2055.568	711.375
2058.268	700.70833
2060.967	697.04167
2063.663	687.04167
2066.358	690.375
2069.051	686.375
2071.742	694.375
2074.431	691.70833
2077.118	689.70833
2079.804	679.04167
2082.487	689.70833
2085.169	686.04167
2087.849	712.375
2090.527	680.70833
2093.203	685.70833
2095.877	700.70833
2098.55	701.375
2101.22	708.375
2103.889	710.04167
2106.556	686.70833
2109.221	719.04167
2111.884	706.04167
2114.546	746.70833
2117.205	783.375
2119.863	831.04167
2122.519	879.04167
2125.173	927.375
2127.825	989.04167
2130.475	990.375
2133.124	965.375
2135.771	935.375
2138.416	906.70833
2141.059	858.04167
2143.7	813.375
2146.339	771.04167
2148.977	732.04167
2151.613	736.375
2154.247	712.04167
2156.879	695.04167
2159.51	671.70833
2162.138	669.70833
2164.765	666.70833
2167.39	658.70833
2170.013	668.70833
2172.634	654.04167
2175.254	649.04167
2177.872	664.04167
2180.488	625.04167
2183.102	640.70833
2185.714	625.04167
2188.325	600.375
2190.934	617.04167
2193.541	615.04167
2196.146	608.375
2198.75	597.70833
2201.351	595.04167
2203.951	582.04167
2206.549	605.70833
2209.146	587.04167
2211.74	581.04167
2214.333	595.04167
2216.924	564.70833
2219.514	576.70833
2222.101	573.375
2224.687	587.375
2227.271	569.375
2229.853	553.70833
2232.433	545.70833
2235.012	572.375
2237.589	572.04167
2240.164	571.04167
2242.738	553.04167
2245.309	546.04167
2247.879	559.04167
2250.448	562.04167
2253.014	531.04167
2255.579	525.375
2258.142	541.70833
2260.703	517.375
2263.262	527.375
2265.82	509.70833
2268.376	524.70833
2270.93	508.70833
2273.483	504.04167
2276.033	509.375
2278.583	501.375
2281.13	510.70833
2283.675	491.375
2286.219	496.375
2288.761	498.04167
2291.302	494.04167
2293.841	496.70833
2296.377	488.375
2298.913	499.70833
2301.446	499.70833
2303.978	489.375
2306.508	476.375
2309.037	482.375
2311.563	490.375
2314.088	483.70833
2316.612	469.375
2319.133	473.375
2321.653	470.375
2324.171	468.70833
2326.688	492.04167
2329.202	473.70833
2331.715	469.70833
2334.227	461.04167
2336.736	466.375
2339.244	458.04167
2341.751	444.70833
2344.255	460.04167
2346.758	449.70833
2349.259	439.04167
2351.759	458.375
2354.257	453.04167
2356.753	441.04167
2359.247	453.375
2361.74	450.04167
2364.231	447.70833
2366.721	452.375
2369.209	444.70833
2371.695	446.375
2374.179	437.70833
2376.662	434.04167
2379.143	443.04167
2381.622	429.375
2384.1	438.375
2386.576	432.375
2389.051	442.375
2391.524	449.375
2393.995	431.70833
2396.464	424.70833
2398.932	427.70833
2401.398	429.375
2403.863	428.70833
2406.325	409.70833
2408.787	430.70833
2411.246	425.375
2413.704	417.70833
2416.16	411.04167
2418.615	408.70833
2421.068	430.375
2423.519	421.70833
2425.969	403.375
2428.417	426.04167
2430.863	427.70833
2433.308	422.04167
2435.751	413.04167
2438.193	420.04167
2440.633	402.375
2443.071	414.375
2445.508	408.70833
2447.943	403.375
2450.376	396.04167
2452.808	391.70833
2455.238	400.375
2457.667	441.04167
2460.093	396.04167
2462.519	397.70833
2464.942	397.04167
2467.365	399.70833
2469.785	400.375
2472.204	399.04167
2474.621	390.70833
2477.037	404.04167
2479.451	378.375
2481.863	384.04167
2484.274	378.375
2486.683	385.04167
2489.091	397.375
2491.497	374.70833
2493.901	384.375
2496.304	370.70833
2498.705	392.375
2501.105	376.375
2503.503	401.375
2505.899	365.375
2508.294	391.375
2510.687	376.70833
2513.079	381.375
2515.469	368.70833
2517.858	375.70833
2520.245	385.375
2522.63	368.375
2525.014	366.70833
2527.396	366.375
2529.776	361.70833
2532.156	376.04167
2534.533	365.375
2536.909	352.04167
2539.283	349.70833
2541.656	351.04167
2544.027	377.04167
2546.397	358.375
2548.765	353.375
2551.131	358.04167
2553.496	365.375
2555.86	363.70833
2558.221	368.70833
2560.582	353.375
2562.94	344.04167
2565.298	363.70833
2567.653	369.70833
2570.007	331.375
2572.36	362.04167
2574.711	343.04167
2577.06	369.70833
2579.408	355.70833
2581.754	354.04167
2584.099	352.04167
2586.442	347.70833
2588.784	350.375
2591.124	349.04167
2593.463	347.04167
2595.8	341.70833
2598.135	337.04167
2600.469	342.375
2602.802	345.375
2605.133	353.375
2607.462	338.04167
2609.79	326.375
2612.116	347.04167
2614.441	341.70833
2616.764	351.70833
2619.086	331.04167
2621.406	332.375
2623.725	359.375
2626.042	339.375
2628.358	335.375
2630.672	326.70833
2632.985	345.375
2635.296	339.375
2637.606	329.375
2639.914	326.04167
2642.22	330.70833
2644.525	335.04167
2646.829	335.70833
2649.131	342.04167
2651.432	348.375
2653.731	345.04167
2656.028	349.04167
2658.324	347.70833
2660.619	330.70833
2662.912	348.70833
2665.204	324.70833
2667.494	346.70833
2669.782	333.04167
2672.07	347.375
2674.355	339.375
2676.639	334.375
2678.922	332.375
2681.203	334.70833
2683.483	322.375
2685.761	327.375
2688.038	338.70833
2690.313	346.375
2692.587	332.04167
2694.859	328.04167
2697.13	334.04167
2699.399	348.04167
2701.667	352.70833
2703.933	338.70833
2706.198	344.04167
2708.461	355.70833
2710.723	351.375
2712.984	352.375
2715.243	348.375
2717.5	342.70833
2719.757	359.375
2722.011	355.375
2724.264	362.70833
2726.516	368.04167
2728.766	360.70833
2731.015	360.70833
2733.262	354.375
2735.508	356.375
2737.753	360.04167
2739.996	344.375
2742.237	339.04167
2744.477	351.04167
2746.716	357.04167
2748.953	345.375
2751.189	352.375
2753.423	336.04167
2755.656	327.70833
2757.887	328.375
2760.117	340.04167
2762.346	324.375
2764.573	315.04167
2766.798	324.70833
2769.022	318.70833
2771.245	325.04167
2773.467	341.375
2775.686	327.70833
2777.905	334.04167
2780.122	343.375
2782.337	341.70833
2784.552	336.04167
2786.764	336.70833
2788.976	338.04167
2791.186	345.04167
2793.394	341.04167
2795.601	356.375
2797.807	363.70833
2800.011	360.04167
2802.214	366.375
2804.415	355.70833
2806.615	355.375
2808.814	361.04167
2811.011	379.04167
2813.206	368.70833
2815.401	389.70833
2817.594	388.04167
2819.785	406.04167
2821.975	397.04167
2824.164	391.70833
2826.351	414.70833
2828.537	418.375
2830.722	429.375
2832.905	428.70833
2835.086	464.70833
2837.267	490.375
2839.445	494.375
2841.623	517.04167
2843.799	540.375
2845.974	567.70833
2848.147	597.04167
2850.319	621.04167
2852.489	656.375
2854.659	661.70833
2856.826	670.04167
2858.993	708.04167
2861.158	676.375
2863.321	671.70833
2865.483	712.04167
2867.644	700.04167
2869.804	692.04167
2871.962	690.04167
2874.118	693.04167
2876.274	706.04167
2878.428	682.70833
2880.58	701.375
2882.731	676.04167
2884.881	689.04167
2887.03	702.70833
2889.177	701.70833
2891.322	705.04167
2893.467	696.375
2895.61	699.375
2897.751	724.375
2899.892	713.70833
2902.03	715.70833
2904.168	721.375
2906.304	736.04167
2908.439	737.04167
2910.572	726.70833
2912.704	754.375
2914.835	743.70833
2916.965	746.04167
2919.093	751.375
2921.219	730.375
2923.345	756.04167
2925.469	723.70833
2927.591	739.70833
2929.712	705.70833
2931.832	707.375
2933.951	685.375
2936.068	682.04167
2938.184	651.70833
2940.299	627.04167
2942.412	615.70833
2944.524	576.375
2946.634	577.375
2948.744	540.04167
2950.851	559.04167
2952.958	512.375
2955.063	507.04167
2957.167	510.375
2959.269	467.375
2961.371	502.04167
2963.471	455.375
2965.569	461.04167
2967.666	426.70833
2969.762	428.70833
2971.857	414.70833
2973.95	399.375
2976.042	398.70833
2978.133	386.70833
2980.222	373.70833
2982.31	361.375
2984.396	344.70833
2986.482	339.375
2988.566	336.375
2990.648	335.375
2992.73	337.04167
2994.81	326.04167
2996.889	319.375
2998.966	316.04167
3001.042	322.04167
3003.117	317.70833
3005.191	315.70833
3007.263	309.70833
3009.334	301.375
3011.403	309.375
3013.472	291.70833
3015.539	302.04167
3017.604	304.375
3019.669	271.70833
3021.732	275.70833
3023.794	279.70833
3025.854	268.70833
3027.914	272.04167
3029.971	270.70833
3032.028	264.375
3034.083	274.70833
3036.137	268.04167
3038.19	256.70833
3040.242	253.70833
3042.292	242.375
3044.341	248.70833
3046.388	262.70833
3048.435	238.70833
3050.48	257.375
3052.524	247.70833
3054.566	222.375
3056.607	241.04167
3058.647	227.375
3060.686	222.375
3062.723	211.70833
3064.759	205.04167
3066.794	-1.625
3068.828	1.70833
3070.86	3.70833
