-0.839	450.08333
3.438	531.08333
7.711	164.08333
11.981	59.75
16.247	47.41667
20.509	48.08333
24.768	45.08333
29.024	53.75
33.276	44.75
37.524	54.75
41.769	45.75
46.01	34.41667
50.247	48.41667
54.481	56.41667
58.712	64.75
62.939	50.41667
67.162	62.75
71.382	53.75
75.599	44.75
79.812	60.08333
84.021	83.41667
88.227	62.08333
92.429	61.75
96.628	50.75
100.823	68.75
105.015	76.41667
109.204	70.41667
113.388	74.08333
117.57	73.41667
121.748	84.41667
125.922	78.41667
130.093	99.75
134.261	93.75
138.425	94.41667
142.585	133.75
146.742	126.41667
150.896	154.08333
155.046	198.41667
159.193	302.75
163.336	522.75
167.476	940.75
171.613	1725.08333
175.746	2859.08333
179.875	4230.41667
184.002	5465.75
188.124	6322.08333
192.244	6627.41667
196.36	6523.75
200.472	6332.75
204.581	6164.41667
208.687	6043.41667
212.79	5958.08333
216.889	5948.41667
220.984	5950.75
225.077	5992.41667
229.165	6000.75
233.251	5985.08333
237.333	5944.08333
241.412	5896.08333
245.487	5801.75
249.559	5723.75
253.628	5699.41667
257.694	5661.08333
261.756	5633.08333
265.814	5522.75
269.87	5313.75
273.922	5175.08333
277.97	5059.75
282.016	5003.41667
286.058	5008.08333
290.097	5120.08333
294.132	5212.75
298.164	5139.41667
302.193	4923.41667
306.219	4548.41667
310.241	4181.75
314.26	3824.75
318.276	3599.75
322.288	3393.75
326.297	3259.41667
330.303	3149.41667
334.305	3055.41667
338.305	3036.75
342.301	2959.75
346.294	2951.41667
350.283	2942.41667
354.269	2905.41667
358.252	2880.08333
362.232	2887.75
366.209	2845.41667
370.182	2815.75
374.152	2805.41667
378.119	2801.41667
382.083	2823.08333
386.043	2821.41667
390	2772.75
393.954	2822.08333
397.905	2806.41667
401.852	2789.41667
405.797	2762.08333
409.738	2777.75
413.676	2809.75
417.61	2857.08333
421.542	2747.75
425.47	2678.75
429.396	2674.08333
433.318	2643.75
437.236	2664.41667
441.152	2679.41667
445.065	2619.75
448.974	2623.75
452.88	2583.08333
456.783	2571.75
460.683	2562.41667
464.58	2565.08333
468.473	2568.75
472.364	2581.75
476.251	2567.75
480.135	2595.41667
484.016	2611.41667
487.894	2627.75
491.769	2647.75
495.641	2641.41667
499.509	2640.75
503.375	2629.41667
507.237	2639.75
511.096	2644.41667
514.952	2680.08333
518.805	2705.08333
522.655	2718.08333
526.502	2672.75
530.346	2637.41667
534.187	2626.41667
538.024	2654.08333
541.859	2659.08333
545.69	2697.08333
549.519	2671.08333
553.344	2660.41667
557.166	2612.75
560.985	2576.75
564.802	2528.41667
568.615	2488.41667
572.425	2447.08333
576.232	2460.08333
580.036	2425.75
583.836	2444.41667
587.634	2458.41667
591.429	2471.41667
595.221	2528.75
599.01	2571.41667
602.796	2588.08333
606.578	2584.41667
610.358	2571.75
614.135	2546.08333
617.909	2543.08333
621.679	2485.08333
625.447	2505.75
629.212	2493.08333
632.973	2532.08333
636.732	2501.41667
640.488	2517.75
644.241	2484.75
647.991	2452.75
651.737	2483.75
655.481	2463.75
659.222	2446.08333
662.96	2477.08333
666.695	2478.41667
670.427	2469.75
674.156	2516.41667
677.882	2517.08333
681.605	2492.41667
685.325	2454.08333
689.043	2461.75
692.757	2431.41667
696.468	2439.08333
700.177	2434.08333
703.882	2409.75
707.585	2385.08333
711.284	2389.41667
714.981	2397.41667
718.675	2402.08333
722.366	2413.75
726.054	2399.41667
729.739	2388.08333
733.421	2404.41667
737.1	2403.41667
740.777	2437.41667
744.45	2434.41667
748.121	2452.08333
751.789	2496.41667
755.453	2471.08333
759.115	2512.41667
762.774	2513.75
766.431	2508.08333
770.084	2547.41667
773.734	2560.75
777.382	2621.41667
781.027	2640.08333
784.669	2628.08333
788.308	2641.08333
791.944	2662.08333
795.577	2692.41667
799.208	2707.41667
802.835	2725.08333
806.46	2723.41667
810.082	2736.08333
813.701	2743.08333
817.317	2775.75
820.931	2773.08333
824.542	2773.75
828.149	2741.08333
831.754	2687.08333
835.357	2688.41667
838.956	2701.08333
842.553	2725.41667
846.146	2722.75
849.737	2697.08333
853.326	2671.41667
856.911	2660.41667
860.493	2674.08333
864.073	2731.08333
867.65	2810.08333
871.225	2823.75
874.796	2782.08333
878.365	2751.41667
881.931	2796.75
885.494	2798.75
889.054	2795.08333
892.612	2801.08333
896.166	2790.08333
899.719	2741.41667
903.268	2713.41667
906.814	2712.75
910.358	2680.41667
913.899	2663.41667
917.438	2654.41667
920.973	2637.75
924.506	2696.75
928.036	2732.41667
931.564	2767.75
935.088	2822.08333
938.61	2841.08333
942.129	2870.75
945.646	2947.41667
949.16	2983.08333
952.671	3021.41667
956.179	3035.08333
959.685	3026.08333
963.188	2989.41667
966.688	2979.75
970.185	2904.75
973.68	2795.41667
977.173	2769.75
980.662	2720.75
984.149	2720.08333
987.633	2697.41667
991.114	2746.08333
994.593	2783.08333
998.069	2872.41667
1001.542	2958.41667
1005.013	2904.41667
1008.481	2744.08333
1011.947	2684.41667
1015.409	2665.75
1018.869	2671.08333
1022.327	2673.75
1025.782	2646.41667
1029.234	2640.41667
1032.683	2605.08333
1036.13	2519.75
1039.574	2420.75
1043.016	2364.08333
1046.455	2327.41667
1049.891	2303.41667
1053.325	2320.41667
1056.756	2313.41667
1060.184	2339.75
1063.61	2363.41667
1067.033	2358.75
1070.454	2376.08333
1073.872	2402.75
1077.287	2391.08333
1080.7	2392.41667
1084.11	2373.41667
1087.517	2352.41667
1090.922	2323.41667
1094.325	2295.41667
1097.724	2291.41667
1101.122	2289.75
1104.516	2270.75
1107.908	2284.08333
1111.298	2313.75
1114.684	2327.41667
1118.069	2370.08333
1121.45	2403.08333
1124.83	2368.41667
1128.206	2428.75
1131.58	2456.08333
1134.951	2508.41667
1138.32	2593.75
1141.687	2670.75
1145.05	2696.75
1148.412	2704.41667
1151.77	2703.08333
1155.126	2685.41667
1158.48	2670.41667
1161.831	2704.75
1165.18	2699.08333
1168.525	2741.41667
1171.869	2768.08333
1175.21	2810.41667
1178.548	2818.75
1181.884	2859.41667
1185.217	2902.75
1188.548	2946.41667
1191.877	3028.08333
1195.202	3125.75
1198.526	3200.41667
1201.846	3216.41667
1205.165	3203.41667
1208.48	3201.75
1211.794	3164.41667
1215.104	3188.08333
1218.413	3168.41667
1221.719	3160.41667
1225.022	3107.41667
1228.323	3061.41667
1231.621	3006.08333
1234.917	3020.08333
1238.21	3012.41667
1241.501	3016.08333
1244.79	2970.75
1248.076	2982.41667
1251.359	3009.08333
1254.64	3066.08333
1257.919	3077.08333
1261.195	3128.75
1264.468	3178.41667
1267.74	3207.75
1271.008	3248.75
1274.275	3223.75
1277.538	3177.08333
1280.8	3189.08333
1284.059	3203.75
1287.315	3245.08333
1290.569	3265.75
1293.821	3278.41667
1297.07	3297.75
1300.317	3325.41667
1303.562	3321.41667
1306.803	3292.08333
1310.043	3273.08333
1313.28	3234.41667
1316.515	3198.41667
1319.747	3166.08333
1322.977	3161.08333
1326.204	3129.08333
1329.429	3088.41667
1332.652	3044.08333
1335.872	3018.75
1339.09	3006.75
1342.306	2971.41667
1345.519	2953.08333
1348.729	2919.41667
1351.938	2933.41667
1355.144	2865.08333
1358.347	2816.75
1361.548	2831.41667
1364.747	2826.75
1367.944	2788.08333
1371.138	2807.08333
1374.329	2799.41667
1377.518	2810.41667
1380.705	2821.75
1383.89	2803.75
1387.072	2711.08333
1390.252	2620.41667
1393.429	2520.75
1396.605	2466.75
1399.777	2357.08333
1402.948	2369.08333
1406.116	2325.08333
1409.282	2329.08333
1412.445	2318.75
1415.606	2362.75
1418.765	2391.08333
1421.921	2449.08333
1425.075	2514.08333
1428.227	2576.41667
1431.376	2701.08333
1434.524	2804.08333
1437.668	2884.75
1440.811	2903.75
1443.951	2950.75
1447.089	2922.41667
1450.224	2942.08333
1453.357	2909.75
1456.488	2876.75
1459.617	2852.75
1462.743	2815.41667
1465.867	2730.08333
1468.989	2686.08333
1472.108	2636.41667
1475.225	2582.75
1478.34	2556.75
1481.453	2575.41667
1484.563	2551.08333
1487.671	2608.41667
1490.776	2620.75
1493.88	2666.08333
1496.981	2710.41667
1500.08	2750.08333
1503.176	2760.08333
1506.271	2804.41667
1509.363	2830.41667
1512.452	2867.75
1515.54	2914.41667
1518.625	2945.41667
1521.708	3018.75
1524.789	3112.41667
1527.867	3194.41667
1530.944	3354.08333
1534.018	3516.75
1537.089	3621.41667
1540.159	3685.75
1543.226	3666.75
1546.291	3580.41667
1549.354	3521.75
1552.415	3414.08333
1555.473	3369.08333
1558.529	3298.75
1561.583	3267.41667
1564.634	3239.75
1567.684	3257.41667
1570.731	3265.75
1573.776	3333.41667
1576.819	3397.41667
1579.859	3398.08333
1582.898	3417.75
1585.934	3469.41667
1588.968	3482.08333
1591.999	3482.75
1595.029	3482.41667
1598.056	3538.75
1601.081	3563.75
1604.104	3542.41667
1607.125	3503.75
1610.144	3439.41667
1613.16	3346.75
1616.174	3276.41667
1619.186	3186.75
1622.196	3092.75
1625.203	3029.08333
1628.209	2951.08333
1631.212	2941.08333
1634.213	2936.41667
1637.212	2916.41667
1640.209	2886.41667
1643.203	2798.08333
1646.196	2742.41667
1649.186	2616.41667
1652.174	2549.08333
1655.16	2441.41667
1658.144	2396.08333
1661.125	2280.75
1664.105	2210.41667
1667.082	2082.75
1670.057	1983.08333
1673.03	1856.41667
1676.001	1727.08333
1678.97	1617.75
1681.937	1525.75
1684.901	1456.41667
1687.863	1404.41667
1690.824	1332.08333
1693.782	1306.75
1696.738	1254.08333
1699.692	1235.75
1702.643	1191.75
1705.593	1184.08333
1708.54	1170.08333
1711.486	1170.75
1714.429	1118.41667
1717.37	1126.75
1720.309	1099.08333
1723.246	1117.75
1726.181	1083.41667
1729.113	1090.41667
1732.044	1088.08333
1734.972	1057.75
1737.899	1065.08333
1740.823	1064.08333
1743.745	1070.75
1746.665	1024.41667
1749.583	1009.08333
1752.499	994.41667
1755.413	993.41667
1758.325	960.75
1761.235	962.08333
1764.142	930.75
1767.048	914.75
1769.951	926.75
1772.852	925.41667
1775.752	950.08333
1778.649	968.41667
1781.544	938.41667
1784.437	901.41667
1787.328	907.75
1790.217	894.08333
1793.104	871.75
1795.989	882.41667
1798.872	861.75
1801.753	883.08333
1804.631	866.08333
1807.508	876.41667
1810.383	859.08333
1813.255	852.75
1816.126	862.75
1818.994	860.41667
1821.861	856.75
1824.725	850.75
1827.587	855.75
1830.448	832.41667
1833.306	816.41667
1836.162	837.41667
1839.017	814.75
1841.869	817.75
1844.719	811.75
1847.567	795.75
1850.414	792.08333
1853.258	791.75
1856.1	812.08333
1858.94	803.75
1861.778	799.08333
1864.614	791.08333
1867.448	777.41667
1870.28	779.41667
1873.111	810.08333
1875.939	791.08333
1878.765	800.08333
1881.589	781.08333
1884.411	791.75
1887.231	785.41667
1890.049	784.41667
1892.865	782.75
1895.68	773.41667
1898.492	783.41667
1901.302	773.75
1904.11	772.75
1906.916	761.75
1909.721	751.08333
1912.523	754.75
1915.323	741.75
1918.122	751.08333
1920.918	758.41667
1923.712	742.75
1926.505	743.08333
1929.295	732.41667
1932.084	744.75
1934.87	747.75
1937.655	725.75
1940.438	719.75
1943.218	740.75
1945.997	727.41667
1948.774	738.75
1951.549	740.41667
1954.322	716.08333
1957.093	723.41667
1959.862	718.08333
1962.629	708.75
1965.394	707.41667
1968.157	707.75
1970.918	700.08333
1973.678	695.08333
1976.435	718.08333
1979.19	705.08333
1981.944	689.75
1984.696	688.41667
1987.445	677.75
1990.193	689.08333
1992.939	714.41667
1995.683	676.08333
1998.425	670.41667
2001.165	705.41667
2003.903	670.41667
2006.639	669.08333
2009.374	681.41667
2012.106	685.08333
2014.837	662.41667
2017.566	677.75
2020.292	680.41667
2023.017	675.41667
2025.74	672.41667
2028.461	668.41667
2031.18	664.08333
2033.898	662.41667
2036.613	659.08333
2039.327	668.08333
2042.038	650.75
2044.748	645.75
2047.456	659.08333
2050.162	648.08333
2052.866	645.41667
2055.568	657.75
2058.268	644.75
2060.967	646.75
2063.663	629.75
2066.358	637.41667
2069.051	632.75
2071.742	645.08333
2074.431	646.08333
2077.118	648.75
2079.804	618.08333
2082.487	646.08333
2085.169	647.75
2087.849	662.41667
2090.527	631.08333
2093.203	633.08333
2095.877	640.75
2098.55	647.08333
2101.22	651.08333
2103.889	647.75
2106.556	652.75
2109.221	680.08333
2111.884	675.41667
2114.546	723.08333
2117.205	746.75
2119.863	814.41667
2122.519	839.41667
2125.173	872.41667
2127.825	926.08333
2130.475	927.41667
2133.124	886.41667
2135.771	850.41667
2138.416	827.41667
2141.059	770.41667
2143.7	749.75
2146.339	718.75
2148.977	670.41667
2151.613	689.08333
2154.247	651.75
2156.879	641.08333
2159.51	620.41667
2162.138	618.75
2164.765	628.75
2167.39	600.08333
2170.013	619.41667
2172.634	606.75
2175.254	598.75
2177.872	618.08333
2180.488	588.41667
2183.102	598.75
2185.714	588.41667
2188.325	569.41667
2190.934	574.75
2193.541	580.08333
2196.146	566.75
2198.75	560.08333
2201.351	554.41667
2203.951	553.75
2206.549	564.75
2209.146	552.41667
2211.74	548.41667
2214.333	548.75
2216.924	540.08333
2219.514	556.75
2222.101	540.41667
2224.687	560.08333
2227.271	541.41667
2229.853	529.75
2232.433	519.75
2235.012	548.08333
2237.589	543.08333
2240.164	549.41667
2242.738	531.41667
2245.309	521.41667
2247.879	537.75
2250.448	530.75
2253.014	509.41667
2255.579	502.75
2258.142	505.75
2260.703	499.41667
2263.262	501.41667
2265.82	506.75
2268.376	499.75
2270.93	495.08333
2273.483	484.08333
2276.033	494.08333
2278.583	490.08333
2281.13	486.75
2283.675	476.41667
2286.219	482.08333
2288.761	483.75
2291.302	491.08333
2293.841	493.75
2296.377	469.75
2298.913	476.75
2301.446	491.41667
2303.978	479.75
2306.508	477.08333
2309.037	474.41667
2311.563	469.41667
2314.088	483.08333
2316.612	462.75
2319.133	476.41667
2321.653	479.41667
2324.171	456.08333
2326.688	477.41667
2329.202	460.08333
2331.715	459.08333
2334.227	460.75
2336.736	464.75
2339.244	454.41667
2341.751	452.08333
2344.255	465.41667
2346.758	457.08333
2349.259	449.41667
2351.759	461.08333
2354.257	444.08333
2356.753	439.41667
2359.247	452.41667
2361.74	456.41667
2364.231	456.75
2366.721	461.41667
2369.209	445.41667
2371.695	440.08333
2374.179	445.41667
2376.662	437.08333
2379.143	451.08333
2381.622	436.75
2384.1	462.08333
2386.576	447.08333
2389.051	454.75
2391.524	458.75
2393.995	447.75
2396.464	445.41667
2398.932	436.75
2401.398	437.75
2403.863	432.08333
2406.325	444.08333
2408.787	443.08333
2411.246	433.08333
2413.704	427.41667
2416.16	422.41667
2418.615	432.75
2421.068	449.41667
2423.519	437.75
2425.969	424.41667
2428.417	433.75
2430.863	452.41667
2433.308	446.41667
2435.751	437.75
2438.193	429.75
2440.633	429.75
2443.071	442.08333
2445.508	426.75
2447.943	442.41667
2450.376	419.75
2452.808	422.41667
2455.238	421.75
2457.667	459.75
2460.093	420.08333
2462.519	414.41667
2464.942	419.08333
2467.365	421.41667
2469.785	432.08333
2472.204	428.75
2474.621	424.41667
2477.037	431.08333
2479.451	415.75
2481.863	399.41667
2484.274	416.41667
2486.683	425.08333
2489.091	416.08333
2491.497	424.41667
2493.901	419.41667
2496.304	414.75
2498.705	422.08333
2501.105	415.75
2503.503	432.08333
2505.899	402.41667
2508.294	422.08333
2510.687	417.08333
2513.079	412.08333
2515.469	411.41667
2517.858	416.75
2520.245	418.41667
2522.63	411.08333
2525.014	404.41667
2527.396	412.08333
2529.776	397.75
2532.156	411.75
2534.533	405.08333
2536.909	403.75
2539.283	392.08333
2541.656	401.75
2544.027	426.08333
2546.397	404.75
2548.765	403.75
2551.131	401.08333
2553.496	400.08333
2555.86	411.08333
2558.221	403.75
2560.582	394.75
2562.94	390.75
2565.298	408.41667
2567.653	425.41667
2570.007	393.41667
2572.36	412.75
2574.711	394.75
2577.06	421.75
2579.408	409.41667
2581.754	404.75
2584.099	404.41667
2586.442	400.41667
2588.784	403.08333
2591.124	405.41667
2593.463	413.75
2595.8	410.41667
2598.135	391.08333
2600.469	401.41667
2602.802	414.41667
2605.133	423.08333
2607.462	396.41667
2609.79	389.41667
2612.116	414.75
2614.441	411.08333
2616.764	403.75
2619.086	400.08333
2621.406	392.41667
2623.725	421.41667
2626.042	407.75
2628.358	401.41667
2630.672	400.08333
2632.985	414.41667
2635.296	407.08333
2637.606	406.41667
2639.914	407.41667
2642.22	407.75
2644.525	407.75
2646.829	421.75
2649.131	424.41667
2651.432	418.41667
2653.731	414.75
2656.028	421.75
2658.324	424.08333
2660.619	408.08333
2662.912	420.08333
2665.204	400.08333
2667.494	419.41667
2669.782	403.75
2672.07	423.41667
2674.355	423.75
2676.639	417.08333
2678.922	408.75
2681.203	416.75
2683.483	411.41667
2685.761	410.75
2688.038	426.41667
2690.313	427.08333
2692.587	422.75
2694.859	421.41667
2697.13	420.08333
2699.399	425.75
2701.667	437.41667
2703.933	433.75
2706.198	440.41667
2708.461	445.41667
2710.723	444.41667
2712.984	443.08333
2715.243	444.08333
2717.5	436.08333
2719.757	453.75
2722.011	453.41667
2724.264	452.41667
2726.516	474.08333
2728.766	448.08333
2731.015	455.08333
2733.262	462.75
2735.508	451.08333
2737.753	458.41667
2739.996	444.75
2742.237	441.75
2744.477	450.41667
2746.716	454.75
2748.953	444.75
2751.189	451.08333
2753.423	445.41667
2755.656	436.41667
2757.887	423.75
2760.117	436.75
2762.346	419.75
2764.573	421.08333
2766.798	428.08333
2769.022	433.41667
2771.245	444.08333
2773.467	441.41667
2775.686	449.75
2777.905	446.75
2780.122	451.08333
2782.337	449.75
2784.552	452.08333
2786.764	450.41667
2788.976	451.08333
2791.186	460.08333
2793.394	459.75
2795.601	472.08333
2797.807	483.08333
2800.011	485.08333
2802.214	489.08333
2804.415	487.75
2806.615	481.41667
2808.814	485.41667
2811.011	501.08333
2813.206	486.75
2815.401	510.41667
2817.594	511.41667
2819.785	525.41667
2821.975	518.08333
2824.164	520.41667
2826.351	533.08333
2828.537	551.41667
2830.722	557.08333
2832.905	558.41667
2835.086	583.75
2837.267	607.08333
2839.445	613.75
2841.623	641.41667
2843.799	655.75
2845.974	682.08333
2848.147	709.75
2850.319	721.08333
2852.489	765.75
2854.659	767.75
2856.826	773.75
2858.993	798.41667
2861.158	775.75
2863.321	784.41667
2865.483	810.41667
2867.644	805.08333
2869.804	794.75
2871.962	800.08333
2874.118	802.75
2876.274	818.75
2878.428	807.41667
2880.58	804.75
2882.731	778.08333
2884.881	789.08333
2887.03	800.08333
2889.177	784.08333
2891.322	821.08333
2893.467	808.41667
2895.61	798.08333
2897.751	818.75
2899.892	799.41667
2902.03	813.41667
2904.168	813.08333
2906.304	823.41667
2908.439	850.75
2910.572	823.08333
2912.704	836.75
2914.835	828.08333
2916.965	831.75
2919.093	843.41667
2921.219	826.75
2923.345	844.08333
2925.469	809.75
2927.591	808.08333
2929.712	792.41667
2931.832	787.08333
2933.951	760.75
2936.068	773.75
2938.184	753.41667
2940.299	725.41667
2942.412	719.75
2944.524	678.41667
2946.634	686.08333
2948.744	629.75
2950.851	674.08333
2952.958	618.41667
2955.063	624.08333
2957.167	608.75
2959.269	584.08333
2961.371	624.75
2963.471	576.08333
2965.569	580.08333
2967.666	556.08333
2969.762	548.41667
2971.857	538.41667
2973.95	515.41667
2976.042	512.41667
2978.133	506.08333
2980.222	495.08333
2982.31	479.08333
2984.396	472.08333
2986.482	474.08333
2988.566	467.08333
2990.648	469.41667
2992.73	459.08333
2994.81	450.41667
2996.889	448.08333
2998.966	461.75
3001.042	470.41667
3003.117	458.75
3005.191	443.41667
3007.263	451.08333
3009.334	437.75
3011.403	445.41667
3013.472	425.41667
3015.539	435.08333
3017.604	438.41667
3019.669	406.41667
3021.732	412.41667
3023.794	411.75
3025.854	407.75
3027.914	403.41667
3029.971	408.08333
3032.028	394.41667
3034.083	405.75
3036.137	397.08333
3038.19	389.08333
3040.242	365.75
3042.292	379.08333
3044.341	370.41667
3046.388	384.41667
3048.435	360.08333
3050.48	371.75
3052.524	367.08333
3054.566	350.75
3056.607	364.08333
3058.647	353.75
3060.686	331.75
3062.723	325.41667
3064.759	318.41667
3066.794	0.41667
3068.828	2.08333
3070.86	3.41667
