-0.839	487.08333
3.438	588.08333
7.711	168.41667
11.981	64.08333
16.247	45.41667
20.509	51.41667
24.768	44.41667
29.024	56.75
33.276	44.08333
37.524	52.75
41.769	50.08333
46.01	33.08333
50.247	46.08333
54.481	62.08333
58.712	60.41667
62.939	50.08333
67.162	65.41667
71.382	58.41667
75.599	48.08333
79.812	63.08333
84.021	76.75
88.227	61.41667
92.429	63.41667
96.628	55.41667
100.823	73.08333
105.015	78.41667
109.204	76.75
113.388	77.41667
117.57	79.08333
121.748	90.08333
125.922	85.41667
130.093	103.75
134.261	110.08333
138.425	106.75
142.585	148.41667
146.742	139.41667
150.896	181.75
155.046	232.75
159.193	370.75
163.336	658.75
167.476	1194.75
171.613	2171.08333
175.746	3564.41667
179.875	5118.75
184.002	6583.75
188.124	7549.75
192.244	7829.75
196.36	7658.08333
200.472	7329.75
204.581	7111.08333
208.687	6887.41667
212.79	6759.75
216.889	6681.08333
220.984	6646.08333
225.077	6667.41667
229.165	6643.08333
233.251	6615.08333
237.333	6551.41667
241.412	6454.75
245.487	6397.08333
249.559	6332.75
253.628	6269.75
257.694	6200.75
261.756	6177.41667
265.814	6031.08333
269.87	5838.75
273.922	5644.08333
277.97	5467.75
282.016	5395.41667
286.058	5387.41667
290.097	5442.41667
294.132	5559.41667
298.164	5495.41667
302.193	5280.75
306.219	4940.41667
310.241	4533.41667
314.26	4199.75
318.276	3883.08333
322.288	3729.08333
326.297	3535.41667
330.303	3405.08333
334.305	3330.08333
338.305	3266.08333
342.301	3230.41667
346.294	3215.41667
350.283	3169.75
354.269	3167.41667
358.252	3112.08333
362.232	3096.41667
366.209	3091.08333
370.182	3048.08333
374.152	3035.75
378.119	3059.08333
382.083	3022.75
386.043	3038.41667
390	3045.75
393.954	3073.75
397.905	3061.75
401.852	3057.75
405.797	2973.08333
409.738	3092.75
413.676	3166.41667
417.61	3226.75
421.542	3008.08333
425.47	2851.08333
429.396	2854.41667
433.318	2830.41667
437.236	2821.08333
441.152	2845.75
445.065	2796.41667
448.974	2778.75
452.88	2762.75
456.783	2728.08333
460.683	2714.08333
464.58	2730.41667
468.473	2721.08333
472.364	2721.41667
476.251	2741.41667
480.135	2748.75
484.016	2769.41667
487.894	2800.08333
491.769	2809.41667
495.641	2803.08333
499.509	2794.08333
503.375	2801.08333
507.237	2816.08333
511.096	2787.41667
514.952	2799.75
518.805	2827.41667
522.655	2827.08333
526.502	2799.75
530.346	2794.41667
534.187	2829.41667
538.024	2821.41667
541.859	2818.08333
545.69	2856.08333
549.519	2844.75
553.344	2834.75
557.166	2774.41667
560.985	2750.41667
564.802	2694.08333
568.615	2648.41667
572.425	2605.41667
576.232	2613.75
580.036	2604.75
583.836	2599.41667
587.634	2637.08333
591.429	2639.08333
595.221	2675.75
599.01	2706.08333
602.796	2720.08333
606.578	2758.41667
610.358	2760.08333
614.135	2732.41667
617.909	2724.08333
621.679	2685.41667
625.447	2654.41667
629.212	2667.41667
632.973	2685.08333
636.732	2718.41667
640.488	2713.75
644.241	2661.08333
647.991	2632.41667
651.737	2655.75
655.481	2624.08333
659.222	2619.08333
662.96	2629.75
666.695	2640.08333
670.427	2661.41667
674.156	2694.41667
677.882	2679.41667
681.605	2662.41667
685.325	2634.75
689.043	2630.41667
692.757	2604.08333
696.468	2610.41667
700.177	2592.08333
703.882	2588.41667
707.585	2563.75
711.284	2565.75
714.981	2587.41667
718.675	2559.08333
722.366	2583.08333
726.054	2551.75
729.739	2576.75
733.421	2582.75
737.1	2579.41667
740.777	2595.75
744.45	2608.75
748.121	2632.41667
751.789	2646.41667
755.453	2671.75
759.115	2690.08333
762.774	2674.41667
766.431	2730.75
770.084	2737.75
773.734	2757.08333
777.382	2819.75
781.027	2842.08333
784.669	2847.08333
788.308	2839.41667
791.944	2885.08333
795.577	2879.41667
799.208	2908.08333
802.835	2938.41667
806.46	2945.41667
810.082	2964.75
813.701	2962.75
817.317	3005.75
820.931	3001.08333
824.542	3012.08333
828.149	2951.41667
831.754	2933.41667
835.357	2931.41667
838.956	2966.41667
842.553	2982.41667
846.146	3006.08333
849.737	2926.75
853.326	2897.75
856.911	2913.75
860.493	2966.41667
864.073	3032.08333
867.65	3159.08333
871.225	3174.41667
874.796	3056.08333
878.365	3021.75
881.931	3064.75
885.494	3060.41667
889.054	3057.08333
892.612	3091.75
896.166	3055.41667
899.719	3024.08333
903.268	3004.75
906.814	2982.75
910.358	2982.75
913.899	2943.41667
917.438	2955.08333
920.973	2926.75
924.506	2973.75
928.036	3040.08333
931.564	3061.75
935.088	3087.75
938.61	3101.08333
942.129	3134.08333
945.646	3204.08333
949.16	3260.08333
952.671	3295.75
956.179	3311.08333
959.685	3272.08333
963.188	3284.41667
966.688	3233.41667
970.185	3129.08333
973.68	3064.08333
977.173	3015.41667
980.662	2945.08333
984.149	2962.75
987.633	2919.75
991.114	2994.08333
994.593	3034.75
998.069	3119.08333
1001.542	3214.75
1005.013	3197.08333
1008.481	3011.08333
1011.947	2946.75
1015.409	2946.08333
1018.869	2930.75
1022.327	2923.41667
1025.782	2918.41667
1029.234	2891.08333
1032.683	2842.41667
1036.13	2749.08333
1039.574	2677.41667
1043.016	2592.08333
1046.455	2556.41667
1049.891	2548.08333
1053.325	2561.08333
1056.756	2533.75
1060.184	2566.75
1063.61	2561.08333
1067.033	2573.41667
1070.454	2574.41667
1073.872	2623.75
1077.287	2620.08333
1080.7	2609.08333
1084.11	2604.75
1087.517	2566.08333
1090.922	2545.41667
1094.325	2530.08333
1097.724	2506.41667
1101.122	2510.41667
1104.516	2518.75
1107.908	2501.75
1111.298	2561.41667
1114.684	2596.75
1118.069	2620.08333
1121.45	2660.41667
1124.83	2645.75
1128.206	2683.75
1131.58	2741.41667
1134.951	2813.75
1138.32	2917.75
1141.687	3034.08333
1145.05	3126.75
1148.412	3139.08333
1151.77	3120.08333
1155.126	3102.75
1158.48	3099.41667
1161.831	3109.41667
1165.18	3133.41667
1168.525	3186.41667
1171.869	3218.08333
1175.21	3240.41667
1178.548	3254.08333
1181.884	3291.41667
1185.217	3320.41667
1188.548	3387.41667
1191.877	3449.75
1195.202	3555.08333
1198.526	3593.41667
1201.846	3603.08333
1205.165	3585.75
1208.48	3572.41667
1211.794	3556.08333
1215.104	3543.08333
1218.413	3543.08333
1221.719	3497.08333
1225.022	3467.41667
1228.323	3422.75
1231.621	3374.75
1234.917	3321.75
1238.21	3374.08333
1241.501	3360.08333
1244.79	3347.75
1248.076	3327.75
1251.359	3356.08333
1254.64	3431.08333
1257.919	3456.75
1261.195	3513.08333
1264.468	3583.41667
1267.74	3623.41667
1271.008	3629.41667
1274.275	3640.75
1277.538	3595.41667
1280.8	3593.41667
1284.059	3605.41667
1287.315	3650.75
1290.569	3663.75
1293.821	3689.75
1297.07	3697.75
1300.317	3693.75
1303.562	3720.41667
1306.803	3666.75
1310.043	3682.41667
1313.28	3628.41667
1316.515	3553.41667
1319.747	3556.41667
1322.977	3515.75
1326.204	3487.75
1329.429	3420.75
1332.652	3409.41667
1335.872	3392.41667
1339.09	3349.41667
1342.306	3306.08333
1345.519	3294.75
1348.729	3276.41667
1351.938	3253.41667
1355.144	3226.41667
1358.347	3157.41667
1361.548	3154.08333
1364.747	3160.08333
1367.944	3102.75
1371.138	3122.08333
1374.329	3150.08333
1377.518	3159.08333
1380.705	3220.41667
1383.89	3179.41667
1387.072	3088.41667
1390.252	2956.75
1393.429	2863.08333
1396.605	2764.75
1399.777	2700.75
1402.948	2667.08333
1406.116	2639.08333
1409.282	2628.08333
1412.445	2624.41667
1415.606	2666.41667
1418.765	2689.08333
1421.921	2724.75
1425.075	2820.08333
1428.227	2877.08333
1431.376	3016.41667
1434.524	3110.41667
1437.668	3207.41667
1440.811	3221.41667
1443.951	3271.41667
1447.089	3269.08333
1450.224	3298.75
1453.357	3255.75
1456.488	3255.08333
1459.617	3185.41667
1462.743	3167.41667
1465.867	3092.41667
1468.989	3056.08333
1472.108	3012.08333
1475.225	2973.41667
1478.34	2942.08333
1481.453	2945.41667
1484.563	2939.08333
1487.671	2992.08333
1490.776	3049.41667
1493.88	3119.75
1496.981	3177.41667
1500.08	3208.08333
1503.176	3261.41667
1506.271	3327.08333
1509.363	3341.08333
1512.452	3391.08333
1515.54	3437.41667
1518.625	3490.08333
1521.708	3551.41667
1524.789	3653.08333
1527.867	3801.08333
1530.944	3970.41667
1534.018	4144.08333
1537.089	4276.08333
1540.159	4326.41667
1543.226	4322.08333
1546.291	4207.75
1549.354	4139.41667
1552.415	4055.75
1555.473	3953.08333
1558.529	3893.41667
1561.583	3877.75
1564.634	3863.08333
1567.684	3841.41667
1570.731	3901.08333
1573.776	3928.08333
1576.819	3980.41667
1579.859	4069.08333
1582.898	4114.41667
1585.934	4136.08333
1588.968	4159.08333
1591.999	4139.08333
1595.029	4135.08333
1598.056	4158.41667
1601.081	4143.41667
1604.104	4120.75
1607.125	4096.41667
1610.144	3992.75
1613.16	3887.41667
1616.174	3822.75
1619.186	3705.41667
1622.196	3599.75
1625.203	3514.41667
1628.209	3446.41667
1631.212	3362.08333
1634.213	3324.08333
1637.212	3286.41667
1640.209	3250.75
1643.203	3164.08333
1646.196	3062.41667
1649.186	2937.41667
1652.174	2823.41667
1655.16	2711.75
1658.144	2639.75
1661.125	2512.08333
1664.105	2422.41667
1667.082	2307.75
1670.057	2184.41667
1673.03	2053.08333
1676.001	1928.08333
1678.97	1823.41667
1681.937	1697.75
1684.901	1611.08333
1687.863	1556.75
1690.824	1471.41667
1693.782	1456.08333
1696.738	1389.08333
1699.692	1362.41667
1702.643	1347.08333
1705.593	1304.41667
1708.54	1279.08333
1711.486	1290.08333
1714.429	1253.75
1717.37	1266.08333
1720.309	1221.41667
1723.246	1233.08333
1726.181	1199.08333
1729.113	1213.41667
1732.044	1179.41667
1734.972	1177.08333
1737.899	1175.41667
1740.823	1186.75
1743.745	1174.41667
1746.665	1127.08333
1749.583	1095.08333
1752.499	1089.75
1755.413	1088.75
1758.325	1072.75
1761.235	1044.41667
1764.142	1045.08333
1767.048	1020.08333
1769.951	1029.08333
1772.852	1033.08333
1775.752	1082.75
1778.649	1125.75
1781.544	1051.08333
1784.437	977.75
1787.328	997.75
1790.217	973.08333
1793.104	967.75
1795.989	956.75
1798.872	944.08333
1801.753	963.08333
1804.631	952.08333
1807.508	959.75
1810.383	953.41667
1813.255	948.41667
1816.126	935.08333
1818.994	940.75
1821.861	924.08333
1824.725	922.08333
1827.587	915.08333
1830.448	927.41667
1833.306	898.75
1836.162	906.41667
1839.017	904.41667
1841.869	895.75
1844.719	883.75
1847.567	879.75
1850.414	867.08333
1853.258	881.75
1856.1	885.08333
1858.94	884.41667
1861.778	875.08333
1864.614	862.41667
1867.448	862.41667
1870.28	862.75
1873.111	858.41667
1875.939	868.75
1878.765	879.75
1881.589	858.08333
1884.411	865.75
1887.231	865.08333
1890.049	853.41667
1892.865	860.75
1895.68	851.75
1898.492	882.08333
1901.302	857.75
1904.11	845.08333
1906.916	834.08333
1909.721	819.08333
1912.523	822.75
1915.323	810.75
1918.122	812.75
1920.918	826.41667
1923.712	806.41667
1926.505	802.41667
1929.295	806.08333
1932.084	810.75
1934.87	805.41667
1937.655	797.08333
1940.438	800.08333
1943.218	790.41667
1945.997	802.41667
1948.774	808.75
1951.549	810.08333
1954.322	791.08333
1957.093	799.08333
1959.862	780.75
1962.629	778.41667
1965.394	793.08333
1968.157	776.08333
1970.918	773.75
1973.678	769.41667
1976.435	771.08333
1979.19	774.08333
1981.944	763.08333
1984.696	757.75
1987.445	744.41667
1990.193	753.75
1992.939	767.08333
1995.683	738.75
1998.425	739.41667
2001.165	757.41667
2003.903	738.75
2006.639	737.75
2009.374	741.08333
2012.106	745.41667
2014.837	734.75
2017.566	754.41667
2020.292	727.75
2023.017	739.75
2025.74	731.08333
2028.461	720.75
2031.18	724.75
2033.898	713.08333
2036.613	721.41667
2039.327	728.41667
2042.038	700.08333
2044.748	719.08333
2047.456	720.08333
2050.162	707.08333
2052.866	703.41667
2055.568	729.41667
2058.268	706.41667
2060.967	706.75
2063.663	696.41667
2066.358	691.75
2069.051	690.75
2071.742	702.75
2074.431	703.08333
2077.118	695.08333
2079.804	698.75
2082.487	699.08333
2085.169	707.08333
2087.849	714.41667
2090.527	684.08333
2093.203	700.75
2095.877	697.08333
2098.55	700.41667
2101.22	721.41667
2103.889	720.41667
2106.556	718.08333
2109.221	738.08333
2111.884	749.75
2114.546	787.08333
2117.205	821.41667
2119.863	892.75
2122.519	948.41667
2125.173	996.75
2127.825	1037.75
2130.475	1063.41667
2133.124	1014.08333
2135.771	965.75
2138.416	944.08333
2141.059	888.08333
2143.7	843.75
2146.339	804.08333
2148.977	761.75
2151.613	751.41667
2154.247	747.08333
2156.879	722.41667
2159.51	704.41667
2162.138	696.08333
2164.765	698.08333
2167.39	669.75
2170.013	690.41667
2172.634	670.08333
2175.254	674.75
2177.872	696.41667
2180.488	658.75
2183.102	666.41667
2185.714	647.08333
2188.325	628.41667
2190.934	653.41667
2193.541	638.75
2196.146	629.41667
2198.75	623.75
2201.351	634.41667
2203.951	615.41667
2206.549	629.75
2209.146	613.75
2211.74	616.41667
2214.333	614.41667
2216.924	604.75
2219.514	604.75
2222.101	602.41667
2224.687	621.41667
2227.271	595.75
2229.853	584.08333
2232.433	575.08333
2235.012	595.08333
2237.589	584.75
2240.164	606.08333
2242.738	594.08333
2245.309	568.41667
2247.879	577.41667
2250.448	578.41667
2253.014	570.75
2255.579	541.08333
2258.142	556.75
2260.703	556.75
2263.262	562.08333
2265.82	549.75
2268.376	545.75
2270.93	533.75
2273.483	528.75
2276.033	536.41667
2278.583	536.08333
2281.13	528.41667
2283.675	528.75
2286.219	529.08333
2288.761	521.08333
2291.302	527.08333
2293.841	540.08333
2296.377	510.75
2298.913	526.08333
2301.446	536.75
2303.978	514.08333
2306.508	509.75
2309.037	522.41667
2311.563	508.41667
2314.088	523.08333
2316.612	498.08333
2319.133	511.75
2321.653	520.75
2324.171	506.08333
2326.688	518.41667
2329.202	505.08333
2331.715	500.41667
2334.227	498.41667
2336.736	499.41667
2339.244	498.41667
2341.751	488.08333
2344.255	497.41667
2346.758	503.75
2349.259	480.75
2351.759	483.75
2354.257	479.08333
2356.753	477.08333
2359.247	482.41667
2361.74	487.41667
2364.231	482.75
2366.721	490.08333
2369.209	483.41667
2371.695	493.08333
2374.179	484.75
2376.662	476.75
2379.143	488.41667
2381.622	478.08333
2384.1	498.08333
2386.576	486.08333
2389.051	498.75
2391.524	490.08333
2393.995	488.08333
2396.464	479.08333
2398.932	476.41667
2401.398	474.41667
2403.863	475.41667
2406.325	468.08333
2408.787	482.08333
2411.246	467.08333
2413.704	471.75
2416.16	465.08333
2418.615	465.41667
2421.068	478.08333
2423.519	468.41667
2425.969	453.08333
2428.417	466.08333
2430.863	479.75
2433.308	469.75
2435.751	466.75
2438.193	476.08333
2440.633	465.75
2443.071	469.08333
2445.508	456.41667
2447.943	452.08333
2450.376	450.08333
2452.808	453.75
2455.238	453.41667
2457.667	486.75
2460.093	453.08333
2462.519	451.08333
2464.942	444.08333
2467.365	456.75
2469.785	464.08333
2472.204	456.41667
2474.621	441.75
2477.037	458.75
2479.451	434.41667
2481.863	431.08333
2484.274	442.75
2486.683	451.08333
2489.091	445.41667
2491.497	450.08333
2493.901	448.08333
2496.304	441.08333
2498.705	454.75
2501.105	447.08333
2503.503	464.08333
2505.899	428.75
2508.294	461.75
2510.687	447.41667
2513.079	446.41667
2515.469	428.75
2517.858	438.08333
2520.245	442.08333
2522.63	432.75
2525.014	429.08333
2527.396	427.08333
2529.776	418.08333
2532.156	439.41667
2534.533	422.08333
2536.909	423.08333
2539.283	420.41667
2541.656	426.41667
2544.027	440.08333
2546.397	427.41667
2548.765	424.41667
2551.131	433.41667
2553.496	435.08333
2555.86	444.08333
2558.221	443.08333
2560.582	421.08333
2562.94	420.08333
2565.298	417.75
2567.653	441.08333
2570.007	416.08333
2572.36	427.75
2574.711	419.75
2577.06	436.41667
2579.408	438.08333
2581.754	418.41667
2584.099	431.75
2586.442	420.75
2588.784	425.08333
2591.124	427.41667
2593.463	423.41667
2595.8	433.75
2598.135	421.41667
2600.469	416.75
2602.802	432.41667
2605.133	433.41667
2607.462	409.08333
2609.79	416.41667
2612.116	422.41667
2614.441	424.08333
2616.764	423.75
2619.086	427.75
2621.406	413.75
2623.725	431.75
2626.042	425.75
2628.358	411.41667
2630.672	421.41667
2632.985	437.08333
2635.296	429.75
2637.606	416.41667
2639.914	415.75
2642.22	413.41667
2644.525	434.08333
2646.829	435.08333
2649.131	443.41667
2651.432	444.41667
2653.731	430.75
2656.028	436.08333
2658.324	433.08333
2660.619	433.41667
2662.912	438.75
2665.204	429.08333
2667.494	437.75
2669.782	427.08333
2672.07	444.75
2674.355	434.08333
2676.639	442.75
2678.922	422.41667
2681.203	434.75
2683.483	424.75
2685.761	427.08333
2688.038	437.41667
2690.313	457.75
2692.587	444.41667
2694.859	436.41667
2697.13	442.41667
2699.399	452.41667
2701.667	459.08333
2703.933	447.41667
2706.198	449.08333
2708.461	459.08333
2710.723	452.75
2712.984	462.41667
2715.243	471.41667
2717.5	451.75
2719.757	472.08333
2722.011	462.08333
2724.264	471.08333
2726.516	488.41667
2728.766	466.75
2731.015	472.75
2733.262	473.75
2735.508	477.75
2737.753	473.08333
2739.996	459.75
2742.237	454.41667
2744.477	462.75
2746.716	460.75
2748.953	458.75
2751.189	461.08333
2753.423	454.08333
2755.656	446.75
2757.887	449.08333
2760.117	453.41667
2762.346	444.75
2764.573	437.08333
2766.798	444.41667
2769.022	452.75
2771.245	456.41667
2773.467	450.08333
2775.686	464.41667
2777.905	457.41667
2780.122	461.41667
2782.337	472.75
2784.552	468.08333
2786.764	473.08333
2788.976	474.75
2791.186	470.41667
2793.394	484.08333
2795.601	476.41667
2797.807	492.08333
2800.011	497.08333
2802.214	502.08333
2804.415	491.75
2806.615	511.41667
2808.814	500.08333
2811.011	508.41667
2813.206	515.41667
2815.401	533.41667
2817.594	533.08333
2819.785	548.08333
2821.975	529.08333
2824.164	539.41667
2826.351	553.75
2828.537	572.08333
2830.722	570.41667
2832.905	579.41667
2835.086	601.08333
2837.267	644.41667
2839.445	648.75
2841.623	658.41667
2843.799	683.08333
2845.974	728.41667
2848.147	756.08333
2850.319	777.75
2852.489	805.41667
2854.659	819.08333
2856.826	837.41667
2858.993	871.08333
2861.158	840.41667
2863.321	845.41667
2865.483	861.08333
2867.644	867.41667
2869.804	859.08333
2871.962	854.75
2874.118	880.08333
2876.274	901.75
2878.428	895.75
2880.58	868.08333
2882.731	864.41667
2884.881	856.75
2887.03	868.08333
2889.177	860.08333
2891.322	869.75
2893.467	860.41667
2895.61	868.08333
2897.751	884.75
2899.892	874.08333
2902.03	871.75
2904.168	879.41667
2906.304	890.08333
2908.439	915.41667
2910.572	904.75
2912.704	912.41667
2914.835	911.08333
2916.965	905.41667
2919.093	931.41667
2921.219	904.08333
2923.345	920.08333
2925.469	896.08333
2927.591	892.41667
2929.712	855.75
2931.832	860.75
2933.951	842.75
2936.068	832.75
2938.184	803.75
2940.299	788.75
2942.412	771.75
2944.524	734.41667
2946.634	730.75
2948.744	675.41667
2950.851	714.75
2952.958	660.75
2955.063	664.41667
2957.167	659.41667
2959.269	623.08333
2961.371	642.08333
2963.471	606.75
2965.569	610.41667
2967.666	582.41667
2969.762	576.08333
2971.857	570.08333
2973.95	539.08333
2976.042	551.75
2978.133	532.08333
2980.222	517.41667
2982.31	500.41667
2984.396	494.75
2986.482	493.08333
2988.566	486.75
2990.648	481.08333
2992.73	470.41667
2994.81	459.75
2996.889	470.08333
2998.966	470.75
3001.042	474.08333
3003.117	453.75
3005.191	462.41667
3007.263	457.75
3009.334	443.41667
3011.403	450.75
3013.472	431.08333
3015.539	437.75
3017.604	444.41667
3019.669	403.08333
3021.732	410.41667
3023.794	421.75
3025.854	409.41667
3027.914	406.41667
3029.971	413.08333
3032.028	413.08333
3034.083	403.08333
3036.137	399.75
3038.19	381.41667
3040.242	382.75
3042.292	372.08333
3044.341	369.08333
3046.388	386.41667
3048.435	358.75
3050.48	374.41667
3052.524	370.41667
3054.566	359.75
3056.607	358.08333
3058.647	348.75
3060.686	337.41667
3062.723	330.75
3064.759	320.08333
3066.794	1.41667
3068.828	2.41667
3070.86	1.75
