-0.839	469.625
3.438	539.625
7.711	166.95833
11.981	60.95833
16.247	43.95833
20.509	50.625
24.768	46.29167
29.024	58.625
33.276	43.95833
37.524	52.95833
41.769	49.29167
46.01	38.95833
50.247	50.625
54.481	60.625
58.712	65.625
62.939	54.625
67.162	65.29167
71.382	58.29167
75.599	46.95833
79.812	66.29167
84.021	84.29167
88.227	62.29167
92.429	62.625
96.628	59.625
100.823	75.95833
105.015	79.29167
109.204	71.95833
113.388	76.625
117.57	80.95833
121.748	94.625
125.922	83.625
130.093	104.625
134.261	106.95833
138.425	106.29167
142.585	150.95833
146.742	141.95833
150.896	190.95833
155.046	233.29167
159.193	379.29167
163.336	654.625
167.476	1229.95833
171.613	2224.625
175.746	3630.95833
179.875	5341.625
184.002	6835.95833
188.124	7815.625
192.244	8064.625
196.36	7952.95833
200.472	7647.29167
204.581	7385.95833
208.687	7124.625
212.79	6990.29167
216.889	6967.625
220.984	6951.625
225.077	6930.625
229.165	6892.625
233.251	6870.95833
237.333	6800.95833
241.412	6714.625
245.487	6628.95833
249.559	6531.29167
253.628	6450.625
257.694	6399.29167
261.756	6308.625
265.814	6221.95833
269.87	5983.625
273.922	5807.95833
277.97	5687.95833
282.016	5549.95833
286.058	5550.95833
290.097	5612.29167
294.132	5644.95833
298.164	5610.29167
302.193	5359.95833
306.219	5016.29167
310.241	4634.29167
314.26	4318.625
318.276	4066.95833
322.288	3835.95833
326.297	3701.625
330.303	3593.29167
334.305	3505.29167
338.305	3455.29167
342.301	3427.29167
346.294	3393.625
350.283	3373.625
354.269	3337.95833
358.252	3315.625
362.232	3290.95833
366.209	3269.95833
370.182	3225.29167
374.152	3214.95833
378.119	3233.29167
382.083	3240.95833
386.043	3221.625
390	3196.95833
393.954	3228.625
397.905	3192.625
401.852	3191.625
405.797	3163.625
409.738	3154.625
413.676	3173.29167
417.61	3182.29167
421.542	3126.95833
425.47	3077.95833
429.396	3095.95833
433.318	3064.29167
437.236	3041.29167
441.152	3054.29167
445.065	2986.95833
448.974	2985.95833
452.88	2985.625
456.783	2939.95833
460.683	2937.95833
464.58	2921.625
468.473	2940.95833
472.364	2963.29167
476.251	2957.95833
480.135	2984.625
484.016	3035.95833
487.894	3041.625
491.769	3060.95833
495.641	3043.625
499.509	3042.95833
503.375	3044.625
507.237	3038.95833
511.096	3030.95833
514.952	3079.95833
518.805	3098.95833
522.655	3133.29167
526.502	3075.625
530.346	3007.29167
534.187	3041.95833
538.024	3058.29167
541.859	3064.95833
545.69	3087.29167
549.519	3085.95833
553.344	3051.29167
557.166	3005.95833
560.985	2984.625
564.802	2949.95833
568.615	2884.95833
572.425	2885.95833
576.232	2851.29167
580.036	2844.29167
583.836	2857.625
587.634	2866.625
591.429	2852.95833
595.221	2905.95833
599.01	2924.95833
602.796	2968.625
606.578	2985.95833
610.358	2996.95833
614.135	2951.29167
617.909	2967.625
621.679	2910.29167
625.447	2899.625
629.212	2939.29167
632.973	2913.625
636.732	2900.29167
640.488	2911.95833
644.241	2879.29167
647.991	2885.29167
651.737	2927.29167
655.481	2876.95833
659.222	2905.625
662.96	2885.29167
666.695	2905.29167
670.427	2906.625
674.156	2951.95833
677.882	2894.625
681.605	2901.95833
685.325	2852.95833
689.043	2866.29167
692.757	2850.29167
696.468	2843.29167
700.177	2847.95833
703.882	2810.625
707.585	2801.625
711.284	2800.95833
714.981	2799.29167
718.675	2804.95833
722.366	2812.625
726.054	2777.29167
729.739	2809.625
733.421	2825.625
737.1	2806.95833
740.777	2831.29167
744.45	2856.29167
748.121	2837.29167
751.789	2909.29167
755.453	2902.95833
759.115	2914.95833
762.774	2939.95833
766.431	2944.625
770.084	2990.29167
773.734	3011.95833
777.382	3043.625
781.027	3064.625
784.669	3091.29167
788.308	3067.625
791.944	3127.95833
795.577	3131.29167
799.208	3159.625
802.835	3150.29167
806.46	3168.95833
810.082	3226.625
813.701	3224.95833
817.317	3244.625
820.931	3233.29167
824.542	3209.29167
828.149	3199.29167
831.754	3169.625
835.357	3168.29167
838.956	3159.625
842.553	3160.95833
846.146	3172.29167
849.737	3113.29167
853.326	3112.95833
856.911	3083.625
860.493	3143.29167
864.073	3178.625
867.65	3224.29167
871.225	3221.625
874.796	3254.95833
878.365	3255.29167
881.931	3278.95833
885.494	3304.625
889.054	3276.29167
892.612	3277.29167
896.166	3238.29167
899.719	3254.29167
903.268	3198.29167
906.814	3181.29167
910.358	3186.95833
913.899	3148.625
917.438	3160.95833
920.973	3121.95833
924.506	3202.29167
928.036	3228.625
931.564	3281.625
935.088	3306.625
938.61	3299.29167
942.129	3333.625
945.646	3398.29167
949.16	3463.625
952.671	3509.625
956.179	3514.625
959.685	3505.95833
963.188	3520.95833
966.688	3464.625
970.185	3388.625
973.68	3277.29167
977.173	3231.29167
980.662	3189.29167
984.149	3189.29167
987.633	3194.29167
991.114	3231.29167
994.593	3289.29167
998.069	3352.29167
1001.542	3455.625
1005.013	3384.625
1008.481	3221.95833
1011.947	3179.95833
1015.409	3168.625
1018.869	3150.29167
1022.327	3122.625
1025.782	3125.625
1029.234	3095.625
1032.683	3068.29167
1036.13	2938.95833
1039.574	2859.95833
1043.016	2780.625
1046.455	2736.625
1049.891	2724.95833
1053.325	2712.29167
1056.756	2742.625
1060.184	2755.29167
1063.61	2764.625
1067.033	2781.95833
1070.454	2769.29167
1073.872	2812.95833
1077.287	2783.29167
1080.7	2804.95833
1084.11	2816.625
1087.517	2773.95833
1090.922	2724.29167
1094.325	2691.29167
1097.724	2679.95833
1101.122	2689.29167
1104.516	2678.625
1107.908	2687.95833
1111.298	2722.95833
1114.684	2768.29167
1118.069	2784.29167
1121.45	2826.29167
1124.83	2832.95833
1128.206	2842.625
1131.58	2886.29167
1134.951	2947.625
1138.32	3052.625
1141.687	3168.29167
1145.05	3260.95833
1148.412	3233.95833
1151.77	3237.625
1155.126	3238.95833
1158.48	3215.625
1161.831	3245.625
1165.18	3236.625
1168.525	3300.625
1171.869	3345.29167
1175.21	3346.95833
1178.548	3396.95833
1181.884	3431.625
1185.217	3441.95833
1188.548	3537.95833
1191.877	3593.95833
1195.202	3720.625
1198.526	3737.95833
1201.846	3778.95833
1205.165	3753.625
1208.48	3765.95833
1211.794	3742.95833
1215.104	3724.95833
1218.413	3709.625
1221.719	3725.625
1225.022	3667.95833
1228.323	3621.95833
1231.621	3590.29167
1234.917	3554.95833
1238.21	3559.29167
1241.501	3545.29167
1244.79	3533.625
1248.076	3568.625
1251.359	3585.625
1254.64	3625.95833
1257.919	3657.29167
1261.195	3720.29167
1264.468	3768.95833
1267.74	3814.95833
1271.008	3845.95833
1274.275	3818.29167
1277.538	3803.625
1280.8	3787.95833
1284.059	3786.29167
1287.315	3837.29167
1290.569	3871.95833
1293.821	3870.95833
1297.07	3911.625
1300.317	3916.95833
1303.562	3904.95833
1306.803	3882.95833
1310.043	3844.95833
1313.28	3817.29167
1316.515	3787.29167
1319.747	3774.29167
1322.977	3726.29167
1326.204	3689.29167
1329.429	3617.95833
1332.652	3623.625
1335.872	3594.625
1339.09	3573.29167
1342.306	3553.625
1345.519	3509.95833
1348.729	3493.29167
1351.938	3497.625
1355.144	3447.95833
1358.347	3368.29167
1361.548	3370.625
1364.747	3364.95833
1367.944	3349.95833
1371.138	3355.625
1374.329	3358.29167
1377.518	3385.29167
1380.705	3399.625
1383.89	3386.29167
1387.072	3255.625
1390.252	3164.625
1393.429	3037.29167
1396.605	2963.625
1399.777	2867.29167
1402.948	2816.95833
1406.116	2819.95833
1409.282	2791.625
1412.445	2802.29167
1415.606	2826.625
1418.765	2869.625
1421.921	2927.625
1425.075	2989.29167
1428.227	3101.625
1431.376	3218.625
1434.524	3319.29167
1437.668	3419.95833
1440.811	3449.95833
1443.951	3445.29167
1447.089	3473.625
1450.224	3497.95833
1453.357	3492.95833
1456.488	3457.625
1459.617	3381.625
1462.743	3338.29167
1465.867	3294.29167
1468.989	3217.95833
1472.108	3184.625
1475.225	3147.625
1478.34	3098.625
1481.453	3098.29167
1484.563	3131.95833
1487.671	3164.95833
1490.776	3218.95833
1493.88	3258.625
1496.981	3306.625
1500.08	3356.95833
1503.176	3363.29167
1506.271	3477.625
1509.363	3491.29167
1512.452	3543.625
1515.54	3602.625
1518.625	3637.29167
1521.708	3723.29167
1524.789	3841.29167
1527.867	3956.95833
1530.944	4153.625
1534.018	4312.625
1537.089	4493.29167
1540.159	4560.95833
1543.226	4526.625
1546.291	4434.29167
1549.354	4319.29167
1552.415	4235.95833
1555.473	4141.29167
1558.529	4074.29167
1561.583	4040.29167
1564.634	4022.625
1567.684	4054.625
1570.731	4087.95833
1573.776	4110.29167
1576.819	4198.29167
1579.859	4244.95833
1582.898	4284.29167
1585.934	4323.625
1588.968	4333.625
1591.999	4326.95833
1595.029	4365.95833
1598.056	4346.625
1601.081	4381.29167
1604.104	4333.95833
1607.125	4335.625
1610.144	4219.625
1613.16	4158.625
1616.174	4018.29167
1619.186	3922.95833
1622.196	3833.95833
1625.203	3724.29167
1628.209	3677.29167
1631.212	3617.95833
1634.213	3611.625
1637.212	3611.95833
1640.209	3576.29167
1643.203	3493.625
1646.196	3358.29167
1649.186	3226.29167
1652.174	3112.625
1655.16	2992.95833
1658.144	2880.95833
1661.125	2753.29167
1664.105	2627.95833
1667.082	2518.29167
1670.057	2360.29167
1673.03	2216.625
1676.001	2089.95833
1678.97	1981.29167
1681.937	1853.29167
1684.901	1752.625
1687.863	1699.625
1690.824	1631.625
1693.782	1597.625
1696.738	1517.29167
1699.692	1510.95833
1702.643	1467.625
1705.593	1436.29167
1708.54	1430.95833
1711.486	1429.29167
1714.429	1369.625
1717.37	1371.625
1720.309	1361.625
1723.246	1351.625
1726.181	1330.625
1729.113	1323.95833
1732.044	1304.95833
1734.972	1290.29167
1737.899	1304.625
1740.823	1300.95833
1743.745	1299.95833
1746.665	1253.29167
1749.583	1220.625
1752.499	1195.95833
1755.413	1205.29167
1758.325	1165.95833
1761.235	1168.29167
1764.142	1158.625
1767.048	1144.625
1769.951	1136.95833
1772.852	1140.29167
1775.752	1130.95833
1778.649	1134.95833
1781.544	1141.29167
1784.437	1091.29167
1787.328	1114.625
1790.217	1087.625
1793.104	1080.625
1795.989	1055.29167
1798.872	1059.625
1801.753	1069.29167
1804.631	1074.29167
1807.508	1081.625
1810.383	1053.95833
1813.255	1054.29167
1816.126	1062.29167
1818.994	1058.29167
1821.861	1040.625
1824.725	1036.95833
1827.587	1033.95833
1830.448	1027.29167
1833.306	999.95833
1836.162	1014.29167
1839.017	1008.95833
1841.869	1011.29167
1844.719	1002.29167
1847.567	973.95833
1850.414	979.625
1853.258	976.95833
1856.1	998.95833
1858.94	986.95833
1861.778	981.95833
1864.614	983.29167
1867.448	973.95833
1870.28	966.625
1873.111	985.625
1875.939	973.95833
1878.765	1007.95833
1881.589	951.95833
1884.411	965.95833
1887.231	968.95833
1890.049	971.625
1892.865	957.29167
1895.68	953.625
1898.492	966.95833
1901.302	949.29167
1904.11	945.625
1906.916	927.95833
1909.721	916.625
1912.523	930.29167
1915.323	909.95833
1918.122	908.625
1920.918	910.29167
1923.712	912.29167
1926.505	897.625
1929.295	895.625
1932.084	921.625
1934.87	904.29167
1937.655	907.95833
1940.438	889.625
1943.218	903.95833
1945.997	910.95833
1948.774	913.625
1951.549	898.95833
1954.322	894.625
1957.093	892.625
1959.862	876.95833
1962.629	877.29167
1965.394	866.625
1968.157	873.95833
1970.918	864.29167
1973.678	847.29167
1976.435	869.625
1979.19	861.625
1981.944	843.29167
1984.696	853.29167
1987.445	841.29167
1990.193	840.625
1992.939	871.29167
1995.683	844.625
1998.425	832.29167
2001.165	859.29167
2003.903	834.95833
2006.639	829.625
2009.374	838.29167
2012.106	841.625
2014.837	813.95833
2017.566	836.95833
2020.292	831.29167
2023.017	825.29167
2025.74	834.95833
2028.461	810.625
2031.18	825.29167
2033.898	809.29167
2036.613	809.29167
2039.327	814.625
2042.038	796.29167
2044.748	800.625
2047.456	809.29167
2050.162	798.625
2052.866	789.625
2055.568	801.625
2058.268	785.95833
2060.967	794.95833
2063.663	783.95833
2066.358	773.29167
2069.051	787.29167
2071.742	789.95833
2074.431	790.625
2077.118	778.29167
2079.804	778.625
2082.487	790.95833
2085.169	783.625
2087.849	809.29167
2090.527	774.95833
2093.203	783.625
2095.877	801.625
2098.55	808.625
2101.22	807.95833
2103.889	804.95833
2106.556	811.625
2109.221	839.625
2111.884	848.625
2114.546	920.95833
2117.205	957.95833
2119.863	1032.625
2122.519	1094.29167
2125.173	1180.95833
2127.825	1215.29167
2130.475	1244.29167
2133.124	1201.95833
2135.771	1168.29167
2138.416	1120.625
2141.059	1044.29167
2143.7	993.29167
2146.339	946.625
2148.977	895.625
2151.613	876.625
2154.247	854.95833
2156.879	832.29167
2159.51	810.95833
2162.138	801.95833
2164.765	794.95833
2167.39	764.29167
2170.013	792.29167
2172.634	772.29167
2175.254	761.625
2177.872	779.95833
2180.488	728.95833
2183.102	750.95833
2185.714	731.95833
2188.325	723.625
2190.934	723.625
2193.541	725.29167
2196.146	715.29167
2198.75	699.29167
2201.351	698.29167
2203.951	682.95833
2206.549	720.29167
2209.146	691.625
2211.74	702.625
2214.333	683.625
2216.924	661.29167
2219.514	687.625
2222.101	666.29167
2224.687	683.625
2227.271	663.625
2229.853	662.95833
2232.433	645.29167
2235.012	671.95833
2237.589	660.29167
2240.164	674.29167
2242.738	656.625
2245.309	636.95833
2247.879	657.625
2250.448	652.625
2253.014	631.95833
2255.579	623.625
2258.142	630.29167
2260.703	615.95833
2263.262	617.29167
2265.82	611.625
2268.376	616.95833
2270.93	595.95833
2273.483	599.29167
2276.033	609.29167
2278.583	592.625
2281.13	597.625
2283.675	587.29167
2286.219	575.625
2288.761	582.95833
2291.302	601.29167
2293.841	600.625
2296.377	574.95833
2298.913	586.625
2301.446	592.95833
2303.978	585.95833
2306.508	582.29167
2309.037	574.29167
2311.563	576.29167
2314.088	579.95833
2316.612	550.625
2319.133	574.95833
2321.653	565.625
2324.171	557.625
2326.688	575.95833
2329.202	563.95833
2331.715	567.29167
2334.227	555.625
2336.736	557.29167
2339.244	552.29167
2341.751	536.29167
2344.255	554.95833
2346.758	555.95833
2349.259	540.29167
2351.759	540.625
2354.257	543.95833
2356.753	527.29167
2359.247	545.95833
2361.74	548.29167
2364.231	536.95833
2366.721	553.29167
2369.209	531.95833
2371.695	533.95833
2374.179	534.625
2376.662	518.29167
2379.143	544.29167
2381.622	527.625
2384.1	543.625
2386.576	529.95833
2389.051	546.625
2391.524	547.95833
2393.995	536.29167
2396.464	519.29167
2398.932	507.95833
2401.398	520.29167
2403.863	519.95833
2406.325	512.95833
2408.787	514.95833
2411.246	515.625
2413.704	514.625
2416.16	511.625
2418.615	507.625
2421.068	522.95833
2423.519	525.625
2425.969	512.625
2428.417	519.29167
2430.863	533.95833
2433.308	516.625
2435.751	513.95833
2438.193	508.95833
2440.633	499.625
2443.071	517.29167
2445.508	507.29167
2447.943	496.29167
2450.376	502.625
2452.808	492.625
2455.238	496.625
2457.667	532.625
2460.093	496.625
2462.519	488.625
2464.942	498.625
2467.365	499.29167
2469.785	508.95833
2472.204	501.29167
2474.621	492.29167
2477.037	507.95833
2479.451	479.29167
2481.863	476.625
2484.274	485.625
2486.683	495.625
2489.091	492.95833
2491.497	485.29167
2493.901	495.95833
2496.304	482.29167
2498.705	493.625
2501.105	483.95833
2503.503	506.29167
2505.899	474.29167
2508.294	504.29167
2510.687	477.95833
2513.079	485.95833
2515.469	480.625
2517.858	489.625
2520.245	492.29167
2522.63	471.29167
2525.014	468.625
2527.396	474.625
2529.776	458.625
2532.156	487.29167
2534.533	469.95833
2536.909	464.625
2539.283	458.625
2541.656	465.95833
2544.027	483.625
2546.397	459.625
2548.765	478.29167
2551.131	466.625
2553.496	465.625
2555.86	466.625
2558.221	466.625
2560.582	460.29167
2562.94	457.625
2565.298	471.29167
2567.653	475.29167
2570.007	456.95833
2572.36	475.29167
2574.711	455.95833
2577.06	484.95833
2579.408	474.29167
2581.754	460.95833
2584.099	469.625
2586.442	455.625
2588.784	471.29167
2591.124	462.625
2593.463	471.625
2595.8	462.625
2598.135	454.625
2600.469	452.95833
2602.802	462.29167
2605.133	477.29167
2607.462	450.625
2609.79	454.625
2612.116	463.95833
2614.441	462.625
2616.764	456.95833
2619.086	454.95833
2621.406	444.625
2623.725	465.95833
2626.042	465.29167
2628.358	444.625
2630.672	451.95833
2632.985	467.95833
2635.296	460.95833
2637.606	454.29167
2639.914	443.625
2642.22	449.95833
2644.525	462.95833
2646.829	456.29167
2649.131	470.29167
2651.432	468.95833
2653.731	457.625
2656.028	473.29167
2658.324	473.29167
2660.619	464.625
2662.912	480.95833
2665.204	453.29167
2667.494	468.29167
2669.782	460.29167
2672.07	473.625
2674.355	473.625
2676.639	462.95833
2678.922	455.625
2681.203	467.625
2683.483	457.95833
2685.761	461.29167
2688.038	469.625
2690.313	488.95833
2692.587	474.95833
2694.859	459.625
2697.13	469.29167
2699.399	482.95833
2701.667	486.625
2703.933	485.625
2706.198	493.29167
2708.461	496.29167
2710.723	499.95833
2712.984	489.95833
2715.243	498.29167
2717.5	493.625
2719.757	504.29167
2722.011	502.29167
2724.264	504.95833
2726.516	519.95833
2728.766	499.95833
2731.015	515.95833
2733.262	515.625
2735.508	504.625
2737.753	505.625
2739.996	490.625
2742.237	493.625
2744.477	502.29167
2746.716	493.95833
2748.953	489.29167
2751.189	497.95833
2753.423	473.625
2755.656	478.625
2757.887	480.29167
2760.117	476.95833
2762.346	476.625
2764.573	467.625
2766.798	482.29167
2769.022	474.29167
2771.245	487.95833
2773.467	491.95833
2775.686	481.625
2777.905	482.95833
2780.122	492.95833
2782.337	490.625
2784.552	494.95833
2786.764	503.625
2788.976	503.95833
2791.186	502.29167
2793.394	511.29167
2795.601	513.95833
2797.807	523.29167
2800.011	527.95833
2802.214	537.625
2804.415	538.29167
2806.615	533.29167
2808.814	554.625
2811.011	551.29167
2813.206	553.625
2815.401	568.95833
2817.594	571.29167
2819.785	587.625
2821.975	576.625
2824.164	579.625
2826.351	600.625
2828.537	610.625
2830.722	625.29167
2832.905	627.29167
2835.086	660.95833
2837.267	684.95833
2839.445	688.625
2841.623	731.625
2843.799	748.625
2845.974	776.95833
2848.147	810.625
2850.319	836.625
2852.489	871.625
2854.659	892.29167
2856.826	888.625
2858.993	929.95833
2861.158	908.625
2863.321	921.29167
2865.483	924.625
2867.644	926.625
2869.804	927.95833
2871.962	913.29167
2874.118	925.625
2876.274	938.95833
2878.428	938.29167
2880.58	922.625
2882.731	921.625
2884.881	914.95833
2887.03	908.625
2889.177	910.95833
2891.322	930.29167
2893.467	915.95833
2895.61	925.29167
2897.751	951.625
2899.892	933.29167
2902.03	947.29167
2904.168	948.625
2906.304	958.625
2908.439	985.95833
2910.572	975.625
2912.704	984.625
2914.835	975.625
2916.965	968.29167
2919.093	996.95833
2921.219	952.29167
2923.345	995.95833
2925.469	958.29167
2927.591	940.95833
2929.712	912.625
2931.832	915.29167
2933.951	908.29167
2936.068	876.29167
2938.184	875.95833
2940.299	830.29167
2942.412	823.29167
2944.524	776.625
2946.634	776.29167
2948.744	729.95833
2950.851	747.95833
2952.958	701.29167
2955.063	701.625
2957.167	693.625
2959.269	655.29167
2961.371	681.625
2963.471	636.95833
2965.569	648.29167
2967.666	607.29167
2969.762	613.29167
2971.857	592.29167
2973.95	570.625
2976.042	573.29167
2978.133	554.29167
2980.222	531.625
2982.31	516.29167
2984.396	504.625
2986.482	501.95833
2988.566	502.95833
2990.648	489.29167
2992.73	497.29167
2994.81	483.95833
2996.889	482.95833
2998.966	483.625
3001.042	480.95833
3003.117	472.95833
3005.191	473.29167
3007.263	459.625
3009.334	450.29167
3011.403	466.95833
3013.472	446.29167
3015.539	450.625
3017.604	458.95833
3019.669	407.625
3021.732	428.95833
3023.794	418.95833
3025.854	409.625
3027.914	411.95833
3029.971	425.625
3032.028	407.95833
3034.083	414.625
3036.137	405.95833
3038.19	397.29167
3040.242	381.95833
3042.292	371.95833
3044.341	369.29167
3046.388	382.29167
3048.435	359.95833
3050.48	379.29167
3052.524	370.625
3054.566	352.29167
3056.607	364.625
3058.647	362.625
3060.686	337.625
3062.723	328.95833
3064.759	321.95833
3066.794	-0.375
3068.828	5.625
3070.86	1.625
