-0.839	439.91667
3.438	520.91667
7.711	157.25
11.981	62.58333
16.247	46.25
20.509	48.25
24.768	46.25
29.024	52.91667
33.276	46.25
37.524	52.25
41.769	49.58333
46.01	36.58333
50.247	48.25
54.481	60.58333
58.712	61.58333
62.939	46.91667
67.162	63.91667
71.382	59.91667
75.599	46.58333
79.812	61.58333
84.021	81.58333
88.227	61.58333
92.429	63.25
96.628	52.58333
100.823	76.91667
105.015	80.91667
109.204	71.91667
113.388	79.25
117.57	78.25
121.748	90.25
125.922	87.25
130.093	106.58333
134.261	104.58333
138.425	106.91667
142.585	152.91667
146.742	148.58333
150.896	186.91667
155.046	239.91667
159.193	379.91667
163.336	667.91667
167.476	1218.25
171.613	2217.91667
175.746	3638.25
179.875	5343.58333
184.002	6879.25
188.124	7878.58333
192.244	8178.91667
196.36	8035.25
200.472	7710.91667
204.581	7483.91667
208.687	7243.25
212.79	7081.58333
216.889	7084.58333
220.984	7024.58333
225.077	7019.25
229.165	6982.58333
233.251	6975.91667
237.333	6935.58333
241.412	6845.91667
245.487	6743.25
249.559	6626.91667
253.628	6596.58333
257.694	6519.25
261.756	6455.25
265.814	6317.91667
269.87	6127.25
273.922	5913.91667
277.97	5806.58333
282.016	5691.91667
286.058	5644.25
290.097	5728.58333
294.132	5807.91667
298.164	5731.25
302.193	5498.58333
306.219	5158.25
310.241	4767.58333
314.26	4396.91667
318.276	4170.58333
322.288	3972.25
326.297	3802.58333
330.303	3716.91667
334.305	3638.25
338.305	3579.91667
342.301	3519.91667
346.294	3529.91667
350.283	3488.58333
354.269	3451.25
358.252	3428.58333
362.232	3443.58333
366.209	3386.58333
370.182	3366.25
374.152	3368.25
378.119	3376.25
382.083	3358.58333
386.043	3394.58333
390	3342.58333
393.954	3326.91667
397.905	3334.25
401.852	3355.25
405.797	3306.91667
409.738	3297.58333
413.676	3305.58333
417.61	3319.91667
421.542	3273.91667
425.47	3230.25
429.396	3203.91667
433.318	3208.25
437.236	3162.25
441.152	3203.58333
445.065	3148.58333
448.974	3146.25
452.88	3094.58333
456.783	3109.25
460.683	3090.58333
464.58	3097.91667
468.473	3088.91667
472.364	3117.58333
476.251	3106.25
480.135	3110.58333
484.016	3191.25
487.894	3189.25
491.769	3209.25
495.641	3197.25
499.509	3191.25
503.375	3184.91667
507.237	3164.58333
511.096	3193.91667
514.952	3237.58333
518.805	3263.91667
522.655	3282.58333
526.502	3238.58333
530.346	3181.25
534.187	3214.25
538.024	3190.25
541.859	3203.25
545.69	3254.91667
549.519	3213.58333
553.344	3206.58333
557.166	3143.25
560.985	3136.91667
564.802	3066.58333
568.615	3046.25
572.425	3011.91667
576.232	2990.25
580.036	2999.58333
583.836	2993.91667
587.634	3019.25
591.429	3015.58333
595.221	3069.25
599.01	3083.91667
602.796	3117.58333
606.578	3126.91667
610.358	3132.58333
614.135	3120.58333
617.909	3098.25
621.679	3071.91667
625.447	3058.91667
629.212	3085.58333
632.973	3082.25
636.732	3053.58333
640.488	3054.58333
644.241	3027.58333
647.991	3051.58333
651.737	3060.91667
655.481	3006.58333
659.222	3022.91667
662.96	3027.25
666.695	3049.25
670.427	3060.25
674.156	3072.91667
677.882	3047.91667
681.605	3037.25
685.325	3005.91667
689.043	3002.91667
692.757	2992.91667
696.468	2976.91667
700.177	2985.91667
703.882	2969.25
707.585	2979.91667
711.284	2930.25
714.981	2955.25
718.675	2937.25
722.366	2948.91667
726.054	2926.58333
729.739	2942.25
733.421	2959.91667
737.1	2934.91667
740.777	2972.25
744.45	2977.58333
748.121	3011.91667
751.789	3050.91667
755.453	3023.58333
759.115	3062.58333
762.774	3072.91667
766.431	3095.58333
770.084	3109.91667
773.734	3139.58333
777.382	3185.91667
781.027	3187.25
784.669	3198.25
788.308	3216.25
791.944	3249.58333
795.577	3249.91667
799.208	3289.91667
802.835	3283.58333
806.46	3331.91667
810.082	3338.25
813.701	3365.91667
817.317	3381.25
820.931	3376.25
824.542	3383.91667
828.149	3352.58333
831.754	3284.91667
835.357	3269.58333
838.956	3309.58333
842.553	3289.25
846.146	3263.91667
849.737	3204.58333
853.326	3225.91667
856.911	3213.91667
860.493	3260.91667
864.073	3284.25
867.65	3328.25
871.225	3365.58333
874.796	3343.58333
878.365	3375.25
881.931	3392.91667
885.494	3375.25
889.054	3388.58333
892.612	3407.25
896.166	3364.91667
899.719	3339.91667
903.268	3295.91667
906.814	3281.91667
910.358	3279.58333
913.899	3271.58333
917.438	3260.25
920.973	3242.58333
924.506	3305.58333
928.036	3347.58333
931.564	3404.91667
935.088	3423.25
938.61	3403.25
942.129	3438.91667
945.646	3503.58333
949.16	3590.91667
952.671	3613.25
956.179	3645.58333
959.685	3633.25
963.188	3626.58333
966.688	3592.25
970.185	3501.58333
973.68	3410.91667
977.173	3347.91667
980.662	3298.58333
984.149	3320.25
987.633	3301.58333
991.114	3350.25
994.593	3407.25
998.069	3477.58333
1001.542	3566.58333
1005.013	3491.58333
1008.481	3356.25
1011.947	3296.58333
1015.409	3251.58333
1018.869	3246.58333
1022.327	3223.58333
1025.782	3195.58333
1029.234	3211.91667
1032.683	3165.25
1036.13	3071.25
1039.574	2954.58333
1043.016	2877.91667
1046.455	2821.91667
1049.891	2805.91667
1053.325	2820.91667
1056.756	2829.91667
1060.184	2858.25
1063.61	2851.58333
1067.033	2882.25
1070.454	2868.58333
1073.872	2899.58333
1077.287	2899.91667
1080.7	2903.25
1084.11	2883.25
1087.517	2854.58333
1090.922	2810.25
1094.325	2801.25
1097.724	2781.91667
1101.122	2796.58333
1104.516	2764.91667
1107.908	2778.91667
1111.298	2827.58333
1114.684	2838.58333
1118.069	2860.91667
1121.45	2905.25
1124.83	2904.91667
1128.206	2913.91667
1131.58	2992.58333
1134.951	3041.91667
1138.32	3132.58333
1141.687	3229.91667
1145.05	3328.58333
1148.412	3326.58333
1151.77	3309.91667
1155.126	3299.91667
1158.48	3298.25
1161.831	3327.58333
1165.18	3345.58333
1168.525	3369.25
1171.869	3420.91667
1175.21	3428.25
1178.548	3478.25
1181.884	3497.25
1185.217	3527.25
1188.548	3610.91667
1191.877	3663.25
1195.202	3798.91667
1198.526	3851.25
1201.846	3859.25
1205.165	3856.58333
1208.48	3815.25
1211.794	3812.25
1215.104	3841.25
1218.413	3823.58333
1221.719	3811.58333
1225.022	3777.91667
1228.323	3692.58333
1231.621	3653.25
1234.917	3625.91667
1238.21	3653.91667
1241.501	3604.91667
1244.79	3629.25
1248.076	3655.25
1251.359	3659.58333
1254.64	3727.58333
1257.919	3762.58333
1261.195	3779.91667
1264.468	3841.58333
1267.74	3915.25
1271.008	3934.91667
1274.275	3909.25
1277.538	3871.25
1280.8	3865.91667
1284.059	3907.25
1287.315	3941.58333
1290.569	3952.25
1293.821	3945.91667
1297.07	3975.25
1300.317	3960.25
1303.562	3965.91667
1306.803	3952.25
1310.043	3928.58333
1313.28	3902.25
1316.515	3846.58333
1319.747	3845.25
1322.977	3823.25
1326.204	3764.25
1329.429	3726.58333
1332.652	3733.58333
1335.872	3695.58333
1339.09	3660.25
1342.306	3653.91667
1345.519	3635.58333
1348.729	3585.91667
1351.938	3599.58333
1355.144	3539.25
1358.347	3491.58333
1361.548	3476.58333
1364.747	3454.91667
1367.944	3432.25
1371.138	3456.91667
1374.329	3432.91667
1377.518	3452.25
1380.705	3482.25
1383.89	3430.91667
1387.072	3351.58333
1390.252	3210.25
1393.429	3125.58333
1396.605	3025.58333
1399.777	2945.25
1402.948	2904.91667
1406.116	2876.91667
1409.282	2892.58333
1412.445	2875.58333
1415.606	2890.25
1418.765	2952.58333
1421.921	3010.58333
1425.075	3080.91667
1428.227	3150.25
1431.376	3306.58333
1434.524	3379.25
1437.668	3467.58333
1440.811	3535.58333
1443.951	3530.91667
1447.089	3555.25
1450.224	3597.25
1453.357	3559.25
1456.488	3537.91667
1459.617	3491.91667
1462.743	3424.58333
1465.867	3343.91667
1468.989	3302.91667
1472.108	3274.91667
1475.225	3214.25
1478.34	3195.58333
1481.453	3181.25
1484.563	3165.91667
1487.671	3225.58333
1490.776	3252.91667
1493.88	3313.25
1496.981	3359.58333
1500.08	3432.91667
1503.176	3473.58333
1506.271	3514.25
1509.363	3577.91667
1512.452	3608.58333
1515.54	3649.58333
1518.625	3693.58333
1521.708	3779.25
1524.789	3875.25
1527.867	4050.58333
1530.944	4254.91667
1534.018	4409.25
1537.089	4552.91667
1540.159	4590.91667
1543.226	4572.91667
1546.291	4472.25
1549.354	4394.25
1552.415	4278.25
1555.473	4184.58333
1558.529	4113.25
1561.583	4072.91667
1564.634	4093.58333
1567.684	4091.25
1570.731	4106.25
1573.776	4172.91667
1576.819	4220.58333
1579.859	4296.58333
1582.898	4346.91667
1585.934	4391.58333
1588.968	4402.25
1591.999	4397.25
1595.029	4373.91667
1598.056	4413.58333
1601.081	4425.91667
1604.104	4386.58333
1607.125	4357.91667
1610.144	4294.58333
1613.16	4196.25
1616.174	4090.91667
1619.186	4002.91667
1622.196	3899.91667
1625.203	3799.91667
1628.209	3732.91667
1631.212	3707.91667
1634.213	3718.91667
1637.212	3711.58333
1640.209	3662.25
1643.203	3590.91667
1646.196	3504.25
1649.186	3303.91667
1652.174	3182.91667
1655.16	3092.58333
1658.144	2990.91667
1661.125	2833.91667
1664.105	2701.91667
1667.082	2563.25
1670.057	2444.25
1673.03	2298.25
1676.001	2164.25
1678.97	2022.91667
1681.937	1913.25
1684.901	1819.91667
1687.863	1744.25
1690.824	1661.25
1693.782	1665.91667
1696.738	1582.91667
1699.692	1531.91667
1702.643	1503.91667
1705.593	1481.25
1708.54	1472.91667
1711.486	1468.58333
1714.429	1435.25
1717.37	1425.25
1720.309	1401.58333
1723.246	1400.58333
1726.181	1392.25
1729.113	1360.25
1732.044	1365.58333
1734.972	1352.25
1737.899	1341.91667
1740.823	1343.58333
1743.745	1339.58333
1746.665	1281.25
1749.583	1274.91667
1752.499	1266.91667
1755.413	1245.25
1758.325	1231.25
1761.235	1210.25
1764.142	1190.58333
1767.048	1184.91667
1769.951	1185.58333
1772.852	1180.91667
1775.752	1183.58333
1778.649	1182.58333
1781.544	1172.25
1784.437	1135.91667
1787.328	1164.25
1790.217	1130.91667
1793.104	1106.91667
1795.989	1116.58333
1798.872	1105.91667
1801.753	1120.58333
1804.631	1083.91667
1807.508	1113.91667
1810.383	1111.58333
1813.255	1089.25
1816.126	1095.58333
1818.994	1082.91667
1821.861	1083.91667
1824.725	1087.91667
1827.587	1073.25
1830.448	1070.91667
1833.306	1049.58333
1836.162	1062.25
1839.017	1051.25
1841.869	1040.25
1844.719	1021.25
1847.567	1023.25
1850.414	1018.25
1853.258	1027.91667
1856.1	1038.91667
1858.94	1035.91667
1861.778	1025.91667
1864.614	1012.25
1867.448	1027.58333
1870.28	1007.91667
1873.111	1028.58333
1875.939	1009.25
1878.765	1031.25
1881.589	1014.58333
1884.411	1000.25
1887.231	1003.91667
1890.049	1005.58333
1892.865	999.25
1895.68	994.25
1898.492	999.58333
1901.302	985.25
1904.11	987.58333
1906.916	983.91667
1909.721	970.91667
1912.523	962.91667
1915.323	949.91667
1918.122	944.25
1920.918	962.58333
1923.712	946.58333
1926.505	942.25
1929.295	932.25
1932.084	951.58333
1934.87	938.25
1937.655	938.25
1940.438	935.58333
1943.218	931.25
1945.997	928.25
1948.774	943.91667
1951.549	945.91667
1954.322	931.25
1957.093	918.58333
1959.862	928.25
1962.629	915.25
1965.394	912.91667
1968.157	887.58333
1970.918	899.91667
1973.678	887.91667
1976.435	900.91667
1979.19	898.25
1981.944	893.25
1984.696	898.58333
1987.445	873.25
1990.193	880.25
1992.939	905.91667
1995.683	883.91667
1998.425	843.58333
2001.165	890.91667
2003.903	879.25
2006.639	858.91667
2009.374	875.25
2012.106	861.25
2014.837	846.25
2017.566	871.58333
2020.292	867.25
2023.017	859.25
2025.74	858.25
2028.461	841.58333
2031.18	843.25
2033.898	830.58333
2036.613	849.91667
2039.327	841.25
2042.038	838.58333
2044.748	839.58333
2047.456	848.25
2050.162	822.25
2052.866	822.25
2055.568	837.25
2058.268	827.25
2060.967	827.91667
2063.663	820.58333
2066.358	817.58333
2069.051	798.91667
2071.742	821.25
2074.431	817.91667
2077.118	807.58333
2079.804	800.25
2082.487	822.58333
2085.169	817.91667
2087.849	839.25
2090.527	814.91667
2093.203	812.91667
2095.877	831.91667
2098.55	822.91667
2101.22	840.25
2103.889	843.91667
2106.556	836.58333
2109.221	856.58333
2111.884	886.25
2114.546	932.91667
2117.205	976.91667
2119.863	1063.58333
2122.519	1120.91667
2125.173	1198.25
2127.825	1230.91667
2130.475	1274.91667
2133.124	1225.91667
2135.771	1177.25
2138.416	1149.25
2141.059	1063.25
2143.7	1022.58333
2146.339	968.58333
2148.977	907.91667
2151.613	893.91667
2154.247	876.25
2156.879	864.58333
2159.51	825.25
2162.138	814.25
2164.765	819.25
2167.39	797.25
2170.013	818.91667
2172.634	797.91667
2175.254	782.25
2177.872	805.25
2180.488	764.58333
2183.102	774.91667
2185.714	753.91667
2188.325	729.58333
2190.934	747.25
2193.541	746.91667
2196.146	735.91667
2198.75	727.58333
2201.351	727.91667
2203.951	714.58333
2206.549	733.91667
2209.146	708.91667
2211.74	712.58333
2214.333	713.91667
2216.924	682.91667
2219.514	705.25
2222.101	688.58333
2224.687	703.58333
2227.271	687.25
2229.853	684.25
2232.433	678.58333
2235.012	685.58333
2237.589	690.58333
2240.164	701.58333
2242.738	678.58333
2245.309	665.25
2247.879	673.25
2250.448	672.58333
2253.014	654.25
2255.579	643.58333
2258.142	640.25
2260.703	637.91667
2263.262	635.25
2265.82	635.58333
2268.376	632.91667
2270.93	614.25
2273.483	619.58333
2276.033	632.91667
2278.583	604.25
2281.13	620.58333
2283.675	612.25
2286.219	617.91667
2288.761	609.91667
2291.302	600.25
2293.841	611.58333
2296.377	596.91667
2298.913	601.91667
2301.446	616.58333
2303.978	598.25
2306.508	600.25
2309.037	594.25
2311.563	593.91667
2314.088	596.58333
2316.612	569.58333
2319.133	594.91667
2321.653	591.58333
2324.171	588.25
2326.688	583.58333
2329.202	576.58333
2331.715	572.91667
2334.227	579.25
2336.736	573.25
2339.244	569.58333
2341.751	560.25
2344.255	584.58333
2346.758	569.91667
2349.259	552.25
2351.759	563.25
2354.257	565.25
2356.753	549.91667
2359.247	561.25
2361.74	576.25
2364.231	561.91667
2366.721	566.25
2369.209	544.58333
2371.695	573.58333
2374.179	544.25
2376.662	536.58333
2379.143	563.25
2381.622	543.58333
2384.1	550.25
2386.576	544.25
2389.051	552.58333
2391.524	556.58333
2393.995	547.58333
2396.464	532.58333
2398.932	538.91667
2401.398	547.91667
2403.863	535.25
2406.325	523.58333
2408.787	535.91667
2411.246	538.91667
2413.704	531.25
2416.16	529.25
2418.615	531.58333
2421.068	532.91667
2423.519	534.91667
2425.969	514.25
2428.417	531.91667
2430.863	538.58333
2433.308	531.25
2435.751	536.91667
2438.193	532.58333
2440.633	524.91667
2443.071	530.91667
2445.508	510.91667
2447.943	517.58333
2450.376	517.25
2452.808	515.91667
2455.238	513.25
2457.667	538.58333
2460.093	515.58333
2462.519	505.25
2464.942	500.25
2467.365	518.58333
2469.785	525.91667
2472.204	514.25
2474.621	499.91667
2477.037	525.91667
2479.451	491.58333
2481.863	493.25
2484.274	503.25
2486.683	504.58333
2489.091	508.91667
2491.497	504.91667
2493.901	511.58333
2496.304	499.25
2498.705	508.91667
2501.105	497.91667
2503.503	535.25
2505.899	487.25
2508.294	514.25
2510.687	501.91667
2513.079	491.91667
2515.469	490.25
2517.858	500.58333
2520.245	493.58333
2522.63	496.58333
2525.014	476.58333
2527.396	480.91667
2529.776	480.91667
2532.156	492.25
2534.533	488.91667
2536.909	485.91667
2539.283	467.91667
2541.656	484.58333
2544.027	498.25
2546.397	478.25
2548.765	483.58333
2551.131	486.91667
2553.496	479.25
2555.86	481.25
2558.221	480.91667
2560.582	476.91667
2562.94	468.91667
2565.298	476.91667
2567.653	495.91667
2570.007	464.25
2572.36	474.91667
2574.711	463.91667
2577.06	481.91667
2579.408	480.25
2581.754	467.25
2584.099	476.25
2586.442	465.58333
2588.784	479.91667
2591.124	472.58333
2593.463	481.58333
2595.8	476.58333
2598.135	460.58333
2600.469	469.91667
2602.802	481.25
2605.133	483.25
2607.462	458.58333
2609.79	457.58333
2612.116	475.58333
2614.441	467.91667
2616.764	476.58333
2619.086	466.91667
2621.406	453.91667
2623.725	481.91667
2626.042	467.25
2628.358	462.91667
2630.672	464.25
2632.985	486.58333
2635.296	474.25
2637.606	463.25
2639.914	466.58333
2642.22	461.25
2644.525	463.25
2646.829	475.58333
2649.131	483.91667
2651.432	480.25
2653.731	469.91667
2656.028	480.91667
2658.324	483.91667
2660.619	470.91667
2662.912	476.25
2665.204	459.91667
2667.494	489.25
2669.782	478.91667
2672.07	479.58333
2674.355	486.25
2676.639	482.25
2678.922	468.91667
2681.203	469.58333
2683.483	477.25
2685.761	473.25
2688.038	481.58333
2690.313	491.25
2692.587	479.25
2694.859	474.58333
2697.13	476.58333
2699.399	488.25
2701.667	495.91667
2703.933	501.25
2706.198	492.25
2708.461	507.25
2710.723	507.25
2712.984	508.58333
2715.243	502.25
2717.5	492.58333
2719.757	520.25
2722.011	514.58333
2724.264	516.25
2726.516	528.58333
2728.766	510.25
2731.015	520.25
2733.262	518.58333
2735.508	507.25
2737.753	511.58333
2739.996	500.25
2742.237	504.58333
2744.477	515.25
2746.716	503.25
2748.953	500.25
2751.189	492.91667
2753.423	490.91667
2755.656	486.91667
2757.887	477.91667
2760.117	491.91667
2762.346	486.58333
2764.573	481.91667
2766.798	481.91667
2769.022	483.58333
2771.245	490.25
2773.467	489.58333
2775.686	495.58333
2777.905	493.91667
2780.122	498.91667
2782.337	513.58333
2784.552	501.91667
2786.764	504.25
2788.976	508.25
2791.186	512.58333
2793.394	522.91667
2795.601	526.25
2797.807	535.91667
2800.011	554.25
2802.214	535.25
2804.415	536.91667
2806.615	548.25
2808.814	555.58333
2811.011	550.25
2813.206	562.91667
2815.401	582.58333
2817.594	579.91667
2819.785	590.91667
2821.975	578.25
2824.164	592.58333
2826.351	604.25
2828.537	614.25
2830.722	621.58333
2832.905	626.25
2835.086	655.58333
2837.267	695.58333
2839.445	708.58333
2841.623	730.58333
2843.799	752.58333
2845.974	790.58333
2848.147	814.58333
2850.319	846.58333
2852.489	878.91667
2854.659	892.25
2856.826	914.58333
2858.993	939.91667
2861.158	922.91667
2863.321	917.25
2865.483	940.58333
2867.644	936.58333
2869.804	941.25
2871.962	937.25
2874.118	928.25
2876.274	938.91667
2878.428	953.25
2880.58	930.25
2882.731	917.25
2884.881	928.25
2887.03	923.25
2889.177	938.58333
2891.322	944.58333
2893.467	935.91667
2895.61	950.58333
2897.751	964.58333
2899.892	944.91667
2902.03	957.91667
2904.168	964.91667
2906.304	958.91667
2908.439	996.91667
2910.572	966.91667
2912.704	990.91667
2914.835	984.91667
2916.965	980.91667
2919.093	997.91667
2921.219	980.25
2923.345	985.25
2925.469	966.58333
2927.591	948.25
2929.712	940.25
2931.832	930.25
2933.951	892.25
2936.068	890.25
2938.184	863.58333
2940.299	847.91667
2942.412	823.58333
2944.524	791.25
2946.634	786.58333
2948.744	722.91667
2950.851	747.58333
2952.958	707.58333
2955.063	703.91667
2957.167	693.58333
2959.269	675.25
2961.371	679.25
2963.471	649.91667
2965.569	650.58333
2967.666	617.25
2969.762	603.91667
2971.857	593.58333
2973.95	580.58333
2976.042	570.91667
2978.133	553.91667
2980.222	545.91667
2982.31	526.91667
2984.396	515.91667
2986.482	506.58333
2988.566	511.58333
2990.648	493.25
2992.73	488.58333
2994.81	485.91667
2996.889	486.58333
2998.966	483.25
3001.042	481.91667
3003.117	485.25
3005.191	484.25
3007.263	480.58333
3009.334	464.25
3011.403	463.58333
3013.472	442.91667
3015.539	452.25
3017.604	455.91667
3019.669	419.58333
3021.732	430.58333
3023.794	427.91667
3025.854	421.58333
3027.914	417.91667
3029.971	430.25
3032.028	408.58333
3034.083	413.25
3036.137	415.91667
3038.19	396.91667
3040.242	392.58333
3042.292	378.25
3044.341	378.58333
3046.388	391.58333
3048.435	357.25
3050.48	383.91667
3052.524	362.91667
3054.566	359.25
3056.607	370.91667
3058.647	359.91667
3060.686	341.91667
3062.723	340.58333
3064.759	315.91667
3066.794	-0.75
3068.828	3.25
3070.86	1.58333
