-0.839	490.375
3.438	578.375
7.711	178.375
11.981	63.375
16.247	48.04167
20.509	50.375
24.768	44.375
29.024	55.70833
33.276	47.70833
37.524	53.04167
41.769	45.04167
46.01	39.375
50.247	47.375
54.481	57.70833
58.712	67.04167
62.939	49.04167
67.162	59.04167
71.382	57.70833
75.599	51.70833
79.812	64.70833
84.021	80.70833
88.227	60.70833
92.429	61.04167
96.628	56.70833
100.823	71.70833
105.015	78.70833
109.204	69.375
113.388	79.375
117.57	78.04167
121.748	92.70833
125.922	86.04167
130.093	110.375
134.261	105.04167
138.425	105.04167
142.585	147.04167
146.742	149.70833
150.896	178.04167
155.046	235.375
159.193	372.04167
163.336	663.04167
167.476	1224.375
171.613	2221.70833
175.746	3616.375
179.875	5189.375
184.002	6677.70833
188.124	7632.375
192.244	7917.04167
196.36	7727.375
200.472	7410.375
204.581	7114.70833
208.687	6870.04167
212.79	6708.04167
216.889	6655.375
220.984	6603.70833
225.077	6579.70833
229.165	6505.04167
233.251	6507.70833
237.333	6443.375
241.412	6372.04167
245.487	6288.04167
249.559	6185.70833
253.628	6153.70833
257.694	6102.375
261.756	6081.04167
265.814	5916.375
269.87	5705.70833
273.922	5517.04167
277.97	5335.04167
282.016	5313.04167
286.058	5264.04167
290.097	5365.375
294.132	5449.70833
298.164	5372.70833
302.193	5159.70833
306.219	4822.04167
310.241	4427.70833
314.26	4078.04167
318.276	3804.375
322.288	3618.70833
326.297	3444.375
330.303	3304.375
334.305	3218.70833
338.305	3187.375
342.301	3115.375
346.294	3100.70833
350.283	3064.375
354.269	3003.04167
358.252	3010.375
362.232	3028.375
366.209	2966.04167
370.182	2942.04167
374.152	2921.70833
378.119	2937.04167
382.083	2891.375
386.043	2916.375
390	2882.375
393.954	2922.375
397.905	2918.375
401.852	2938.04167
405.797	2846.70833
409.738	2941.70833
413.676	3010.04167
417.61	3090.70833
421.542	2885.04167
425.47	2736.04167
429.396	2715.70833
433.318	2714.04167
437.236	2698.04167
441.152	2716.375
445.065	2647.70833
448.974	2639.70833
452.88	2621.70833
456.783	2589.70833
460.683	2579.04167
464.58	2561.70833
468.473	2587.70833
472.364	2580.70833
476.251	2573.70833
480.135	2608.70833
484.016	2633.04167
487.894	2645.375
491.769	2661.70833
495.641	2640.70833
499.509	2645.04167
503.375	2644.375
507.237	2637.04167
511.096	2638.375
514.952	2665.70833
518.805	2676.375
522.655	2689.04167
526.502	2664.04167
530.346	2652.375
534.187	2668.04167
538.024	2665.04167
541.859	2702.70833
545.69	2725.70833
549.519	2709.70833
553.344	2694.70833
557.166	2661.04167
560.985	2623.04167
564.802	2560.04167
568.615	2539.04167
572.425	2504.375
576.232	2472.70833
580.036	2462.70833
583.836	2471.70833
587.634	2479.375
591.429	2478.375
595.221	2546.375
599.01	2582.70833
602.796	2622.70833
606.578	2602.70833
610.358	2622.04167
614.135	2574.70833
617.909	2568.375
621.679	2549.04167
625.447	2525.70833
629.212	2545.70833
632.973	2561.04167
636.732	2559.375
640.488	2572.04167
644.241	2523.04167
647.991	2494.70833
651.737	2529.70833
655.481	2479.375
659.222	2481.375
662.96	2489.04167
666.695	2513.70833
670.427	2534.04167
674.156	2540.04167
677.882	2541.375
681.605	2520.70833
685.325	2486.04167
689.043	2504.04167
692.757	2477.70833
696.468	2479.70833
700.177	2446.375
703.882	2427.04167
707.585	2430.04167
711.284	2428.04167
714.981	2434.70833
718.675	2435.375
722.366	2455.70833
726.054	2427.375
729.739	2451.70833
733.421	2443.04167
737.1	2435.70833
740.777	2455.375
744.45	2479.375
748.121	2493.04167
751.789	2534.375
755.453	2538.70833
759.115	2523.70833
762.774	2567.375
766.431	2584.04167
770.084	2607.375
773.734	2646.70833
777.382	2682.04167
781.027	2733.375
784.669	2735.70833
788.308	2721.375
791.944	2752.375
795.577	2756.375
799.208	2790.375
802.835	2790.375
806.46	2805.04167
810.082	2823.375
813.701	2820.375
817.317	2852.70833
820.931	2824.375
824.542	2859.375
828.149	2832.375
831.754	2805.04167
835.357	2797.375
838.956	2828.70833
842.553	2885.04167
846.146	2894.375
849.737	2822.04167
853.326	2764.70833
856.911	2798.375
860.493	2847.70833
864.073	2897.375
867.65	3010.04167
871.225	3039.70833
874.796	2945.375
878.365	2918.375
881.931	2944.70833
885.494	2958.04167
889.054	2970.04167
892.612	2996.04167
896.166	2941.375
899.719	2949.04167
903.268	2885.375
906.814	2882.375
910.358	2870.04167
913.899	2859.375
917.438	2815.04167
920.973	2846.375
924.506	2888.375
928.036	2917.04167
931.564	2949.04167
935.088	2970.70833
938.61	2999.04167
942.129	3038.375
945.646	3081.375
949.16	3149.375
952.671	3182.04167
956.179	3215.70833
959.685	3171.375
963.188	3167.70833
966.688	3124.04167
970.185	3027.375
973.68	2938.375
977.173	2907.375
980.662	2850.70833
984.149	2849.70833
987.633	2832.70833
991.114	2876.04167
994.593	2908.375
998.069	3032.375
1001.542	3132.375
1005.013	3066.04167
1008.481	2895.375
1011.947	2855.04167
1015.409	2863.04167
1018.869	2829.70833
1022.327	2835.375
1025.782	2807.04167
1029.234	2784.04167
1032.683	2743.04167
1036.13	2644.70833
1039.574	2550.375
1043.016	2496.375
1046.455	2455.375
1049.891	2421.375
1053.325	2441.04167
1056.756	2442.04167
1060.184	2472.04167
1063.61	2477.375
1067.033	2481.04167
1070.454	2472.04167
1073.872	2549.375
1077.287	2506.70833
1080.7	2513.04167
1084.11	2475.70833
1087.517	2494.04167
1090.922	2449.70833
1094.325	2437.04167
1097.724	2435.375
1101.122	2446.375
1104.516	2422.04167
1107.908	2416.375
1111.298	2469.04167
1114.684	2495.70833
1118.069	2553.04167
1121.45	2584.04167
1124.83	2576.04167
1128.206	2626.375
1131.58	2684.70833
1134.951	2761.375
1138.32	2848.375
1141.687	2970.70833
1145.05	3022.375
1148.412	3063.70833
1151.77	3049.04167
1155.126	3043.375
1158.48	3048.375
1161.831	3062.375
1165.18	3085.04167
1168.525	3117.375
1171.869	3151.375
1175.21	3186.70833
1178.548	3177.04167
1181.884	3215.375
1185.217	3259.375
1188.548	3328.70833
1191.877	3401.70833
1195.202	3457.70833
1198.526	3511.04167
1201.846	3535.70833
1205.165	3523.375
1208.48	3491.375
1211.794	3460.70833
1215.104	3475.375
1218.413	3443.375
1221.719	3430.375
1225.022	3389.04167
1228.323	3337.375
1231.621	3299.04167
1234.917	3265.70833
1238.21	3289.70833
1241.501	3263.70833
1244.79	3252.04167
1248.076	3260.04167
1251.359	3266.70833
1254.64	3354.04167
1257.919	3385.04167
1261.195	3458.04167
1264.468	3504.375
1267.74	3561.375
1271.008	3579.04167
1274.275	3567.70833
1277.538	3552.04167
1280.8	3554.375
1284.059	3538.04167
1287.315	3583.375
1290.569	3575.375
1293.821	3594.70833
1297.07	3609.375
1300.317	3650.70833
1303.562	3632.375
1306.803	3598.70833
1310.043	3571.375
1313.28	3532.375
1316.515	3506.70833
1319.747	3475.70833
1322.977	3434.04167
1326.204	3401.70833
1329.429	3330.70833
1332.652	3312.375
1335.872	3285.70833
1339.09	3246.375
1342.306	3238.70833
1345.519	3208.375
1348.729	3151.375
1351.938	3155.04167
1355.144	3113.375
1358.347	3077.70833
1361.548	3071.70833
1364.747	3052.375
1367.944	3038.04167
1371.138	3068.375
1374.329	3058.70833
1377.518	3096.70833
1380.705	3082.70833
1383.89	3100.375
1387.072	3007.04167
1390.252	2881.70833
1393.429	2779.04167
1396.605	2702.375
1399.777	2624.04167
1402.948	2607.70833
1406.116	2552.70833
1409.282	2554.04167
1412.445	2570.04167
1415.606	2569.375
1418.765	2619.04167
1421.921	2656.04167
1425.075	2724.375
1428.227	2816.04167
1431.376	2964.04167
1434.524	3037.04167
1437.668	3142.04167
1440.811	3154.04167
1443.951	3197.04167
1447.089	3191.375
1450.224	3230.70833
1453.357	3188.375
1456.488	3175.375
1459.617	3138.375
1462.743	3099.375
1465.867	3023.70833
1468.989	2973.375
1472.108	2955.70833
1475.225	2910.375
1478.34	2899.70833
1481.453	2887.04167
1484.563	2932.70833
1487.671	2961.375
1490.776	3011.04167
1493.88	3073.375
1496.981	3094.04167
1500.08	3158.70833
1503.176	3236.04167
1506.271	3277.70833
1509.363	3339.04167
1512.452	3353.70833
1515.54	3397.04167
1518.625	3454.70833
1521.708	3535.70833
1524.789	3630.04167
1527.867	3737.70833
1530.944	3935.70833
1534.018	4093.375
1537.089	4246.04167
1540.159	4269.375
1543.226	4255.70833
1546.291	4153.70833
1549.354	4091.375
1552.415	4032.375
1555.473	3919.04167
1558.529	3866.04167
1561.583	3839.375
1564.634	3842.70833
1567.684	3839.04167
1570.731	3863.70833
1573.776	3905.04167
1576.819	3955.375
1579.859	4038.375
1582.898	4075.04167
1585.934	4105.375
1588.968	4114.70833
1591.999	4113.375
1595.029	4095.04167
1598.056	4137.04167
1601.081	4104.70833
1604.104	4080.375
1607.125	4056.375
1610.144	3953.04167
1613.16	3879.70833
1616.174	3748.375
1619.186	3657.04167
1622.196	3562.70833
1625.203	3455.375
1628.209	3378.70833
1631.212	3303.70833
1634.213	3250.375
1637.212	3217.70833
1640.209	3158.375
1643.203	3049.04167
1646.196	2968.04167
1649.186	2846.04167
1652.174	2770.04167
1655.16	2654.375
1658.144	2566.04167
1661.125	2439.70833
1664.105	2317.04167
1667.082	2241.04167
1670.057	2118.375
1673.03	2001.375
1676.001	1874.375
1678.97	1763.04167
1681.937	1656.04167
1684.901	1570.375
1687.863	1506.70833
1690.824	1432.04167
1693.782	1418.70833
1696.738	1349.04167
1699.692	1319.375
1702.643	1279.70833
1705.593	1271.375
1708.54	1253.375
1711.486	1250.375
1714.429	1221.375
1717.37	1191.04167
1720.309	1171.375
1723.246	1186.70833
1726.181	1159.04167
1729.113	1171.375
1732.044	1140.375
1734.972	1126.04167
1737.899	1136.70833
1740.823	1137.375
1743.745	1125.70833
1746.665	1082.70833
1749.583	1058.375
1752.499	1031.70833
1755.413	1047.375
1758.325	1021.375
1761.235	1008.04167
1764.142	987.04167
1767.048	974.70833
1769.951	981.04167
1772.852	982.70833
1775.752	1044.375
1778.649	1091.04167
1781.544	1017.70833
1784.437	938.70833
1787.328	950.375
1790.217	942.04167
1793.104	899.375
1795.989	903.70833
1798.872	916.375
1801.753	913.375
1804.631	908.70833
1807.508	919.04167
1810.383	901.375
1813.255	907.70833
1816.126	894.04167
1818.994	892.375
1821.861	885.375
1824.725	880.375
1827.587	886.70833
1830.448	871.04167
1833.306	851.04167
1836.162	863.04167
1839.017	852.70833
1841.869	848.375
1844.719	847.375
1847.567	837.04167
1850.414	836.70833
1853.258	843.04167
1856.1	854.375
1858.94	838.70833
1861.778	841.375
1864.614	840.375
1867.448	839.70833
1870.28	814.375
1873.111	849.04167
1875.939	827.04167
1878.765	841.70833
1881.589	826.375
1884.411	827.70833
1887.231	813.70833
1890.049	823.375
1892.865	823.70833
1895.68	819.375
1898.492	850.04167
1901.302	819.375
1904.11	800.375
1906.916	780.04167
1909.721	782.04167
1912.523	788.04167
1915.323	789.04167
1918.122	778.70833
1920.918	783.04167
1923.712	778.375
1926.505	773.04167
1929.295	771.70833
1932.084	784.04167
1934.87	783.04167
1937.655	761.70833
1940.438	768.04167
1943.218	757.04167
1945.997	765.04167
1948.774	780.04167
1951.549	768.375
1954.322	772.04167
1957.093	757.04167
1959.862	753.70833
1962.629	732.04167
1965.394	744.70833
1968.157	744.70833
1970.918	725.04167
1973.678	731.70833
1976.435	748.04167
1979.19	736.04167
1981.944	715.375
1984.696	733.375
1987.445	711.04167
1990.193	736.375
1992.939	735.04167
1995.683	717.04167
1998.425	703.70833
2001.165	745.04167
2003.903	703.70833
2006.639	710.70833
2009.374	717.04167
2012.106	717.375
2014.837	695.70833
2017.566	702.04167
2020.292	715.375
2023.017	708.375
2025.74	702.70833
2028.461	701.04167
2031.18	708.04167
2033.898	686.70833
2036.613	693.04167
2039.327	701.70833
2042.038	698.70833
2044.748	690.375
2047.456	697.04167
2050.162	674.375
2052.866	668.375
2055.568	687.04167
2058.268	675.04167
2060.967	676.04167
2063.663	664.375
2066.358	668.04167
2069.051	659.70833
2071.742	681.04167
2074.431	675.04167
2077.118	669.375
2079.804	653.375
2082.487	668.375
2085.169	671.375
2087.849	699.04167
2090.527	657.70833
2093.203	668.04167
2095.877	681.04167
2098.55	683.375
2101.22	677.375
2103.889	690.375
2106.556	688.70833
2109.221	706.70833
2111.884	728.04167
2114.546	765.375
2117.205	813.375
2119.863	867.04167
2122.519	910.375
2125.173	984.04167
2127.825	1030.04167
2130.475	1050.375
2133.124	997.375
2135.771	962.04167
2138.416	937.04167
2141.059	856.375
2143.7	829.70833
2146.339	772.70833
2148.977	732.375
2151.613	736.375
2154.247	716.375
2156.879	694.70833
2159.51	687.04167
2162.138	674.70833
2164.765	667.04167
2167.39	653.375
2170.013	660.70833
2172.634	655.04167
2175.254	648.375
2177.872	676.04167
2180.488	630.04167
2183.102	640.70833
2185.714	629.04167
2188.325	615.04167
2190.934	632.04167
2193.541	624.375
2196.146	608.375
2198.75	604.04167
2201.351	600.04167
2203.951	605.70833
2206.549	613.04167
2209.146	598.375
2211.74	600.375
2214.333	592.375
2216.924	579.375
2219.514	586.04167
2222.101	589.04167
2224.687	596.04167
2227.271	571.375
2229.853	561.04167
2232.433	558.70833
2235.012	584.04167
2237.589	566.70833
2240.164	580.04167
2242.738	561.375
2245.309	553.70833
2247.879	564.04167
2250.448	562.04167
2253.014	546.375
2255.579	534.70833
2258.142	537.70833
2260.703	531.375
2263.262	538.04167
2265.82	527.70833
2268.376	532.375
2270.93	510.04167
2273.483	516.04167
2276.033	523.70833
2278.583	520.375
2281.13	516.04167
2283.675	520.04167
2286.219	507.04167
2288.761	514.375
2291.302	507.375
2293.841	511.70833
2296.377	493.04167
2298.913	508.70833
2301.446	506.375
2303.978	511.04167
2306.508	502.70833
2309.037	501.04167
2311.563	503.375
2314.088	500.04167
2316.612	485.04167
2319.133	492.04167
2321.653	494.70833
2324.171	487.04167
2326.688	501.70833
2329.202	480.375
2331.715	499.70833
2334.227	471.04167
2336.736	482.70833
2339.244	479.375
2341.751	463.70833
2344.255	482.375
2346.758	473.04167
2349.259	460.04167
2351.759	473.70833
2354.257	466.04167
2356.753	470.04167
2359.247	472.04167
2361.74	482.04167
2364.231	466.04167
2366.721	476.04167
2369.209	464.04167
2371.695	474.70833
2374.179	460.04167
2376.662	453.04167
2379.143	476.70833
2381.622	462.04167
2384.1	486.70833
2386.576	472.70833
2389.051	477.70833
2391.524	484.04167
2393.995	469.04167
2396.464	461.04167
2398.932	457.375
2401.398	460.375
2403.863	452.70833
2406.325	450.375
2408.787	466.04167
2411.246	463.70833
2413.704	446.04167
2416.16	449.70833
2418.615	451.70833
2421.068	462.375
2423.519	463.70833
2425.969	446.04167
2428.417	457.375
2430.863	472.375
2433.308	460.70833
2435.751	454.70833
2438.193	448.70833
2440.633	455.04167
2443.071	447.375
2445.508	445.375
2447.943	438.375
2450.376	443.70833
2452.808	442.04167
2455.238	436.70833
2457.667	473.04167
2460.093	430.375
2462.519	431.04167
2464.942	443.375
2467.365	446.04167
2469.785	454.375
2472.204	442.04167
2474.621	438.04167
2477.037	459.70833
2479.451	431.04167
2481.863	432.70833
2484.274	433.70833
2486.683	434.04167
2489.091	437.70833
2491.497	430.70833
2493.901	438.70833
2496.304	441.04167
2498.705	449.70833
2501.105	431.375
2503.503	458.375
2505.899	428.375
2508.294	447.70833
2510.687	424.70833
2513.079	433.375
2515.469	420.04167
2517.858	424.04167
2520.245	440.375
2522.63	428.375
2525.014	415.04167
2527.396	420.70833
2529.776	417.375
2532.156	440.04167
2534.533	415.04167
2536.909	414.70833
2539.283	406.70833
2541.656	413.375
2544.027	441.70833
2546.397	416.375
2548.765	407.04167
2551.131	422.70833
2553.496	419.70833
2555.86	422.04167
2558.221	419.04167
2560.582	429.375
2562.94	404.375
2565.298	411.70833
2567.653	438.04167
2570.007	412.04167
2572.36	419.375
2574.711	415.70833
2577.06	426.70833
2579.408	428.04167
2581.754	419.375
2584.099	427.70833
2586.442	412.04167
2588.784	424.70833
2591.124	417.375
2593.463	419.375
2595.8	420.375
2598.135	413.04167
2600.469	420.04167
2602.802	421.70833
2605.133	433.04167
2607.462	409.04167
2609.79	398.375
2612.116	421.375
2614.441	418.04167
2616.764	420.04167
2619.086	414.04167
2621.406	415.04167
2623.725	427.70833
2626.042	422.70833
2628.358	411.04167
2630.672	407.375
2632.985	438.70833
2635.296	422.04167
2637.606	416.70833
2639.914	420.375
2642.22	425.375
2644.525	426.70833
2646.829	425.04167
2649.131	431.70833
2651.432	438.375
2653.731	424.375
2656.028	436.70833
2658.324	440.70833
2660.619	422.70833
2662.912	430.70833
2665.204	420.375
2667.494	439.04167
2669.782	421.70833
2672.07	439.04167
2674.355	442.375
2676.639	431.04167
2678.922	419.375
2681.203	436.375
2683.483	422.70833
2685.761	427.04167
2688.038	436.70833
2690.313	446.04167
2692.587	431.375
2694.859	425.70833
2697.13	431.70833
2699.399	453.04167
2701.667	457.375
2703.933	450.04167
2706.198	449.70833
2708.461	461.375
2710.723	453.375
2712.984	452.375
2715.243	455.70833
2717.5	452.04167
2719.757	468.70833
2722.011	460.70833
2724.264	471.375
2726.516	478.375
2728.766	459.70833
2731.015	467.70833
2733.262	472.04167
2735.508	466.375
2737.753	464.375
2739.996	463.04167
2742.237	446.04167
2744.477	472.375
2746.716	473.04167
2748.953	461.70833
2751.189	464.70833
2753.423	443.70833
2755.656	440.04167
2757.887	441.70833
2760.117	453.375
2762.346	436.375
2764.573	438.70833
2766.798	442.04167
2769.022	455.70833
2771.245	451.375
2773.467	444.70833
2775.686	465.70833
2777.905	459.70833
2780.122	446.375
2782.337	463.375
2784.552	457.04167
2786.764	459.375
2788.976	471.375
2791.186	473.70833
2793.394	480.70833
2795.601	483.04167
2797.807	496.375
2800.011	506.04167
2802.214	496.04167
2804.415	500.375
2806.615	494.04167
2808.814	500.04167
2811.011	513.375
2813.206	509.375
2815.401	536.375
2817.594	525.04167
2819.785	542.70833
2821.975	532.70833
2824.164	540.04167
2826.351	548.70833
2828.537	566.70833
2830.722	573.375
2832.905	580.70833
2835.086	609.04167
2837.267	629.04167
2839.445	649.70833
2841.623	662.375
2843.799	687.04167
2845.974	726.375
2848.147	761.375
2850.319	783.70833
2852.489	807.375
2854.659	818.04167
2856.826	824.04167
2858.993	860.375
2861.158	833.04167
2863.321	841.04167
2865.483	863.375
2867.644	858.04167
2869.804	857.04167
2871.962	858.375
2874.118	861.375
2876.274	890.70833
2878.428	896.375
2880.58	880.70833
2882.731	853.70833
2884.881	871.70833
2887.03	867.70833
2889.177	861.375
2891.322	868.70833
2893.467	862.70833
2895.61	859.70833
2897.751	876.04167
2899.892	873.70833
2902.03	876.70833
2904.168	891.70833
2906.304	881.375
2908.439	910.70833
2910.572	892.70833
2912.704	901.70833
2914.835	907.375
2916.965	902.04167
2919.093	910.70833
2921.219	898.04167
2923.345	925.70833
2925.469	887.375
2927.591	891.04167
2929.712	867.375
2931.832	850.04167
2933.951	838.375
2936.068	824.70833
2938.184	801.70833
2940.299	781.375
2942.412	758.375
2944.524	732.70833
2946.634	739.375
2948.744	681.70833
2950.851	696.375
2952.958	666.375
2955.063	667.70833
2957.167	642.375
2959.269	624.70833
2961.371	645.70833
2963.471	615.375
2965.569	611.04167
2967.666	584.375
2969.762	584.04167
2971.857	562.375
2973.95	553.04167
2976.042	548.70833
2978.133	532.375
2980.222	517.04167
2982.31	502.70833
2984.396	482.70833
2986.482	492.375
2988.566	477.375
2990.648	481.375
2992.73	475.04167
2994.81	460.70833
2996.889	465.04167
2998.966	462.70833
3001.042	476.375
3003.117	463.04167
3005.191	467.70833
3007.263	463.04167
3009.334	446.375
3011.403	447.70833
3013.472	434.375
3015.539	439.04167
3017.604	444.04167
3019.669	412.04167
3021.732	413.375
3023.794	415.375
3025.854	412.375
3027.914	406.375
3029.971	407.04167
3032.028	401.04167
3034.083	409.375
3036.137	401.375
3038.19	376.375
3040.242	381.04167
3042.292	369.70833
3044.341	372.375
3046.388	388.04167
3048.435	359.04167
3050.48	369.70833
3052.524	364.375
3054.566	354.70833
3056.607	361.04167
3058.647	352.04167
3060.686	342.70833
3062.723	334.375
3064.759	315.04167
3066.794	-1.29167
3068.828	3.04167
3070.86	2.375
