-0.839	441.625
3.438	529.29167
7.711	156.625
11.981	59.625
16.247	42.625
20.509	46.625
24.768	46.625
29.024	55.95833
33.276	43.29167
37.524	52.29167
41.769	46.625
46.01	33.625
50.247	45.625
54.481	59.29167
58.712	61.29167
62.939	50.625
67.162	64.625
71.382	55.29167
75.599	48.625
79.812	60.95833
84.021	80.29167
88.227	59.625
92.429	60.95833
96.628	55.29167
100.823	70.625
105.015	78.95833
109.204	66.29167
113.388	75.95833
117.57	77.29167
121.748	89.29167
125.922	78.29167
130.093	92.95833
134.261	96.95833
138.425	94.95833
142.585	138.95833
146.742	127.29167
150.896	157.625
155.046	199.625
159.193	310.29167
163.336	523.95833
167.476	959.625
171.613	1749.625
175.746	2934.29167
179.875	4295.29167
184.002	5586.29167
188.124	6468.29167
192.244	6777.29167
196.36	6664.95833
200.472	6525.625
204.581	6360.29167
208.687	6193.95833
212.79	6142.95833
216.889	6140.625
220.984	6139.29167
225.077	6225.29167
229.165	6205.625
233.251	6202.29167
237.333	6153.95833
241.412	6120.95833
245.487	6048.95833
249.559	5959.625
253.628	5929.625
257.694	5868.95833
261.756	5858.29167
265.814	5735.95833
269.87	5558.625
273.922	5372.29167
277.97	5270.625
282.016	5187.95833
286.058	5217.95833
290.097	5301.95833
294.132	5373.625
298.164	5343.625
302.193	5105.95833
306.219	4747.625
310.241	4366.625
314.26	4008.625
318.276	3755.625
322.288	3600.625
326.297	3447.95833
330.303	3331.95833
334.305	3264.625
338.305	3224.625
342.301	3162.625
346.294	3160.29167
350.283	3133.95833
354.269	3148.625
358.252	3110.95833
362.232	3084.29167
366.209	3073.95833
370.182	3042.95833
374.152	3014.95833
378.119	3052.95833
382.083	3030.29167
386.043	3033.625
390	2996.625
393.954	3041.95833
397.905	3029.95833
401.852	3029.29167
405.797	2973.95833
409.738	2996.95833
413.676	3071.625
417.61	3100.29167
421.542	2979.29167
425.47	2887.95833
429.396	2895.29167
433.318	2872.29167
437.236	2862.29167
441.152	2908.95833
445.065	2851.29167
448.974	2844.625
452.88	2819.29167
456.783	2806.29167
460.683	2798.625
464.58	2797.625
468.473	2816.29167
472.364	2802.95833
476.251	2810.95833
480.135	2830.29167
484.016	2905.625
487.894	2893.29167
491.769	2881.29167
495.641	2894.95833
499.509	2908.625
503.375	2891.625
507.237	2876.625
511.096	2877.29167
514.952	2920.29167
518.805	2955.29167
522.655	2962.29167
526.502	2891.95833
530.346	2881.95833
534.187	2893.29167
538.024	2882.29167
541.859	2928.29167
545.69	2922.625
549.519	2912.29167
553.344	2866.29167
557.166	2823.29167
560.985	2809.29167
564.802	2756.29167
568.615	2705.625
572.425	2675.95833
576.232	2655.95833
580.036	2672.29167
583.836	2673.29167
587.634	2676.95833
591.429	2682.29167
595.221	2738.29167
599.01	2760.95833
602.796	2797.625
606.578	2819.95833
610.358	2808.625
614.135	2797.95833
617.909	2778.29167
621.679	2747.625
625.447	2730.625
629.212	2725.625
632.973	2738.625
636.732	2736.95833
640.488	2739.29167
644.241	2684.29167
647.991	2690.95833
651.737	2690.625
655.481	2691.625
659.222	2704.29167
662.96	2728.95833
666.695	2744.29167
670.427	2715.625
674.156	2760.29167
677.882	2743.29167
681.605	2724.95833
685.325	2698.625
689.043	2691.95833
692.757	2648.625
696.468	2646.95833
700.177	2655.95833
703.882	2627.29167
707.585	2630.95833
711.284	2593.29167
714.981	2599.29167
718.675	2617.625
722.366	2620.625
726.054	2598.625
729.739	2619.95833
733.421	2613.625
737.1	2627.95833
740.777	2646.95833
744.45	2643.95833
748.121	2664.29167
751.789	2704.95833
755.453	2693.29167
759.115	2722.29167
762.774	2721.625
766.431	2736.95833
770.084	2738.95833
773.734	2766.95833
777.382	2819.625
781.027	2816.29167
784.669	2839.95833
788.308	2848.95833
791.944	2862.29167
795.577	2880.29167
799.208	2939.625
802.835	2941.95833
806.46	2947.625
810.082	2959.95833
813.701	2980.625
817.317	3000.29167
820.931	3003.625
824.542	2995.29167
828.149	2940.29167
831.754	2912.29167
835.357	2899.29167
838.956	2901.29167
842.553	2897.625
846.146	2887.625
849.737	2851.625
853.326	2830.625
856.911	2842.95833
860.493	2854.29167
864.073	2898.95833
867.65	2955.29167
871.225	2971.625
874.796	2921.95833
878.365	2908.95833
881.931	2945.625
885.494	2957.95833
889.054	2966.625
892.612	2959.625
896.166	2929.95833
899.719	2940.29167
903.268	2848.29167
906.814	2865.29167
910.358	2834.29167
913.899	2814.625
917.438	2820.95833
920.973	2829.625
924.506	2857.95833
928.036	2899.95833
931.564	2956.625
935.088	3005.29167
938.61	3006.29167
942.129	3048.29167
945.646	3121.95833
949.16	3153.95833
952.671	3197.625
956.179	3180.95833
959.685	3204.29167
963.188	3214.625
966.688	3194.95833
970.185	3069.29167
973.68	2984.95833
977.173	2964.95833
980.662	2885.625
984.149	2895.95833
987.633	2872.29167
991.114	2931.95833
994.593	2948.29167
998.069	3049.29167
1001.542	3122.95833
1005.013	3067.625
1008.481	2902.29167
1011.947	2859.95833
1015.409	2842.95833
1018.869	2841.95833
1022.327	2813.95833
1025.782	2823.625
1029.234	2792.625
1032.683	2763.625
1036.13	2694.625
1039.574	2576.29167
1043.016	2526.625
1046.455	2469.625
1049.891	2448.95833
1053.325	2463.625
1056.756	2466.95833
1060.184	2492.95833
1063.61	2486.95833
1067.033	2518.29167
1070.454	2512.95833
1073.872	2545.95833
1077.287	2515.29167
1080.7	2546.625
1084.11	2527.95833
1087.517	2516.29167
1090.922	2454.625
1094.325	2450.29167
1097.724	2415.95833
1101.122	2397.625
1104.516	2409.625
1107.908	2420.95833
1111.298	2437.29167
1114.684	2466.95833
1118.069	2498.29167
1121.45	2525.29167
1124.83	2504.95833
1128.206	2523.625
1131.58	2579.95833
1134.951	2618.29167
1138.32	2678.29167
1141.687	2803.625
1145.05	2838.29167
1148.412	2806.29167
1151.77	2803.29167
1155.126	2818.95833
1158.48	2778.625
1161.831	2774.29167
1165.18	2808.29167
1168.525	2832.29167
1171.869	2885.95833
1175.21	2872.95833
1178.548	2920.625
1181.884	2936.29167
1185.217	2981.29167
1188.548	3082.625
1191.877	3117.625
1195.202	3202.625
1198.526	3315.625
1201.846	3310.29167
1205.165	3310.29167
1208.48	3275.29167
1211.794	3297.29167
1215.104	3327.29167
1218.413	3298.95833
1221.719	3274.95833
1225.022	3225.29167
1228.323	3170.625
1231.621	3146.625
1234.917	3135.29167
1238.21	3143.29167
1241.501	3126.29167
1244.79	3094.625
1248.076	3093.29167
1251.359	3125.95833
1254.64	3188.95833
1257.919	3206.29167
1261.195	3234.29167
1264.468	3289.95833
1267.74	3332.29167
1271.008	3333.625
1274.275	3343.29167
1277.538	3308.29167
1280.8	3319.625
1284.059	3329.625
1287.315	3370.29167
1290.569	3368.95833
1293.821	3405.29167
1297.07	3400.29167
1300.317	3432.95833
1303.562	3432.625
1306.803	3366.625
1310.043	3345.95833
1313.28	3354.29167
1316.515	3349.29167
1319.747	3307.29167
1322.977	3274.29167
1326.204	3242.95833
1329.429	3206.95833
1332.652	3195.29167
1335.872	3149.95833
1339.09	3109.29167
1342.306	3100.95833
1345.519	3093.625
1348.729	3070.95833
1351.938	3052.625
1355.144	3027.29167
1358.347	2993.29167
1361.548	2960.625
1364.747	2957.625
1367.944	2913.29167
1371.138	2912.95833
1374.329	2913.625
1377.518	2956.625
1380.705	2965.95833
1383.89	2927.29167
1387.072	2825.625
1390.252	2745.29167
1393.429	2643.625
1396.605	2559.95833
1399.777	2487.29167
1402.948	2472.625
1406.116	2439.625
1409.282	2443.625
1412.445	2450.625
1415.606	2487.625
1418.765	2505.29167
1421.921	2556.29167
1425.075	2595.29167
1428.227	2697.29167
1431.376	2803.95833
1434.524	2883.29167
1437.668	2971.29167
1440.811	3041.29167
1443.951	3033.29167
1447.089	3068.29167
1450.224	3051.95833
1453.357	3030.625
1456.488	2998.625
1459.617	2969.625
1462.743	2912.29167
1465.867	2852.95833
1468.989	2799.29167
1472.108	2762.625
1475.225	2693.95833
1478.34	2659.95833
1481.453	2656.625
1484.563	2677.95833
1487.671	2685.95833
1490.776	2707.625
1493.88	2771.95833
1496.981	2780.29167
1500.08	2845.625
1503.176	2870.95833
1506.271	2906.625
1509.363	2935.29167
1512.452	2975.29167
1515.54	3000.625
1518.625	3034.29167
1521.708	3100.29167
1524.789	3203.95833
1527.867	3278.95833
1530.944	3440.29167
1534.018	3590.29167
1537.089	3749.625
1540.159	3743.95833
1543.226	3756.625
1546.291	3677.95833
1549.354	3588.95833
1552.415	3501.95833
1555.473	3449.29167
1558.529	3381.29167
1561.583	3331.625
1564.634	3329.95833
1567.684	3318.29167
1570.731	3328.95833
1573.776	3385.95833
1576.819	3411.29167
1579.859	3488.29167
1582.898	3525.95833
1585.934	3532.625
1588.968	3563.95833
1591.999	3563.29167
1595.029	3587.29167
1598.056	3591.29167
1601.081	3614.29167
1604.104	3607.29167
1607.125	3572.625
1610.144	3517.625
1613.16	3412.95833
1616.174	3357.29167
1619.186	3284.29167
1622.196	3195.95833
1625.203	3116.625
1628.209	3094.625
1631.212	3056.95833
1634.213	3076.625
1637.212	3067.95833
1640.209	3071.95833
1643.203	3000.625
1646.196	2915.95833
1649.186	2764.29167
1652.174	2675.625
1655.16	2599.95833
1658.144	2531.95833
1661.125	2380.29167
1664.105	2298.95833
1667.082	2181.95833
1670.057	2083.625
1673.03	1953.625
1676.001	1826.625
1678.97	1712.95833
1681.937	1601.95833
1684.901	1534.95833
1687.863	1483.29167
1690.824	1401.29167
1693.782	1391.29167
1696.738	1324.95833
1699.692	1302.29167
1702.643	1264.625
1705.593	1253.95833
1708.54	1257.625
1711.486	1238.29167
1714.429	1198.29167
1717.37	1205.29167
1720.309	1169.29167
1723.246	1190.29167
1726.181	1152.29167
1729.113	1153.95833
1732.044	1133.95833
1734.972	1133.625
1737.899	1137.625
1740.823	1139.95833
1743.745	1147.95833
1746.665	1097.95833
1749.583	1071.625
1752.499	1051.625
1755.413	1051.95833
1758.325	1039.29167
1761.235	1028.625
1764.142	998.625
1767.048	1011.29167
1769.951	1001.29167
1772.852	995.95833
1775.752	1026.95833
1778.649	1034.625
1781.544	1010.95833
1784.437	960.95833
1787.328	977.29167
1790.217	953.625
1793.104	937.95833
1795.989	934.95833
1798.872	932.95833
1801.753	959.625
1804.631	942.95833
1807.508	951.95833
1810.383	938.29167
1813.255	925.625
1816.126	917.625
1818.994	920.625
1821.861	905.95833
1824.725	922.29167
1827.587	900.29167
1830.448	910.95833
1833.306	883.29167
1836.162	895.29167
1839.017	878.29167
1841.869	869.625
1844.719	881.625
1847.567	862.29167
1850.414	860.95833
1853.258	858.95833
1856.1	861.95833
1858.94	866.95833
1861.778	865.95833
1864.614	858.29167
1867.448	846.95833
1870.28	839.29167
1873.111	861.95833
1875.939	860.95833
1878.765	869.95833
1881.589	854.625
1884.411	847.95833
1887.231	849.625
1890.049	840.29167
1892.865	842.625
1895.68	842.29167
1898.492	847.95833
1901.302	829.95833
1904.11	826.625
1906.916	817.29167
1909.721	801.625
1912.523	805.625
1915.323	802.625
1918.122	794.29167
1920.918	818.95833
1923.712	797.95833
1926.505	798.625
1929.295	783.29167
1932.084	798.625
1934.87	788.95833
1937.655	791.29167
1940.438	789.29167
1943.218	782.29167
1945.997	795.29167
1948.774	797.29167
1951.549	795.95833
1954.322	780.95833
1957.093	778.95833
1959.862	777.29167
1962.629	772.95833
1965.394	779.29167
1968.157	756.95833
1970.918	759.625
1973.678	753.625
1976.435	768.29167
1979.19	753.29167
1981.944	747.29167
1984.696	747.29167
1987.445	725.29167
1990.193	739.29167
1992.939	749.95833
1995.683	733.29167
1998.425	725.29167
2001.165	748.95833
2003.903	729.29167
2006.639	725.625
2009.374	734.625
2012.106	728.625
2014.837	710.29167
2017.566	730.95833
2020.292	734.95833
2023.017	726.95833
2025.74	729.625
2028.461	702.95833
2031.18	722.625
2033.898	699.29167
2036.613	713.95833
2039.327	712.95833
2042.038	689.95833
2044.748	695.625
2047.456	708.625
2050.162	688.95833
2052.866	693.625
2055.568	707.95833
2058.268	693.29167
2060.967	700.625
2063.663	670.29167
2066.358	686.95833
2069.051	688.95833
2071.742	679.29167
2074.431	686.625
2077.118	674.625
2079.804	669.29167
2082.487	677.29167
2085.169	694.95833
2087.849	704.29167
2090.527	674.95833
2093.203	666.625
2095.877	696.625
2098.55	694.95833
2101.22	699.29167
2103.889	698.29167
2106.556	695.625
2109.221	702.95833
2111.884	713.29167
2114.546	761.95833
2117.205	796.29167
2119.863	852.29167
2122.519	863.29167
2125.173	919.625
2127.825	960.95833
2130.475	960.29167
2133.124	939.625
2135.771	889.625
2138.416	865.29167
2141.059	809.625
2143.7	783.625
2146.339	752.95833
2148.977	702.625
2151.613	716.625
2154.247	697.29167
2156.879	689.625
2159.51	663.95833
2162.138	655.625
2164.765	648.29167
2167.39	625.29167
2170.013	652.29167
2172.634	654.95833
2175.254	638.95833
2177.872	660.95833
2180.488	630.95833
2183.102	632.29167
2185.714	626.625
2188.325	606.625
2190.934	616.95833
2193.541	618.29167
2196.146	602.29167
2198.75	598.95833
2201.351	591.29167
2203.951	583.29167
2206.549	603.29167
2209.146	584.29167
2211.74	591.29167
2214.333	595.625
2216.924	577.29167
2219.514	571.95833
2222.101	571.95833
2224.687	590.95833
2227.271	567.29167
2229.853	558.29167
2232.433	547.29167
2235.012	568.95833
2237.589	580.625
2240.164	579.95833
2242.738	556.29167
2245.309	547.625
2247.879	560.95833
2250.448	565.625
2253.014	541.29167
2255.579	520.625
2258.142	539.625
2260.703	536.29167
2263.262	537.625
2265.82	535.625
2268.376	535.625
2270.93	514.29167
2273.483	509.95833
2276.033	522.625
2278.583	515.29167
2281.13	512.95833
2283.675	509.29167
2286.219	513.29167
2288.761	513.29167
2291.302	516.625
2293.841	522.29167
2296.377	500.625
2298.913	501.29167
2301.446	506.29167
2303.978	509.29167
2306.508	502.29167
2309.037	508.29167
2311.563	500.625
2314.088	502.95833
2316.612	486.625
2319.133	507.29167
2321.653	495.29167
2324.171	487.95833
2326.688	503.95833
2329.202	482.29167
2331.715	483.625
2334.227	480.29167
2336.736	486.29167
2339.244	475.29167
2341.751	465.95833
2344.255	491.29167
2346.758	470.95833
2349.259	462.95833
2351.759	474.95833
2354.257	470.625
2356.753	468.29167
2359.247	474.625
2361.74	474.95833
2364.231	480.95833
2366.721	486.95833
2369.209	474.625
2371.695	471.625
2374.179	461.95833
2376.662	454.29167
2379.143	473.29167
2381.622	456.29167
2384.1	471.29167
2386.576	467.95833
2389.051	474.29167
2391.524	479.625
2393.995	471.29167
2396.464	460.625
2398.932	459.95833
2401.398	454.29167
2403.863	455.29167
2406.325	448.625
2408.787	460.95833
2411.246	464.29167
2413.704	450.95833
2416.16	451.95833
2418.615	452.625
2421.068	463.29167
2423.519	460.29167
2425.969	449.625
2428.417	451.95833
2430.863	464.625
2433.308	456.95833
2435.751	455.95833
2438.193	448.625
2440.633	455.625
2443.071	446.95833
2445.508	436.625
2447.943	449.29167
2450.376	441.29167
2452.808	444.625
2455.238	439.29167
2457.667	480.29167
2460.093	443.95833
2462.519	426.95833
2464.942	444.95833
2467.365	437.625
2469.785	439.95833
2472.204	447.95833
2474.621	429.625
2477.037	442.29167
2479.451	414.95833
2481.863	422.625
2484.274	430.95833
2486.683	425.95833
2489.091	433.29167
2491.497	429.625
2493.901	437.95833
2496.304	436.625
2498.705	442.29167
2501.105	430.625
2503.503	458.29167
2505.899	408.95833
2508.294	439.625
2510.687	430.625
2513.079	427.29167
2515.469	426.95833
2517.858	425.625
2520.245	441.29167
2522.63	425.95833
2525.014	425.29167
2527.396	422.95833
2529.776	407.95833
2532.156	433.95833
2534.533	419.29167
2536.909	410.95833
2539.283	408.625
2541.656	425.95833
2544.027	431.625
2546.397	418.625
2548.765	419.625
2551.131	417.29167
2553.496	412.95833
2555.86	421.95833
2558.221	419.95833
2560.582	409.95833
2562.94	408.29167
2565.298	408.95833
2567.653	436.29167
2570.007	409.29167
2572.36	423.95833
2574.711	411.29167
2577.06	436.29167
2579.408	424.29167
2581.754	418.95833
2584.099	425.625
2586.442	407.625
2588.784	427.625
2591.124	416.625
2593.463	418.625
2595.8	424.95833
2598.135	408.95833
2600.469	413.625
2602.802	422.625
2605.133	422.95833
2607.462	414.29167
2609.79	399.95833
2612.116	422.95833
2614.441	414.95833
2616.764	414.29167
2619.086	423.95833
2621.406	409.95833
2623.725	422.29167
2626.042	421.95833
2628.358	411.29167
2630.672	406.625
2632.985	423.95833
2635.296	412.625
2637.606	414.95833
2639.914	406.29167
2642.22	415.625
2644.525	417.625
2646.829	430.29167
2649.131	427.625
2651.432	430.625
2653.731	425.29167
2656.028	435.625
2658.324	433.625
2660.619	427.95833
2662.912	427.95833
2665.204	411.95833
2667.494	434.29167
2669.782	421.95833
2672.07	428.95833
2674.355	438.29167
2676.639	435.95833
2678.922	422.95833
2681.203	432.95833
2683.483	418.625
2685.761	425.95833
2688.038	433.29167
2690.313	450.95833
2692.587	432.95833
2694.859	428.29167
2697.13	432.625
2699.399	441.95833
2701.667	447.29167
2703.933	446.625
2706.198	450.29167
2708.461	452.29167
2710.723	451.625
2712.984	448.625
2715.243	445.625
2717.5	440.625
2719.757	462.625
2722.011	442.95833
2724.264	462.29167
2726.516	465.625
2728.766	451.95833
2731.015	451.95833
2733.262	477.625
2735.508	465.29167
2737.753	453.625
2739.996	445.29167
2742.237	448.95833
2744.477	461.625
2746.716	463.95833
2748.953	453.95833
2751.189	457.29167
2753.423	449.29167
2755.656	435.29167
2757.887	436.625
2760.117	437.29167
2762.346	436.29167
2764.573	430.29167
2766.798	432.625
2769.022	432.95833
2771.245	444.625
2773.467	445.95833
2775.686	442.95833
2777.905	443.625
2780.122	447.29167
2782.337	444.625
2784.552	457.95833
2786.764	460.95833
2788.976	460.29167
2791.186	461.625
2793.394	469.95833
2795.601	470.95833
2797.807	478.95833
2800.011	481.29167
2802.214	488.95833
2804.415	484.95833
2806.615	486.29167
2808.814	484.95833
2811.011	498.29167
2813.206	497.625
2815.401	516.95833
2817.594	515.625
2819.785	521.625
2821.975	517.95833
2824.164	524.625
2826.351	534.625
2828.537	549.29167
2830.722	552.625
2832.905	557.29167
2835.086	573.95833
2837.267	615.625
2839.445	611.625
2841.623	628.95833
2843.799	651.95833
2845.974	691.625
2848.147	726.625
2850.319	740.95833
2852.489	758.95833
2854.659	759.625
2856.826	769.625
2858.993	802.95833
2861.158	787.625
2863.321	790.625
2865.483	807.625
2867.644	801.95833
2869.804	797.95833
2871.962	798.95833
2874.118	804.95833
2876.274	833.29167
2878.428	827.625
2880.58	805.625
2882.731	799.625
2884.881	795.95833
2887.03	791.95833
2889.177	792.29167
2891.322	805.625
2893.467	803.29167
2895.61	804.625
2897.751	827.29167
2899.892	808.95833
2902.03	818.95833
2904.168	822.625
2906.304	821.95833
2908.439	839.29167
2910.572	820.625
2912.704	846.95833
2914.835	843.625
2916.965	840.625
2919.093	842.95833
2921.219	827.95833
2923.345	853.29167
2925.469	817.625
2927.591	820.29167
2929.712	798.95833
2931.832	792.95833
2933.951	783.95833
2936.068	767.95833
2938.184	739.29167
2940.299	724.29167
2942.412	718.95833
2944.524	679.95833
2946.634	682.29167
2948.744	638.95833
2950.851	667.29167
2952.958	636.95833
2955.063	616.29167
2957.167	613.95833
2959.269	591.29167
2961.371	607.29167
2963.471	580.95833
2965.569	567.95833
2967.666	558.29167
2969.762	556.29167
2971.857	542.29167
2973.95	523.29167
2976.042	533.29167
2978.133	503.95833
2980.222	497.625
2982.31	483.625
2984.396	457.29167
2986.482	475.625
2988.566	469.95833
2990.648	466.625
2992.73	454.29167
2994.81	449.95833
2996.889	457.95833
2998.966	450.95833
3001.042	457.95833
3003.117	452.29167
3005.191	455.29167
3007.263	451.625
3009.334	436.95833
3011.403	447.29167
3013.472	429.95833
3015.539	431.95833
3017.604	439.625
3019.669	397.29167
3021.732	403.95833
3023.794	400.625
3025.854	409.95833
3027.914	395.29167
3029.971	409.625
3032.028	402.95833
3034.083	407.29167
3036.137	400.29167
3038.19	393.29167
3040.242	369.29167
3042.292	368.95833
3044.341	374.29167
3046.388	387.625
3048.435	350.95833
3050.48	373.29167
3052.524	359.625
3054.566	348.625
3056.607	353.95833
3058.647	348.625
3060.686	335.625
3062.723	327.95833
3064.759	309.29167
3066.794	-0.70833
3068.828	1.29167
3070.86	1.29167
