-0.839	432.16667
3.438	527.16667
7.711	158.83333
11.981	60.16667
16.247	45.16667
20.509	51.5
24.768	45.16667
29.024	54.83333
33.276	44.5
37.524	48.83333
41.769	45.83333
46.01	36.16667
50.247	48.16667
54.481	62.83333
58.712	62.83333
62.939	50.16667
67.162	61.83333
71.382	56.83333
75.599	44.83333
79.812	63.16667
84.021	80.83333
88.227	64.16667
92.429	59.16667
96.628	52.5
100.823	71.5
105.015	75.83333
109.204	66.16667
113.388	74.5
117.57	79.83333
121.748	80.83333
125.922	79.5
130.093	105.16667
134.261	96.83333
138.425	99.83333
142.585	138.83333
146.742	134.16667
150.896	162.5
155.046	203.83333
159.193	318.16667
163.336	531.83333
167.476	960.83333
171.613	1781.83333
175.746	2964.83333
179.875	4368.16667
184.002	5681.5
188.124	6602.83333
192.244	6902.83333
196.36	6841.83333
200.472	6625.16667
204.581	6489.83333
208.687	6355.16667
212.79	6322.83333
216.889	6279.5
220.984	6313.16667
225.077	6339.5
229.165	6344.16667
233.251	6367.16667
237.333	6302.83333
241.412	6236.5
245.487	6211.16667
249.559	6102.16667
253.628	6072.83333
257.694	6008.83333
261.756	5996.16667
265.814	5904.83333
269.87	5701.5
273.922	5519.83333
277.97	5414.83333
282.016	5326.83333
286.058	5351.5
290.097	5432.5
294.132	5513.16667
298.164	5486.83333
302.193	5249.16667
306.219	4895.5
310.241	4524.5
314.26	4176.5
318.276	3895.83333
322.288	3745.16667
326.297	3607.16667
330.303	3492.16667
334.305	3411.83333
338.305	3383.83333
342.301	3339.83333
346.294	3310.16667
350.283	3293.16667
354.269	3266.83333
358.252	3252.16667
362.232	3242.83333
366.209	3203.5
370.182	3193.5
374.152	3200.16667
378.119	3176.16667
382.083	3191.83333
386.043	3198.16667
390	3163.5
393.954	3200.5
397.905	3182.16667
401.852	3191.16667
405.797	3134.5
409.738	3170.5
413.676	3205.16667
417.61	3229.83333
421.542	3125.83333
425.47	3072.5
429.396	3075.83333
433.318	3009.16667
437.236	3037.5
441.152	3053.83333
445.065	3004.5
448.974	3000.83333
452.88	2983.16667
456.783	2966.83333
460.683	2958.5
464.58	2943.83333
468.473	2944.83333
472.364	2989.5
476.251	2986.5
480.135	2994.5
484.016	3028.83333
487.894	3041.83333
491.769	3079.5
495.641	3041.5
499.509	3059.5
503.375	3035.16667
507.237	3047.16667
511.096	3030.5
514.952	3076.5
518.805	3105.83333
522.655	3116.83333
526.502	3082.16667
530.346	3010.83333
534.187	3015.5
538.024	3047.5
541.859	3062.83333
545.69	3069.83333
549.519	3051.83333
553.344	3044.83333
557.166	2987.5
560.985	2957.83333
564.802	2918.5
568.615	2860.16667
572.425	2811.83333
576.232	2836.83333
580.036	2803.16667
583.836	2810.16667
587.634	2822.83333
591.429	2835.5
595.221	2897.83333
599.01	2924.83333
602.796	2955.83333
606.578	2979.5
610.358	2979.83333
614.135	2939.83333
617.909	2923.16667
621.679	2908.16667
625.447	2896.5
629.212	2906.5
632.973	2891.5
636.732	2871.83333
640.488	2889.5
644.241	2870.5
647.991	2855.16667
651.737	2863.16667
655.481	2857.83333
659.222	2858.83333
662.96	2868.83333
666.695	2890.83333
670.427	2890.5
674.156	2918.16667
677.882	2879.16667
681.605	2866.16667
685.325	2846.5
689.043	2825.5
692.757	2786.5
696.468	2798.83333
700.177	2793.83333
703.882	2778.83333
707.585	2754.5
711.284	2755.5
714.981	2749.16667
718.675	2764.16667
722.366	2766.16667
726.054	2745.5
729.739	2734.83333
733.421	2748.83333
737.1	2741.16667
740.777	2762.5
744.45	2793.83333
748.121	2812.5
751.789	2844.83333
755.453	2845.83333
759.115	2883.16667
762.774	2872.5
766.431	2878.16667
770.084	2899.83333
773.734	2912.5
777.382	2952.16667
781.027	2971.16667
784.669	2950.16667
788.308	2993.16667
791.944	3002.83333
795.577	3020.16667
799.208	3046.5
802.835	3072.16667
806.46	3092.5
810.082	3107.5
813.701	3127.16667
817.317	3164.5
820.931	3132.5
824.542	3120.16667
828.149	3084.83333
831.754	3055.16667
835.357	3029.16667
838.956	3029.16667
842.553	3045.5
846.146	3012.83333
849.737	2970.16667
853.326	2950.5
856.911	2957.5
860.493	2970.16667
864.073	3013.5
867.65	3076.5
871.225	3090.5
874.796	3081.83333
878.365	3072.5
881.931	3078.5
885.494	3064.5
889.054	3092.83333
892.612	3066.5
896.166	3038.83333
899.719	3013.5
903.268	2975.83333
906.814	2957.5
910.358	2961.5
913.899	2935.5
917.438	2935.83333
920.973	2914.5
924.506	2950.83333
928.036	3026.83333
931.564	3087.5
935.088	3114.5
938.61	3125.16667
942.129	3155.5
945.646	3213.83333
949.16	3275.83333
952.671	3306.5
956.179	3314.5
959.685	3310.5
963.188	3341.83333
966.688	3302.83333
970.185	3214.5
973.68	3106.16667
977.173	3049.83333
980.662	3005.5
984.149	3001.5
987.633	2990.16667
991.114	3047.16667
994.593	3094.5
998.069	3129.16667
1001.542	3238.16667
1005.013	3180.5
1008.481	3011.5
1011.947	2960.16667
1015.409	2925.16667
1018.869	2925.5
1022.327	2929.83333
1025.782	2888.5
1029.234	2915.5
1032.683	2871.5
1036.13	2775.5
1039.574	2695.5
1043.016	2638.83333
1046.455	2560.5
1049.891	2538.16667
1053.325	2551.83333
1056.756	2576.83333
1060.184	2592.5
1063.61	2605.5
1067.033	2603.5
1070.454	2613.83333
1073.872	2632.16667
1077.287	2632.83333
1080.7	2631.5
1084.11	2631.5
1087.517	2591.16667
1090.922	2559.5
1094.325	2539.83333
1097.724	2519.83333
1101.122	2505.83333
1104.516	2484.5
1107.908	2509.16667
1111.298	2537.5
1114.684	2547.16667
1118.069	2602.5
1121.45	2608.5
1124.83	2599.83333
1128.206	2636.16667
1131.58	2654.83333
1134.951	2717.5
1138.32	2803.5
1141.687	2872.16667
1145.05	2924.83333
1148.412	2915.16667
1151.77	2901.5
1155.126	2900.5
1158.48	2872.83333
1161.831	2876.5
1165.18	2885.5
1168.525	2900.16667
1171.869	2956.5
1175.21	2982.16667
1178.548	3004.16667
1181.884	3036.5
1185.217	3062.5
1188.548	3134.16667
1191.877	3213.83333
1195.202	3296.5
1198.526	3379.5
1201.846	3355.83333
1205.165	3374.83333
1208.48	3383.5
1211.794	3379.83333
1215.104	3372.16667
1218.413	3378.16667
1221.719	3361.5
1225.022	3302.83333
1228.323	3273.83333
1231.621	3239.83333
1234.917	3211.16667
1238.21	3184.83333
1241.501	3181.5
1244.79	3181.16667
1248.076	3167.5
1251.359	3175.83333
1254.64	3242.16667
1257.919	3287.5
1261.195	3331.5
1264.468	3389.16667
1267.74	3389.83333
1271.008	3431.16667
1274.275	3435.83333
1277.538	3403.83333
1280.8	3399.16667
1284.059	3412.5
1287.315	3471.16667
1290.569	3466.5
1293.821	3472.16667
1297.07	3504.16667
1300.317	3500.16667
1303.562	3486.83333
1306.803	3467.83333
1310.043	3467.83333
1313.28	3400.83333
1316.515	3393.83333
1319.747	3408.16667
1322.977	3353.16667
1326.204	3345.16667
1329.429	3297.5
1332.652	3261.83333
1335.872	3264.83333
1339.09	3211.5
1342.306	3220.5
1345.519	3177.16667
1348.729	3161.5
1351.938	3167.83333
1355.144	3144.5
1358.347	3090.83333
1361.548	3049.5
1364.747	3040.5
1367.944	3009.5
1371.138	3003.5
1374.329	2998.16667
1377.518	3045.16667
1380.705	3033.5
1383.89	3014.16667
1387.072	2928.83333
1390.252	2808.5
1393.429	2721.83333
1396.605	2647.83333
1399.777	2560.5
1402.948	2564.5
1406.116	2517.16667
1409.282	2527.16667
1412.445	2515.16667
1415.606	2539.16667
1418.765	2562.83333
1421.921	2632.5
1425.075	2676.16667
1428.227	2765.16667
1431.376	2883.5
1434.524	2992.5
1437.668	3061.16667
1440.811	3073.5
1443.951	3117.5
1447.089	3142.16667
1450.224	3129.16667
1453.357	3113.5
1456.488	3104.16667
1459.617	3027.5
1462.743	2995.16667
1465.867	2906.83333
1468.989	2868.16667
1472.108	2823.83333
1475.225	2773.83333
1478.34	2737.83333
1481.453	2710.83333
1484.563	2737.16667
1487.671	2762.16667
1490.776	2791.5
1493.88	2831.5
1496.981	2852.16667
1500.08	2900.16667
1503.176	2937.16667
1506.271	2979.83333
1509.363	3016.83333
1512.452	3026.83333
1515.54	3066.5
1518.625	3099.16667
1521.708	3200.5
1524.789	3259.83333
1527.867	3363.5
1530.944	3523.5
1534.018	3649.83333
1537.089	3795.16667
1540.159	3838.16667
1543.226	3816.83333
1546.291	3748.5
1549.354	3643.16667
1552.415	3581.16667
1555.473	3489.16667
1558.529	3429.16667
1561.583	3389.16667
1564.634	3374.83333
1567.684	3377.83333
1570.731	3380.83333
1573.776	3433.83333
1576.819	3479.5
1579.859	3544.16667
1582.898	3573.16667
1585.934	3591.16667
1588.968	3592.83333
1591.999	3616.16667
1595.029	3610.16667
1598.056	3656.83333
1601.081	3653.16667
1604.104	3654.5
1607.125	3619.83333
1610.144	3567.83333
1613.16	3474.16667
1616.174	3384.83333
1619.186	3334.5
1622.196	3266.83333
1625.203	3184.5
1628.209	3119.5
1631.212	3135.83333
1634.213	3144.5
1637.212	3184.83333
1640.209	3160.5
1643.203	3084.16667
1646.196	2977.16667
1649.186	2856.5
1652.174	2742.83333
1655.16	2672.83333
1658.144	2618.83333
1661.125	2491.5
1664.105	2377.83333
1667.082	2255.83333
1670.057	2143.83333
1673.03	2016.5
1676.001	1890.5
1678.97	1787.83333
1681.937	1661.5
1684.901	1565.83333
1687.863	1516.16667
1690.824	1441.5
1693.782	1452.5
1696.738	1373.83333
1699.692	1368.5
1702.643	1335.16667
1705.593	1306.83333
1708.54	1287.83333
1711.486	1286.16667
1714.429	1247.83333
1717.37	1263.5
1720.309	1224.5
1723.246	1234.16667
1726.181	1204.5
1729.113	1203.16667
1732.044	1202.16667
1734.972	1181.16667
1737.899	1196.5
1740.823	1197.83333
1743.745	1193.5
1746.665	1139.83333
1749.583	1119.5
1752.499	1108.5
1755.413	1113.5
1758.325	1081.83333
1761.235	1078.5
1764.142	1066.16667
1767.048	1042.16667
1769.951	1056.83333
1772.852	1035.5
1775.752	1070.83333
1778.649	1094.16667
1781.544	1066.16667
1784.437	1009.5
1787.328	1021.5
1790.217	1001.83333
1793.104	982.83333
1795.989	998.5
1798.872	976.5
1801.753	1000.16667
1804.631	987.83333
1807.508	994.5
1810.383	984.16667
1813.255	971.83333
1816.126	989.16667
1818.994	973.83333
1821.861	960.83333
1824.725	946.5
1827.587	954.5
1830.448	953.16667
1833.306	924.83333
1836.162	941.16667
1839.017	923.16667
1841.869	923.5
1844.719	928.16667
1847.567	905.5
1850.414	915.16667
1853.258	911.16667
1856.1	911.5
1858.94	905.83333
1861.778	907.5
1864.614	899.16667
1867.448	897.5
1870.28	887.5
1873.111	906.83333
1875.939	892.16667
1878.765	909.83333
1881.589	891.5
1884.411	904.16667
1887.231	887.83333
1890.049	874.83333
1892.865	895.5
1895.68	875.83333
1898.492	902.16667
1901.302	874.83333
1904.11	858.16667
1906.916	849.16667
1909.721	839.83333
1912.523	872.83333
1915.323	848.83333
1918.122	841.16667
1920.918	848.5
1923.712	840.83333
1926.505	828.16667
1929.295	812.16667
1932.084	847.16667
1934.87	846.5
1937.655	829.5
1940.438	821.83333
1943.218	835.83333
1945.997	828.16667
1948.774	832.83333
1951.549	834.16667
1954.322	822.16667
1957.093	826.83333
1959.862	813.83333
1962.629	803.16667
1965.394	802.16667
1968.157	786.83333
1970.918	811.16667
1973.678	778.83333
1976.435	798.83333
1979.19	786.83333
1981.944	775.16667
1984.696	783.16667
1987.445	768.16667
1990.193	777.16667
1992.939	796.5
1995.683	770.5
1998.425	743.16667
2001.165	786.5
2003.903	762.16667
2006.639	765.5
2009.374	777.83333
2012.106	763.5
2014.837	745.83333
2017.566	763.83333
2020.292	765.5
2023.017	762.83333
2025.74	764.5
2028.461	739.5
2031.18	752.5
2033.898	733.83333
2036.613	737.5
2039.327	736.5
2042.038	725.16667
2044.748	733.5
2047.456	744.83333
2050.162	734.5
2052.866	726.83333
2055.568	735.83333
2058.268	718.5
2060.967	724.83333
2063.663	706.5
2066.358	720.83333
2069.051	719.5
2071.742	716.83333
2074.431	717.83333
2077.118	706.16667
2079.804	704.16667
2082.487	715.83333
2085.169	722.16667
2087.849	727.5
2090.527	689.16667
2093.203	708.16667
2095.877	726.5
2098.55	721.5
2101.22	725.83333
2103.889	733.83333
2106.556	728.16667
2109.221	747.16667
2111.884	743.83333
2114.546	792.5
2117.205	828.83333
2119.863	879.16667
2122.519	896.16667
2125.173	938.83333
2127.825	997.16667
2130.475	992.16667
2133.124	954.5
2135.771	923.16667
2138.416	893.16667
2141.059	836.16667
2143.7	818.16667
2146.339	769.5
2148.977	735.83333
2151.613	737.83333
2154.247	741.83333
2156.879	702.83333
2159.51	695.16667
2162.138	678.83333
2164.765	686.16667
2167.39	666.83333
2170.013	688.16667
2172.634	671.5
2175.254	663.16667
2177.872	684.5
2180.488	641.16667
2183.102	658.5
2185.714	637.5
2188.325	624.83333
2190.934	639.16667
2193.541	635.83333
2196.146	617.16667
2198.75	620.16667
2201.351	617.83333
2203.951	606.83333
2206.549	620.5
2209.146	609.83333
2211.74	609.83333
2214.333	605.16667
2216.924	601.16667
2219.514	603.16667
2222.101	594.5
2224.687	607.83333
2227.271	594.16667
2229.853	590.5
2232.433	574.16667
2235.012	606.5
2237.589	599.5
2240.164	597.5
2242.738	579.16667
2245.309	580.83333
2247.879	581.5
2250.448	591.5
2253.014	577.83333
2255.579	550.83333
2258.142	562.16667
2260.703	549.5
2263.262	551.16667
2265.82	554.16667
2268.376	564.5
2270.93	534.16667
2273.483	538.16667
2276.033	550.16667
2278.583	535.16667
2281.13	531.83333
2283.675	532.16667
2286.219	528.16667
2288.761	533.83333
2291.302	525.83333
2293.841	536.16667
2296.377	519.16667
2298.913	531.16667
2301.446	531.83333
2303.978	524.5
2306.508	512.83333
2309.037	516.83333
2311.563	525.83333
2314.088	527.16667
2316.612	509.16667
2319.133	517.16667
2321.653	512.5
2324.171	507.83333
2326.688	522.5
2329.202	495.5
2331.715	510.5
2334.227	492.16667
2336.736	495.5
2339.244	501.5
2341.751	498.5
2344.255	508.16667
2346.758	494.5
2349.259	490.83333
2351.759	490.83333
2354.257	495.16667
2356.753	477.5
2359.247	482.5
2361.74	503.83333
2364.231	486.16667
2366.721	488.16667
2369.209	483.5
2371.695	487.16667
2374.179	478.16667
2376.662	481.5
2379.143	495.16667
2381.622	480.16667
2384.1	495.83333
2386.576	484.83333
2389.051	491.5
2391.524	487.83333
2393.995	483.5
2396.464	482.16667
2398.932	476.5
2401.398	473.83333
2403.863	476.83333
2406.325	468.16667
2408.787	476.16667
2411.246	473.16667
2413.704	470.83333
2416.16	455.5
2418.615	466.83333
2421.068	474.83333
2423.519	479.16667
2425.969	464.83333
2428.417	470.83333
2430.863	488.83333
2433.308	473.16667
2435.751	467.5
2438.193	469.16667
2440.633	466.5
2443.071	468.83333
2445.508	463.5
2447.943	457.83333
2450.376	460.16667
2452.808	460.16667
2455.238	452.83333
2457.667	492.5
2460.093	455.16667
2462.519	441.5
2464.942	459.5
2467.365	456.5
2469.785	456.16667
2472.204	450.16667
2474.621	446.5
2477.037	469.83333
2479.451	434.16667
2481.863	432.5
2484.274	440.83333
2486.683	447.83333
2489.091	459.16667
2491.497	447.16667
2493.901	456.83333
2496.304	439.5
2498.705	455.5
2501.105	449.5
2503.503	467.83333
2505.899	431.83333
2508.294	456.16667
2510.687	443.5
2513.079	447.83333
2515.469	437.16667
2517.858	445.5
2520.245	444.5
2522.63	440.5
2525.014	433.16667
2527.396	432.83333
2529.776	432.16667
2532.156	440.83333
2534.533	423.16667
2536.909	417.5
2539.283	422.5
2541.656	422.16667
2544.027	454.83333
2546.397	431.5
2548.765	431.16667
2551.131	431.16667
2553.496	437.5
2555.86	437.83333
2558.221	431.5
2560.582	424.5
2562.94	420.16667
2565.298	425.5
2567.653	444.5
2570.007	424.16667
2572.36	443.5
2574.711	418.16667
2577.06	437.16667
2579.408	438.5
2581.754	432.5
2584.099	431.16667
2586.442	428.83333
2588.784	422.5
2591.124	425.83333
2593.463	430.83333
2595.8	439.83333
2598.135	419.16667
2600.469	422.83333
2602.802	434.5
2605.133	430.16667
2607.462	416.16667
2609.79	425.83333
2612.116	432.83333
2614.441	427.5
2616.764	428.16667
2619.086	415.83333
2621.406	413.83333
2623.725	430.16667
2626.042	426.83333
2628.358	418.83333
2630.672	426.5
2632.985	441.16667
2635.296	430.5
2637.606	422.16667
2639.914	415.16667
2642.22	423.16667
2644.525	425.83333
2646.829	423.5
2649.131	435.83333
2651.432	436.5
2653.731	433.5
2656.028	441.16667
2658.324	446.16667
2660.619	423.83333
2662.912	450.83333
2665.204	418.83333
2667.494	437.83333
2669.782	430.5
2672.07	443.83333
2674.355	442.83333
2676.639	433.16667
2678.922	423.5
2681.203	433.83333
2683.483	422.83333
2685.761	433.16667
2688.038	438.83333
2690.313	442.83333
2692.587	453.5
2694.859	441.5
2697.13	439.5
2699.399	448.83333
2701.667	455.5
2703.933	451.83333
2706.198	451.5
2708.461	462.83333
2710.723	465.5
2712.984	464.5
2715.243	461.16667
2717.5	455.16667
2719.757	472.16667
2722.011	453.5
2724.264	468.83333
2726.516	484.16667
2728.766	460.83333
2731.015	470.83333
2733.262	473.16667
2735.508	464.16667
2737.753	465.16667
2739.996	453.16667
2742.237	461.16667
2744.477	467.5
2746.716	462.5
2748.953	464.5
2751.189	470.83333
2753.423	453.5
2755.656	446.5
2757.887	439.83333
2760.117	441.83333
2762.346	433.16667
2764.573	444.5
2766.798	453.16667
2769.022	441.5
2771.245	453.83333
2773.467	445.5
2775.686	461.5
2777.905	458.83333
2780.122	459.83333
2782.337	468.16667
2784.552	461.16667
2786.764	459.5
2788.976	461.83333
2791.186	465.83333
2793.394	479.83333
2795.601	470.5
2797.807	486.16667
2800.011	494.83333
2802.214	487.83333
2804.415	497.16667
2806.615	494.5
2808.814	495.83333
2811.011	504.83333
2813.206	493.16667
2815.401	514.5
2817.594	517.16667
2819.785	530.16667
2821.975	523.16667
2824.164	530.5
2826.351	546.5
2828.537	552.16667
2830.722	565.83333
2832.905	564.16667
2835.086	585.16667
2837.267	619.83333
2839.445	614.16667
2841.623	644.16667
2843.799	662.5
2845.974	693.83333
2848.147	711.5
2850.319	738.83333
2852.489	774.83333
2854.659	768.5
2856.826	789.16667
2858.993	814.5
2861.158	785.5
2863.321	794.16667
2865.483	824.16667
2867.644	813.83333
2869.804	806.5
2871.962	807.16667
2874.118	809.83333
2876.274	819.16667
2878.428	822.83333
2880.58	811.16667
2882.731	795.83333
2884.881	799.83333
2887.03	808.16667
2889.177	791.5
2891.322	807.16667
2893.467	812.83333
2895.61	804.5
2897.751	828.16667
2899.892	818.83333
2902.03	824.16667
2904.168	818.83333
2906.304	837.83333
2908.439	838.5
2910.572	838.83333
2912.704	854.5
2914.835	856.5
2916.965	846.83333
2919.093	861.83333
2921.219	828.5
2923.345	856.5
2925.469	821.83333
2927.591	829.16667
2929.712	793.83333
2931.832	799.83333
2933.951	794.16667
2936.068	764.16667
2938.184	753.83333
2940.299	732.5
2942.412	728.5
2944.524	686.16667
2946.634	683.16667
2948.744	635.5
2950.851	667.83333
2952.958	625.83333
2955.063	631.5
2957.167	615.5
2959.269	593.5
2961.371	619.83333
2963.471	584.5
2965.569	583.5
2967.666	561.5
2969.762	548.5
2971.857	542.5
2973.95	527.83333
2976.042	526.83333
2978.133	512.16667
2980.222	509.5
2982.31	484.5
2984.396	471.5
2986.482	470.5
2988.566	469.83333
2990.648	465.5
2992.73	457.83333
2994.81	448.5
2996.889	459.5
2998.966	457.16667
3001.042	465.16667
3003.117	449.5
3005.191	446.83333
3007.263	460.16667
3009.334	440.83333
3011.403	455.5
3013.472	427.16667
3015.539	430.16667
3017.604	440.16667
3019.669	404.5
3021.732	407.16667
3023.794	411.16667
3025.854	398.16667
3027.914	402.16667
3029.971	411.83333
3032.028	399.5
3034.083	403.83333
3036.137	393.5
3038.19	376.5
3040.242	372.5
3042.292	370.16667
3044.341	370.83333
3046.388	385.5
3048.435	362.16667
3050.48	376.16667
3052.524	366.5
3054.566	357.5
3056.607	362.16667
3058.647	351.5
3060.686	333.83333
3062.723	325.16667
3064.759	317.83333
3066.794	-1.83333
3068.828	1.16667
3070.86	2.5
