-0.839	508.25
3.438	571.91667
7.711	177.25
11.981	62.58333
16.247	47.25
20.509	51.25
24.768	48.25
29.024	54.58333
33.276	43.91667
37.524	50.91667
41.769	44.91667
46.01	32.58333
50.247	44.58333
54.481	58.91667
58.712	62.25
62.939	50.58333
67.162	63.58333
71.382	57.91667
75.599	43.91667
79.812	64.25
84.021	80.58333
88.227	60.91667
92.429	59.91667
96.628	50.25
100.823	75.58333
105.015	75.25
109.204	66.91667
113.388	75.58333
117.57	74.58333
121.748	85.58333
125.922	80.25
130.093	102.91667
134.261	104.58333
138.425	102.25
142.585	145.58333
146.742	137.25
150.896	176.58333
155.046	221.91667
159.193	355.91667
163.336	620.91667
167.476	1122.91667
171.613	2027.58333
175.746	3333.25
179.875	4853.25
184.002	6269.91667
188.124	7152.91667
192.244	7460.91667
196.36	7297.58333
200.472	7034.25
204.581	6774.91667
208.687	6525.25
212.79	6419.91667
216.889	6348.58333
220.984	6326.25
225.077	6250.58333
229.165	6271.58333
233.251	6190.91667
237.333	6191.91667
241.412	6113.58333
245.487	5979.25
249.559	5878.91667
253.628	5872.58333
257.694	5822.91667
261.756	5787.25
265.814	5706.25
269.87	5502.58333
273.922	5381.58333
277.97	5226.25
282.016	5172.25
286.058	5118.91667
290.097	5173.25
294.132	5227.91667
298.164	5208.58333
302.193	5026.25
306.219	4723.25
310.241	4407.58333
314.26	4102.91667
318.276	3876.58333
322.288	3721.91667
326.297	3601.58333
330.303	3490.25
334.305	3406.91667
338.305	3410.58333
342.301	3351.58333
346.294	3352.91667
350.283	3335.58333
354.269	3290.25
358.252	3266.91667
362.232	3284.91667
366.209	3256.91667
370.182	3211.25
374.152	3221.91667
378.119	3227.25
382.083	3241.91667
386.043	3225.58333
390	3211.58333
393.954	3258.91667
397.905	3247.91667
401.852	3263.91667
405.797	3231.91667
409.738	3275.58333
413.676	3317.58333
417.61	3381.58333
421.542	3237.25
425.47	3161.58333
429.396	3140.91667
433.318	3095.91667
437.236	3115.91667
441.152	3134.25
445.065	3084.91667
448.974	3061.91667
452.88	3051.58333
456.783	3034.58333
460.683	3024.58333
464.58	3040.91667
468.473	3043.91667
472.364	3056.91667
476.251	3076.58333
480.135	3092.58333
484.016	3123.91667
487.894	3149.58333
491.769	3139.91667
495.641	3138.58333
499.509	3150.58333
503.375	3139.58333
507.237	3141.58333
511.096	3119.58333
514.952	3147.91667
518.805	3145.25
522.655	3172.91667
526.502	3129.58333
530.346	3123.91667
534.187	3124.25
538.024	3135.91667
541.859	3135.91667
545.69	3133.58333
549.519	3157.91667
553.344	3122.58333
557.166	3100.25
560.985	3068.58333
564.802	3064.58333
568.615	3008.58333
572.425	2987.25
576.232	2962.91667
580.036	2941.58333
583.836	2962.58333
587.634	2957.25
591.429	2958.25
595.221	3021.25
599.01	3051.25
602.796	3053.58333
606.578	3064.58333
610.358	3071.91667
614.135	3073.91667
617.909	3041.25
621.679	3026.91667
625.447	3012.25
629.212	3023.25
632.973	3025.58333
636.732	3031.25
640.488	3024.58333
644.241	2983.91667
647.991	2976.25
651.737	2992.58333
655.481	2960.25
659.222	2998.58333
662.96	2994.25
666.695	3010.25
670.427	3027.58333
674.156	3043.58333
677.882	2988.58333
681.605	2989.91667
685.325	2970.58333
689.043	2975.25
692.757	2968.91667
696.468	2957.58333
700.177	2944.58333
703.882	2913.91667
707.585	2906.25
711.284	2896.58333
714.981	2892.58333
718.675	2914.91667
722.366	2890.91667
726.054	2919.25
729.739	2881.25
733.421	2892.25
737.1	2920.58333
740.777	2906.58333
744.45	2917.58333
748.121	2934.58333
751.789	2978.58333
755.453	2960.25
759.115	2982.25
762.774	2989.58333
766.431	3001.58333
770.084	3004.91667
773.734	3038.91667
777.382	3058.25
781.027	3071.25
784.669	3075.25
788.308	3082.25
791.944	3068.25
795.577	3112.25
799.208	3152.25
802.835	3141.58333
806.46	3171.25
810.082	3207.25
813.701	3226.58333
817.317	3231.25
820.931	3227.91667
824.542	3216.25
828.149	3178.25
831.754	3138.58333
835.357	3118.91667
838.956	3135.25
842.553	3135.91667
846.146	3133.25
849.737	3078.25
853.326	3057.25
856.911	3017.58333
860.493	3067.25
864.073	3104.25
867.65	3180.25
871.225	3202.91667
874.796	3123.25
878.365	3127.25
881.931	3130.91667
885.494	3168.58333
889.054	3159.91667
892.612	3171.91667
896.166	3123.91667
899.719	3106.58333
903.268	3058.58333
906.814	3057.58333
910.358	3040.91667
913.899	3012.25
917.438	3029.58333
920.973	2980.91667
924.506	3041.91667
928.036	3103.25
931.564	3128.25
935.088	3136.91667
938.61	3127.58333
942.129	3149.25
945.646	3230.25
949.16	3269.25
952.671	3299.25
956.179	3331.58333
959.685	3322.25
963.188	3356.91667
966.688	3341.91667
970.185	3215.25
973.68	3135.58333
977.173	3118.25
980.662	3070.58333
984.149	3062.91667
987.633	3037.91667
991.114	3093.25
994.593	3112.91667
998.069	3208.91667
1001.542	3294.25
1005.013	3249.25
1008.481	3055.25
1011.947	3030.91667
1015.409	3004.91667
1018.869	3001.25
1022.327	3000.91667
1025.782	2977.58333
1029.234	2984.58333
1032.683	2923.91667
1036.13	2843.58333
1039.574	2755.91667
1043.016	2690.58333
1046.455	2675.25
1049.891	2634.91667
1053.325	2660.91667
1056.756	2633.25
1060.184	2656.58333
1063.61	2668.58333
1067.033	2693.58333
1070.454	2694.91667
1073.872	2720.58333
1077.287	2702.25
1080.7	2727.91667
1084.11	2697.25
1087.517	2661.91667
1090.922	2617.58333
1094.325	2599.91667
1097.724	2597.91667
1101.122	2568.25
1104.516	2563.58333
1107.908	2574.91667
1111.298	2614.25
1114.684	2635.25
1118.069	2657.91667
1121.45	2678.91667
1124.83	2682.25
1128.206	2722.25
1131.58	2723.25
1134.951	2769.58333
1138.32	2845.58333
1141.687	2929.91667
1145.05	2988.25
1148.412	2981.25
1151.77	2975.91667
1155.126	2959.25
1158.48	2938.25
1161.831	2953.91667
1165.18	2954.58333
1168.525	2978.25
1171.869	3021.25
1175.21	3043.58333
1178.548	3077.58333
1181.884	3092.25
1185.217	3106.91667
1188.548	3179.25
1191.877	3234.58333
1195.202	3316.91667
1198.526	3394.58333
1201.846	3424.91667
1205.165	3416.91667
1208.48	3408.25
1211.794	3406.58333
1215.104	3407.58333
1218.413	3385.91667
1221.719	3383.91667
1225.022	3328.25
1228.323	3307.58333
1231.621	3260.58333
1234.917	3268.91667
1238.21	3248.91667
1241.501	3247.25
1244.79	3201.25
1248.076	3217.91667
1251.359	3285.91667
1254.64	3318.91667
1257.919	3327.58333
1261.195	3381.91667
1264.468	3446.58333
1267.74	3473.25
1271.008	3471.91667
1274.275	3468.58333
1277.538	3448.25
1280.8	3429.25
1284.059	3455.91667
1287.315	3459.91667
1290.569	3466.91667
1293.821	3487.91667
1297.07	3488.91667
1300.317	3502.25
1303.562	3476.91667
1306.803	3465.25
1310.043	3445.58333
1313.28	3388.58333
1316.515	3404.25
1319.747	3402.25
1322.977	3369.58333
1326.204	3346.25
1329.429	3317.58333
1332.652	3323.25
1335.872	3276.91667
1339.09	3287.25
1342.306	3258.91667
1345.519	3225.25
1348.729	3211.58333
1351.938	3214.25
1355.144	3180.25
1358.347	3118.25
1361.548	3103.25
1364.747	3085.58333
1367.944	3067.91667
1371.138	3075.91667
1374.329	3052.58333
1377.518	3099.25
1380.705	3062.58333
1383.89	3071.91667
1387.072	2997.25
1390.252	2902.25
1393.429	2781.58333
1396.605	2715.58333
1399.777	2649.25
1402.948	2625.25
1406.116	2582.58333
1409.282	2593.58333
1412.445	2575.58333
1415.606	2639.58333
1418.765	2670.58333
1421.921	2684.91667
1425.075	2735.91667
1428.227	2815.91667
1431.376	2914.91667
1434.524	3025.25
1437.668	3106.58333
1440.811	3137.58333
1443.951	3168.25
1447.089	3193.91667
1450.224	3162.25
1453.357	3160.58333
1456.488	3131.91667
1459.617	3093.25
1462.743	3031.91667
1465.867	2956.58333
1468.989	2952.25
1472.108	2891.58333
1475.225	2858.25
1478.34	2802.58333
1481.453	2810.58333
1484.563	2794.91667
1487.671	2814.91667
1490.776	2826.25
1493.88	2883.58333
1496.981	2904.91667
1500.08	2944.91667
1503.176	2979.91667
1506.271	3026.25
1509.363	3073.58333
1512.452	3082.91667
1515.54	3122.91667
1518.625	3139.25
1521.708	3262.58333
1524.789	3335.91667
1527.867	3468.58333
1530.944	3623.25
1534.018	3755.91667
1537.089	3892.25
1540.159	3941.58333
1543.226	3890.91667
1546.291	3808.58333
1549.354	3729.91667
1552.415	3663.91667
1555.473	3593.91667
1558.529	3465.58333
1561.583	3455.25
1564.634	3434.25
1567.684	3458.25
1570.731	3443.25
1573.776	3505.25
1576.819	3556.25
1579.859	3584.58333
1582.898	3623.25
1585.934	3675.91667
1588.968	3669.91667
1591.999	3662.91667
1595.029	3659.91667
1598.056	3704.58333
1601.081	3697.91667
1604.104	3714.58333
1607.125	3664.25
1610.144	3606.25
1613.16	3547.25
1616.174	3479.25
1619.186	3396.25
1622.196	3356.91667
1625.203	3263.58333
1628.209	3219.58333
1631.212	3203.25
1634.213	3235.25
1637.212	3266.25
1640.209	3243.58333
1643.203	3182.58333
1646.196	3076.91667
1649.186	2911.58333
1652.174	2857.58333
1655.16	2746.58333
1658.144	2646.58333
1661.125	2542.25
1664.105	2439.58333
1667.082	2345.91667
1670.057	2233.91667
1673.03	2103.25
1676.001	1961.58333
1678.97	1852.91667
1681.937	1746.91667
1684.901	1665.25
1687.863	1621.91667
1690.824	1539.58333
1693.782	1526.25
1696.738	1463.25
1699.692	1438.91667
1702.643	1387.58333
1705.593	1405.25
1708.54	1371.58333
1711.486	1366.58333
1714.429	1343.25
1717.37	1331.58333
1720.309	1329.58333
1723.246	1316.25
1726.181	1287.91667
1729.113	1296.58333
1732.044	1273.91667
1734.972	1267.91667
1737.899	1270.25
1740.823	1282.91667
1743.745	1256.91667
1746.665	1221.58333
1749.583	1216.58333
1752.499	1184.25
1755.413	1178.25
1758.325	1163.91667
1761.235	1158.25
1764.142	1140.58333
1767.048	1115.25
1769.951	1131.58333
1772.852	1135.25
1775.752	1155.58333
1778.649	1174.91667
1781.544	1141.58333
1784.437	1089.91667
1787.328	1092.91667
1790.217	1086.25
1793.104	1048.91667
1795.989	1060.58333
1798.872	1042.58333
1801.753	1075.91667
1804.631	1056.25
1807.508	1070.25
1810.383	1073.25
1813.255	1043.91667
1816.126	1039.25
1818.994	1035.91667
1821.861	1030.91667
1824.725	1034.58333
1827.587	1029.91667
1830.448	1017.91667
1833.306	997.25
1836.162	1016.25
1839.017	1007.58333
1841.869	984.25
1844.719	984.91667
1847.567	970.25
1850.414	964.25
1853.258	975.91667
1856.1	986.58333
1858.94	978.91667
1861.778	969.91667
1864.614	961.91667
1867.448	968.25
1870.28	945.58333
1873.111	990.91667
1875.939	954.91667
1878.765	975.91667
1881.589	963.25
1884.411	955.58333
1887.231	957.91667
1890.049	960.25
1892.865	955.91667
1895.68	945.25
1898.492	952.25
1901.302	935.91667
1904.11	920.91667
1906.916	923.25
1909.721	904.58333
1912.523	913.91667
1915.323	890.25
1918.122	896.58333
1920.918	915.91667
1923.712	898.58333
1926.505	884.58333
1929.295	880.25
1932.084	903.25
1934.87	899.91667
1937.655	895.58333
1940.438	875.91667
1943.218	887.91667
1945.997	881.58333
1948.774	891.58333
1951.549	885.91667
1954.322	887.91667
1957.093	874.91667
1959.862	853.25
1962.629	856.25
1965.394	853.25
1968.157	857.91667
1970.918	850.58333
1973.678	846.91667
1976.435	855.58333
1979.19	848.25
1981.944	836.91667
1984.696	825.25
1987.445	830.91667
1990.193	834.91667
1992.939	843.25
1995.683	824.25
1998.425	804.91667
2001.165	832.91667
2003.903	810.58333
2006.639	809.91667
2009.374	810.58333
2012.106	823.91667
2014.837	795.25
2017.566	806.58333
2020.292	803.58333
2023.017	802.91667
2025.74	801.25
2028.461	795.25
2031.18	791.25
2033.898	789.25
2036.613	799.58333
2039.327	792.25
2042.038	781.25
2044.748	776.58333
2047.456	779.58333
2050.162	761.91667
2052.866	767.91667
2055.568	793.25
2058.268	769.58333
2060.967	768.25
2063.663	752.91667
2066.358	744.58333
2069.051	745.58333
2071.742	762.58333
2074.431	760.58333
2077.118	765.58333
2079.804	743.58333
2082.487	748.91667
2085.169	761.25
2087.849	769.25
2090.527	746.91667
2093.203	753.58333
2095.877	761.58333
2098.55	758.58333
2101.22	774.25
2103.889	773.58333
2106.556	772.91667
2109.221	777.91667
2111.884	770.25
2114.546	816.25
2117.205	855.25
2119.863	907.91667
2122.519	945.58333
2125.173	991.91667
2127.825	1050.91667
2130.475	1059.58333
2133.124	1016.91667
2135.771	996.25
2138.416	943.58333
2141.059	883.25
2143.7	869.91667
2146.339	833.91667
2148.977	787.25
2151.613	779.91667
2154.247	757.25
2156.879	750.25
2159.51	728.91667
2162.138	723.25
2164.765	721.91667
2167.39	695.58333
2170.013	725.58333
2172.634	709.25
2175.254	694.25
2177.872	717.25
2180.488	681.25
2183.102	692.58333
2185.714	680.25
2188.325	652.25
2190.934	658.58333
2193.541	681.91667
2196.146	648.91667
2198.75	645.25
2201.351	638.91667
2203.951	631.91667
2206.549	649.58333
2209.146	637.25
2211.74	630.58333
2214.333	633.25
2216.924	614.25
2219.514	614.58333
2222.101	616.91667
2224.687	635.25
2227.271	620.58333
2229.853	614.58333
2232.433	599.25
2235.012	622.58333
2237.589	617.25
2240.164	624.58333
2242.738	603.58333
2245.309	594.58333
2247.879	612.58333
2250.448	607.58333
2253.014	585.91667
2255.579	564.58333
2258.142	577.58333
2260.703	569.91667
2263.262	578.25
2265.82	565.25
2268.376	579.91667
2270.93	561.91667
2273.483	552.25
2276.033	572.25
2278.583	549.91667
2281.13	554.25
2283.675	552.25
2286.219	547.25
2288.761	548.91667
2291.302	549.25
2293.841	556.25
2296.377	535.25
2298.913	541.91667
2301.446	550.58333
2303.978	545.25
2306.508	531.91667
2309.037	542.91667
2311.563	530.91667
2314.088	543.91667
2316.612	526.58333
2319.133	525.91667
2321.653	518.91667
2324.171	509.58333
2326.688	526.58333
2329.202	514.58333
2331.715	525.91667
2334.227	509.58333
2336.736	514.25
2339.244	511.25
2341.751	502.91667
2344.255	514.91667
2346.758	512.91667
2349.259	494.91667
2351.759	496.58333
2354.257	486.91667
2356.753	493.58333
2359.247	494.91667
2361.74	501.58333
2364.231	498.91667
2366.721	493.91667
2369.209	483.25
2371.695	494.25
2374.179	486.58333
2376.662	478.58333
2379.143	502.58333
2381.622	481.58333
2384.1	494.91667
2386.576	487.25
2389.051	501.91667
2391.524	495.91667
2393.995	481.58333
2396.464	481.91667
2398.932	483.25
2401.398	474.58333
2403.863	475.25
2406.325	474.25
2408.787	465.58333
2411.246	470.25
2413.704	462.58333
2416.16	465.25
2418.615	459.25
2421.068	477.25
2423.519	475.91667
2425.969	456.25
2428.417	455.91667
2430.863	483.58333
2433.308	471.58333
2435.751	465.25
2438.193	463.25
2440.633	459.58333
2443.071	456.25
2445.508	448.58333
2447.943	452.91667
2450.376	443.58333
2452.808	449.58333
2455.238	444.25
2457.667	485.25
2460.093	450.91667
2462.519	447.91667
2464.942	444.58333
2467.365	451.58333
2469.785	452.91667
2472.204	441.58333
2474.621	443.25
2477.037	453.58333
2479.451	429.25
2481.863	429.91667
2484.274	428.58333
2486.683	433.25
2489.091	445.91667
2491.497	438.58333
2493.901	434.58333
2496.304	434.58333
2498.705	432.91667
2501.105	429.91667
2503.503	455.25
2505.899	415.25
2508.294	445.91667
2510.687	434.91667
2513.079	439.25
2515.469	420.25
2517.858	432.91667
2520.245	438.91667
2522.63	411.58333
2525.014	415.91667
2527.396	417.25
2529.776	410.58333
2532.156	430.58333
2534.533	403.91667
2536.909	401.25
2539.283	405.25
2541.656	404.91667
2544.027	430.58333
2546.397	419.58333
2548.765	403.25
2551.131	400.91667
2553.496	405.58333
2555.86	417.25
2558.221	409.58333
2560.582	396.25
2562.94	401.25
2565.298	408.91667
2567.653	414.25
2570.007	389.58333
2572.36	419.91667
2574.711	396.25
2577.06	416.91667
2579.408	409.25
2581.754	408.58333
2584.099	403.91667
2586.442	405.25
2588.784	405.91667
2591.124	400.91667
2593.463	399.25
2595.8	401.91667
2598.135	390.25
2600.469	392.25
2602.802	398.58333
2605.133	399.91667
2607.462	386.58333
2609.79	382.58333
2612.116	391.25
2614.441	407.58333
2616.764	403.58333
2619.086	392.58333
2621.406	384.25
2623.725	401.25
2626.042	399.58333
2628.358	384.25
2630.672	384.91667
2632.985	404.25
2635.296	386.25
2637.606	398.91667
2639.914	387.58333
2642.22	385.25
2644.525	384.58333
2646.829	395.58333
2649.131	404.91667
2651.432	406.25
2653.731	397.25
2656.028	407.91667
2658.324	404.25
2660.619	391.91667
2662.912	402.91667
2665.204	381.91667
2667.494	389.91667
2669.782	387.91667
2672.07	404.25
2674.355	404.58333
2676.639	392.25
2678.922	383.91667
2681.203	396.25
2683.483	386.91667
2685.761	395.91667
2688.038	400.58333
2690.313	413.91667
2692.587	403.25
2694.859	388.91667
2697.13	403.91667
2699.399	409.25
2701.667	413.25
2703.933	407.58333
2706.198	410.25
2708.461	412.25
2710.723	415.58333
2712.984	415.58333
2715.243	413.25
2717.5	406.91667
2719.757	422.91667
2722.011	412.25
2724.264	424.91667
2726.516	430.25
2728.766	420.91667
2731.015	423.58333
2733.262	416.25
2735.508	418.58333
2737.753	418.25
2739.996	404.58333
2742.237	411.91667
2744.477	422.58333
2746.716	418.91667
2748.953	406.25
2751.189	411.58333
2753.423	395.25
2755.656	390.91667
2757.887	400.25
2760.117	392.91667
2762.346	391.91667
2764.573	380.25
2766.798	394.58333
2769.022	386.91667
2771.245	393.91667
2773.467	399.58333
2775.686	402.91667
2777.905	408.58333
2780.122	404.25
2782.337	405.91667
2784.552	406.58333
2786.764	409.58333
2788.976	413.58333
2791.186	410.58333
2793.394	419.25
2795.601	417.91667
2797.807	439.25
2800.011	431.25
2802.214	434.25
2804.415	437.25
2806.615	439.58333
2808.814	440.58333
2811.011	446.91667
2813.206	452.58333
2815.401	461.91667
2817.594	462.58333
2819.785	478.58333
2821.975	465.58333
2824.164	467.58333
2826.351	477.91667
2828.537	488.91667
2830.722	509.91667
2832.905	506.58333
2835.086	547.91667
2837.267	554.58333
2839.445	564.25
2841.623	591.25
2843.799	602.91667
2845.974	641.25
2848.147	658.58333
2850.319	676.91667
2852.489	702.91667
2854.659	707.91667
2856.826	730.25
2858.993	752.91667
2861.158	739.91667
2863.321	738.25
2865.483	757.91667
2867.644	764.91667
2869.804	749.58333
2871.962	745.25
2874.118	757.58333
2876.274	782.58333
2878.428	783.91667
2880.58	766.91667
2882.731	748.58333
2884.881	747.91667
2887.03	766.91667
2889.177	751.25
2891.322	760.58333
2893.467	755.91667
2895.61	755.91667
2897.751	775.58333
2899.892	765.58333
2902.03	773.91667
2904.168	776.58333
2906.304	774.91667
2908.439	798.58333
2910.572	784.58333
2912.704	801.25
2914.835	786.91667
2916.965	792.58333
2919.093	799.91667
2921.219	787.58333
2923.345	803.25
2925.469	773.91667
2927.591	763.25
2929.712	739.91667
2931.832	757.91667
2933.951	728.25
2936.068	732.91667
2938.184	692.58333
2940.299	688.25
2942.412	671.58333
2944.524	638.25
2946.634	630.58333
2948.744	586.25
2950.851	606.25
2952.958	566.58333
2955.063	577.25
2957.167	560.91667
2959.269	524.58333
2961.371	559.25
2963.471	517.25
2965.569	524.91667
2967.666	496.91667
2969.762	488.25
2971.857	482.58333
2973.95	466.58333
2976.042	460.58333
2978.133	445.58333
2980.222	443.58333
2982.31	418.91667
2984.396	407.58333
2986.482	409.58333
2988.566	402.91667
2990.648	409.25
2992.73	391.25
2994.81	379.91667
2996.889	388.91667
2998.966	394.91667
3001.042	397.58333
3003.117	378.91667
3005.191	376.58333
3007.263	381.58333
3009.334	370.25
3011.403	376.91667
3013.472	361.25
3015.539	361.91667
3017.604	373.58333
3019.669	333.91667
3021.732	341.25
3023.794	332.58333
3025.854	334.25
3027.914	332.91667
3029.971	346.58333
3032.028	335.25
3034.083	338.25
3036.137	334.58333
3038.19	322.91667
3040.242	315.58333
3042.292	311.58333
3044.341	308.58333
3046.388	324.91667
3048.435	300.25
3050.48	310.25
3052.524	311.91667
3054.566	288.91667
3056.607	297.58333
3058.647	290.25
3060.686	284.25
3062.723	269.91667
3064.759	259.25
3066.794	-0.08333
3068.828	2.58333
3070.86	3.25
