-0.839	470.41667
3.438	568.75
7.711	168.08333
11.981	59.08333
16.247	45.08333
20.509	50.08333
24.768	47.41667
29.024	54.41667
33.276	45.75
37.524	51.41667
41.769	47.41667
46.01	33.41667
50.247	45.08333
54.481	61.75
58.712	62.41667
62.939	49.08333
67.162	62.75
71.382	59.41667
75.599	46.41667
79.812	66.75
84.021	81.41667
88.227	63.41667
92.429	62.75
96.628	56.75
100.823	75.75
105.015	77.75
109.204	72.08333
113.388	80.75
117.57	79.75
121.748	93.75
125.922	87.75
130.093	103.08333
134.261	99.41667
138.425	108.75
142.585	145.75
146.742	143.41667
150.896	175.41667
155.046	228.08333
159.193	372.41667
163.336	645.75
167.476	1172.41667
171.613	2127.41667
175.746	3489.75
179.875	5075.08333
184.002	6583.41667
188.124	7507.75
192.244	7727.41667
196.36	7631.75
200.472	7346.41667
204.581	7071.08333
208.687	6843.08333
212.79	6769.08333
216.889	6721.41667
220.984	6674.75
225.077	6679.41667
229.165	6675.08333
233.251	6651.41667
237.333	6618.08333
241.412	6524.41667
245.487	6464.08333
249.559	6373.41667
253.628	6316.75
257.694	6294.41667
261.756	6252.75
265.814	6078.75
269.87	5885.08333
273.922	5696.08333
277.97	5594.75
282.016	5467.08333
286.058	5429.75
290.097	5520.75
294.132	5605.08333
298.164	5621.08333
302.193	5388.75
306.219	4998.41667
310.241	4571.08333
314.26	4283.41667
318.276	3962.41667
322.288	3786.08333
326.297	3597.08333
330.303	3469.08333
334.305	3397.41667
338.305	3327.08333
342.301	3285.08333
346.294	3261.08333
350.283	3221.75
354.269	3174.75
358.252	3166.75
362.232	3164.41667
366.209	3136.41667
370.182	3097.75
374.152	3101.08333
378.119	3092.41667
382.083	3089.41667
386.043	3115.41667
390	3085.08333
393.954	3130.08333
397.905	3123.75
401.852	3095.41667
405.797	3050.75
409.738	3123.08333
413.676	3231.41667
417.61	3300.75
421.542	3055.75
425.47	2952.75
429.396	2904.75
433.318	2869.75
437.236	2866.75
441.152	2890.08333
445.065	2848.75
448.974	2833.08333
452.88	2789.75
456.783	2780.75
460.683	2776.08333
464.58	2764.41667
468.473	2774.08333
472.364	2772.08333
476.251	2795.41667
480.135	2811.08333
484.016	2856.41667
487.894	2863.75
491.769	2840.08333
495.641	2860.41667
499.509	2876.41667
503.375	2856.75
507.237	2835.08333
511.096	2841.41667
514.952	2854.75
518.805	2884.41667
522.655	2889.08333
526.502	2862.41667
530.346	2835.08333
534.187	2864.08333
538.024	2885.75
541.859	2911.75
545.69	2911.41667
549.519	2898.08333
553.344	2875.75
557.166	2828.41667
560.985	2826.75
564.802	2755.41667
568.615	2732.75
572.425	2653.41667
576.232	2663.75
580.036	2668.75
583.836	2668.75
587.634	2666.41667
591.429	2670.08333
595.221	2734.75
599.01	2757.08333
602.796	2775.41667
606.578	2808.41667
610.358	2815.41667
614.135	2790.75
617.909	2777.75
621.679	2741.75
625.447	2717.75
629.212	2749.08333
632.973	2733.08333
636.732	2748.75
640.488	2756.75
644.241	2710.08333
647.991	2707.75
651.737	2711.08333
655.481	2679.08333
659.222	2687.08333
662.96	2665.08333
666.695	2716.75
670.427	2731.41667
674.156	2729.41667
677.882	2708.75
681.605	2703.75
685.325	2691.41667
689.043	2675.75
692.757	2670.41667
696.468	2666.08333
700.177	2664.08333
703.882	2621.75
707.585	2625.08333
711.284	2622.75
714.981	2620.08333
718.675	2604.75
722.366	2630.41667
726.054	2614.08333
729.739	2603.75
733.421	2619.41667
737.1	2608.41667
740.777	2648.41667
744.45	2658.41667
748.121	2673.08333
751.789	2715.75
755.453	2705.41667
759.115	2748.08333
762.774	2721.41667
766.431	2761.08333
770.084	2791.41667
773.734	2814.41667
777.382	2871.41667
781.027	2899.08333
784.669	2888.41667
788.308	2910.41667
791.944	2926.08333
795.577	2916.75
799.208	2947.08333
802.835	2962.08333
806.46	3006.41667
810.082	2995.75
813.701	2998.08333
817.317	3031.75
820.931	3045.75
824.542	3041.08333
828.149	3005.08333
831.754	2979.08333
835.357	2991.75
838.956	2989.75
842.553	3031.75
846.146	3047.75
849.737	2958.41667
853.326	2923.41667
856.911	2927.41667
860.493	3014.75
864.073	3066.08333
867.65	3199.41667
871.225	3190.08333
874.796	3095.41667
878.365	3091.41667
881.931	3118.75
885.494	3142.08333
889.054	3125.75
892.612	3116.75
896.166	3099.08333
899.719	3091.08333
903.268	3021.08333
906.814	3008.08333
910.358	3005.08333
913.899	2996.75
917.438	2991.41667
920.973	2976.41667
924.506	3009.08333
928.036	3072.75
931.564	3108.41667
935.088	3149.75
938.61	3150.08333
942.129	3185.75
945.646	3240.41667
949.16	3319.08333
952.671	3345.75
956.179	3364.08333
959.685	3318.08333
963.188	3303.08333
966.688	3271.08333
970.185	3175.08333
973.68	3113.75
977.173	3046.75
980.662	3022.08333
984.149	2998.08333
987.633	2998.75
991.114	3023.75
994.593	3095.75
998.069	3158.75
1001.542	3277.08333
1005.013	3233.41667
1008.481	3030.75
1011.947	2980.75
1015.409	2977.08333
1018.869	2983.08333
1022.327	2956.08333
1025.782	2942.41667
1029.234	2929.75
1032.683	2895.75
1036.13	2780.08333
1039.574	2706.08333
1043.016	2640.08333
1046.455	2580.08333
1049.891	2584.75
1053.325	2565.08333
1056.756	2569.75
1060.184	2609.75
1063.61	2588.75
1067.033	2629.41667
1070.454	2620.08333
1073.872	2649.75
1077.287	2650.41667
1080.7	2638.41667
1084.11	2631.41667
1087.517	2607.41667
1090.922	2565.75
1094.325	2552.08333
1097.724	2545.75
1101.122	2547.41667
1104.516	2549.08333
1107.908	2554.41667
1111.298	2593.08333
1114.684	2631.41667
1118.069	2653.41667
1121.45	2724.75
1124.83	2704.41667
1128.206	2731.75
1131.58	2794.08333
1134.951	2863.41667
1138.32	2957.75
1141.687	3068.75
1145.05	3144.75
1148.412	3164.08333
1151.77	3148.75
1155.126	3133.08333
1158.48	3133.08333
1161.831	3163.75
1165.18	3182.08333
1168.525	3222.41667
1171.869	3259.08333
1175.21	3251.08333
1178.548	3300.75
1181.884	3316.41667
1185.217	3326.41667
1188.548	3411.41667
1191.877	3488.08333
1195.202	3572.75
1198.526	3655.41667
1201.846	3676.08333
1205.165	3635.75
1208.48	3622.08333
1211.794	3573.08333
1215.104	3590.75
1218.413	3567.75
1221.719	3557.75
1225.022	3496.08333
1228.323	3449.75
1231.621	3414.08333
1234.917	3397.41667
1238.21	3394.41667
1241.501	3402.08333
1244.79	3390.08333
1248.076	3352.41667
1251.359	3380.08333
1254.64	3450.41667
1257.919	3472.41667
1261.195	3558.41667
1264.468	3623.41667
1267.74	3658.08333
1271.008	3685.75
1274.275	3680.75
1277.538	3656.41667
1280.8	3633.41667
1284.059	3623.41667
1287.315	3672.75
1290.569	3686.41667
1293.821	3737.75
1297.07	3717.75
1300.317	3719.08333
1303.562	3733.41667
1306.803	3696.75
1310.043	3690.08333
1313.28	3628.41667
1316.515	3609.41667
1319.747	3590.41667
1322.977	3559.75
1326.204	3500.75
1329.429	3455.41667
1332.652	3437.75
1335.872	3423.41667
1339.09	3361.08333
1342.306	3343.08333
1345.519	3308.75
1348.729	3297.75
1351.938	3272.75
1355.144	3257.08333
1358.347	3185.08333
1361.548	3171.08333
1364.747	3183.75
1367.944	3158.08333
1371.138	3161.41667
1374.329	3187.75
1377.518	3213.41667
1380.705	3229.08333
1383.89	3217.75
1387.072	3129.75
1390.252	2996.75
1393.429	2891.08333
1396.605	2808.08333
1399.777	2728.08333
1402.948	2686.08333
1406.116	2648.41667
1409.282	2660.08333
1412.445	2646.41667
1415.606	2696.41667
1418.765	2700.41667
1421.921	2782.41667
1425.075	2833.08333
1428.227	2919.75
1431.376	3043.08333
1434.524	3139.08333
1437.668	3235.08333
1440.811	3268.41667
1443.951	3278.75
1447.089	3293.08333
1450.224	3302.08333
1453.357	3280.41667
1456.488	3275.75
1459.617	3221.41667
1462.743	3196.75
1465.867	3128.41667
1468.989	3081.08333
1472.108	3032.75
1475.225	2990.08333
1478.34	2969.41667
1481.453	3002.08333
1484.563	2991.08333
1487.671	3025.75
1490.776	3078.08333
1493.88	3142.75
1496.981	3181.75
1500.08	3248.75
1503.176	3291.41667
1506.271	3321.41667
1509.363	3393.41667
1512.452	3422.08333
1515.54	3445.08333
1518.625	3505.75
1521.708	3574.08333
1524.789	3677.08333
1527.867	3821.41667
1530.944	4017.08333
1534.018	4152.41667
1537.089	4298.41667
1540.159	4312.75
1543.226	4293.41667
1546.291	4225.75
1549.354	4148.41667
1552.415	4061.08333
1555.473	3958.08333
1558.529	3926.75
1561.583	3893.41667
1564.634	3872.75
1567.684	3891.08333
1570.731	3881.08333
1573.776	3927.08333
1576.819	4032.75
1579.859	4074.08333
1582.898	4129.75
1585.934	4145.41667
1588.968	4139.41667
1591.999	4181.08333
1595.029	4165.08333
1598.056	4169.41667
1601.081	4168.08333
1604.104	4140.08333
1607.125	4095.08333
1610.144	4041.08333
1613.16	3920.41667
1616.174	3855.41667
1619.186	3731.08333
1622.196	3655.08333
1625.203	3542.41667
1628.209	3460.75
1631.212	3382.75
1634.213	3361.75
1637.212	3323.41667
1640.209	3267.08333
1643.203	3174.75
1646.196	3073.08333
1649.186	2955.75
1652.174	2844.41667
1655.16	2750.75
1658.144	2668.08333
1661.125	2550.75
1664.105	2437.41667
1667.082	2314.08333
1670.057	2205.08333
1673.03	2069.41667
1676.001	1952.08333
1678.97	1829.08333
1681.937	1712.41667
1684.901	1627.75
1687.863	1577.08333
1690.824	1490.75
1693.782	1469.41667
1696.738	1407.41667
1699.692	1383.75
1702.643	1354.75
1705.593	1328.08333
1708.54	1308.08333
1711.486	1305.41667
1714.429	1251.75
1717.37	1270.08333
1720.309	1243.41667
1723.246	1244.75
1726.181	1213.08333
1729.113	1218.41667
1732.044	1191.75
1734.972	1183.75
1737.899	1206.41667
1740.823	1188.75
1743.745	1191.41667
1746.665	1140.41667
1749.583	1128.08333
1752.499	1100.75
1755.413	1103.08333
1758.325	1068.75
1761.235	1065.08333
1764.142	1050.08333
1767.048	1033.75
1769.951	1047.75
1772.852	1035.41667
1775.752	1106.08333
1778.649	1148.08333
1781.544	1078.08333
1784.437	997.08333
1787.328	1010.08333
1790.217	996.75
1793.104	983.75
1795.989	973.08333
1798.872	961.08333
1801.753	981.08333
1804.631	970.75
1807.508	969.08333
1810.383	969.75
1813.255	952.41667
1816.126	948.75
1818.994	957.08333
1821.861	955.75
1824.725	932.08333
1827.587	937.41667
1830.448	930.75
1833.306	894.08333
1836.162	926.75
1839.017	923.75
1841.869	919.08333
1844.719	906.75
1847.567	886.75
1850.414	881.41667
1853.258	894.08333
1856.1	901.08333
1858.94	892.41667
1861.778	885.75
1864.614	884.08333
1867.448	883.41667
1870.28	876.75
1873.111	891.75
1875.939	873.08333
1878.765	901.08333
1881.589	873.08333
1884.411	872.08333
1887.231	869.08333
1890.049	871.41667
1892.865	879.08333
1895.68	869.08333
1898.492	895.75
1901.302	865.41667
1904.11	855.41667
1906.916	840.75
1909.721	824.75
1912.523	842.75
1915.323	839.41667
1918.122	816.75
1920.918	830.41667
1923.712	824.41667
1926.505	817.41667
1929.295	815.08333
1932.084	828.08333
1934.87	810.41667
1937.655	806.08333
1940.438	806.41667
1943.218	811.08333
1945.997	813.75
1948.774	829.08333
1951.549	821.41667
1954.322	806.08333
1957.093	807.08333
1959.862	791.75
1962.629	780.41667
1965.394	782.41667
1968.157	785.08333
1970.918	787.08333
1973.678	762.41667
1976.435	790.75
1979.19	767.75
1981.944	756.75
1984.696	773.41667
1987.445	748.08333
1990.193	753.75
1992.939	779.08333
1995.683	761.08333
1998.425	747.41667
2001.165	778.08333
2003.903	748.75
2006.639	758.41667
2009.374	755.75
2012.106	749.75
2014.837	732.41667
2017.566	752.75
2020.292	747.41667
2023.017	749.41667
2025.74	737.41667
2028.461	728.41667
2031.18	744.75
2033.898	734.41667
2036.613	729.41667
2039.327	736.41667
2042.038	717.75
2044.748	724.08333
2047.456	733.41667
2050.162	707.75
2052.866	720.41667
2055.568	725.08333
2058.268	714.41667
2060.967	722.08333
2063.663	702.08333
2066.358	699.41667
2069.051	700.41667
2071.742	706.75
2074.431	710.41667
2077.118	709.08333
2079.804	698.41667
2082.487	717.75
2085.169	712.41667
2087.849	732.08333
2090.527	691.75
2093.203	699.41667
2095.877	715.41667
2098.55	707.41667
2101.22	716.41667
2103.889	729.41667
2106.556	724.41667
2109.221	754.41667
2111.884	751.08333
2114.546	792.75
2117.205	839.75
2119.863	904.08333
2122.519	955.41667
2125.173	998.08333
2127.825	1051.75
2130.475	1060.41667
2133.124	1042.75
2135.771	995.08333
2138.416	956.08333
2141.059	875.41667
2143.7	865.08333
2146.339	790.08333
2148.977	760.41667
2151.613	764.08333
2154.247	748.41667
2156.879	729.08333
2159.51	702.75
2162.138	697.41667
2164.765	692.08333
2167.39	680.75
2170.013	702.08333
2172.634	691.75
2175.254	687.41667
2177.872	718.08333
2180.488	663.41667
2183.102	661.08333
2185.714	652.41667
2188.325	637.75
2190.934	648.75
2193.541	646.08333
2196.146	643.08333
2198.75	629.08333
2201.351	638.08333
2203.951	616.75
2206.549	642.08333
2209.146	630.08333
2211.74	626.08333
2214.333	628.75
2216.924	609.41667
2219.514	608.41667
2222.101	610.41667
2224.687	622.41667
2227.271	609.41667
2229.853	601.41667
2232.433	586.75
2235.012	610.75
2237.589	590.75
2240.164	596.75
2242.738	598.75
2245.309	574.41667
2247.879	593.41667
2250.448	589.75
2253.014	566.08333
2255.579	542.75
2258.142	563.75
2260.703	556.41667
2263.262	562.08333
2265.82	550.08333
2268.376	554.41667
2270.93	530.75
2273.483	530.41667
2276.033	540.41667
2278.583	542.75
2281.13	530.08333
2283.675	530.41667
2286.219	534.08333
2288.761	541.41667
2291.302	543.75
2293.841	543.75
2296.377	521.75
2298.913	525.41667
2301.446	532.75
2303.978	531.41667
2306.508	512.08333
2309.037	524.41667
2311.563	516.08333
2314.088	531.41667
2316.612	506.75
2319.133	512.08333
2321.653	509.41667
2324.171	504.41667
2326.688	522.08333
2329.202	502.75
2331.715	507.08333
2334.227	502.08333
2336.736	504.75
2339.244	501.41667
2341.751	485.08333
2344.255	505.75
2346.758	503.41667
2349.259	485.08333
2351.759	498.08333
2354.257	492.08333
2356.753	480.75
2359.247	485.41667
2361.74	492.08333
2364.231	493.75
2366.721	495.41667
2369.209	491.41667
2371.695	486.75
2374.179	477.41667
2376.662	477.41667
2379.143	495.41667
2381.622	479.08333
2384.1	497.41667
2386.576	486.75
2389.051	500.41667
2391.524	504.08333
2393.995	488.75
2396.464	481.08333
2398.932	476.41667
2401.398	467.08333
2403.863	476.75
2406.325	469.75
2408.787	469.41667
2411.246	481.08333
2413.704	464.41667
2416.16	461.08333
2418.615	462.41667
2421.068	480.75
2423.519	478.75
2425.969	460.08333
2428.417	466.08333
2430.863	490.75
2433.308	469.08333
2435.751	464.41667
2438.193	475.08333
2440.633	461.08333
2443.071	463.41667
2445.508	466.08333
2447.943	459.41667
2450.376	454.08333
2452.808	452.75
2455.238	447.75
2457.667	489.08333
2460.093	452.41667
2462.519	446.41667
2464.942	449.41667
2467.365	458.75
2469.785	463.08333
2472.204	458.41667
2474.621	441.08333
2477.037	468.41667
2479.451	432.75
2481.863	431.41667
2484.274	444.41667
2486.683	457.08333
2489.091	456.75
2491.497	451.08333
2493.901	451.75
2496.304	442.75
2498.705	458.75
2501.105	442.75
2503.503	473.41667
2505.899	435.75
2508.294	456.41667
2510.687	437.75
2513.079	439.08333
2515.469	431.41667
2517.858	443.75
2520.245	460.75
2522.63	437.08333
2525.014	430.41667
2527.396	440.08333
2529.776	429.41667
2532.156	447.08333
2534.533	429.41667
2536.909	423.08333
2539.283	416.41667
2541.656	427.08333
2544.027	448.08333
2546.397	426.08333
2548.765	432.41667
2551.131	429.75
2553.496	429.08333
2555.86	437.75
2558.221	432.75
2560.582	424.75
2562.94	420.41667
2565.298	424.08333
2567.653	435.75
2570.007	414.41667
2572.36	441.08333
2574.711	416.41667
2577.06	439.75
2579.408	440.08333
2581.754	428.41667
2584.099	435.75
2586.442	425.41667
2588.784	429.41667
2591.124	430.41667
2593.463	426.75
2595.8	434.75
2598.135	416.41667
2600.469	425.75
2602.802	436.41667
2605.133	436.41667
2607.462	417.41667
2609.79	417.08333
2612.116	430.75
2614.441	428.41667
2616.764	427.75
2619.086	429.41667
2621.406	416.08333
2623.725	435.41667
2626.042	429.41667
2628.358	413.41667
2630.672	421.08333
2632.985	442.75
2635.296	433.08333
2637.606	418.08333
2639.914	414.75
2642.22	416.08333
2644.525	432.41667
2646.829	441.75
2649.131	442.41667
2651.432	441.08333
2653.731	432.08333
2656.028	448.08333
2658.324	449.41667
2660.619	430.75
2662.912	444.41667
2665.204	426.41667
2667.494	443.41667
2669.782	425.75
2672.07	437.08333
2674.355	446.08333
2676.639	441.41667
2678.922	425.75
2681.203	434.75
2683.483	429.08333
2685.761	434.75
2688.038	435.41667
2690.313	444.41667
2692.587	439.75
2694.859	430.41667
2697.13	447.75
2699.399	449.08333
2701.667	462.08333
2703.933	450.41667
2706.198	457.08333
2708.461	468.08333
2710.723	466.41667
2712.984	458.75
2715.243	459.08333
2717.5	452.41667
2719.757	473.75
2722.011	458.41667
2724.264	469.41667
2726.516	493.41667
2728.766	462.08333
2731.015	470.75
2733.262	471.08333
2735.508	476.41667
2737.753	472.41667
2739.996	469.41667
2742.237	454.08333
2744.477	470.41667
2746.716	474.75
2748.953	454.08333
2751.189	462.75
2753.423	457.41667
2755.656	442.41667
2757.887	434.41667
2760.117	444.75
2762.346	442.08333
2764.573	448.41667
2766.798	454.75
2769.022	448.08333
2771.245	453.75
2773.467	443.75
2775.686	453.08333
2777.905	460.41667
2780.122	464.75
2782.337	462.41667
2784.552	465.41667
2786.764	459.75
2788.976	478.41667
2791.186	475.08333
2793.394	485.75
2795.601	481.08333
2797.807	493.75
2800.011	497.41667
2802.214	496.75
2804.415	498.75
2806.615	498.08333
2808.814	496.41667
2811.011	510.41667
2813.206	512.08333
2815.401	523.41667
2817.594	528.75
2819.785	534.75
2821.975	524.41667
2824.164	529.75
2826.351	558.75
2828.537	568.41667
2830.722	576.08333
2832.905	579.41667
2835.086	618.41667
2837.267	630.75
2839.445	650.75
2841.623	668.75
2843.799	699.75
2845.974	727.41667
2848.147	751.08333
2850.319	768.75
2852.489	785.41667
2854.659	825.08333
2856.826	833.75
2858.993	844.75
2861.158	840.41667
2863.321	838.41667
2865.483	858.41667
2867.644	865.75
2869.804	850.08333
2871.962	869.75
2874.118	858.41667
2876.274	910.75
2878.428	888.08333
2880.58	866.08333
2882.731	844.08333
2884.881	841.75
2887.03	868.75
2889.177	844.75
2891.322	874.41667
2893.467	867.41667
2895.61	856.08333
2897.751	879.75
2899.892	866.75
2902.03	895.75
2904.168	890.08333
2906.304	895.75
2908.439	911.41667
2910.572	891.08333
2912.704	915.41667
2914.835	918.41667
2916.965	914.41667
2919.093	919.75
2921.219	901.41667
2923.345	911.75
2925.469	884.75
2927.591	887.75
2929.712	854.75
2931.832	843.08333
2933.951	850.41667
2936.068	826.75
2938.184	813.75
2940.299	782.08333
2942.412	769.75
2944.524	723.75
2946.634	733.75
2948.744	681.75
2950.851	695.41667
2952.958	665.08333
2955.063	661.75
2957.167	648.41667
2959.269	619.41667
2961.371	635.41667
2963.471	595.75
2965.569	617.41667
2967.666	566.41667
2969.762	578.75
2971.857	566.08333
2973.95	537.75
2976.042	552.41667
2978.133	537.08333
2980.222	520.75
2982.31	495.41667
2984.396	486.75
2986.482	482.75
2988.566	480.08333
2990.648	479.08333
2992.73	472.75
2994.81	469.08333
2996.889	467.75
2998.966	463.41667
3001.042	471.75
3003.117	470.41667
3005.191	459.41667
3007.263	453.08333
3009.334	448.75
3011.403	448.41667
3013.472	433.08333
3015.539	436.08333
3017.604	446.41667
3019.669	397.75
3021.732	417.75
3023.794	411.75
3025.854	399.41667
3027.914	403.75
3029.971	417.08333
3032.028	403.08333
3034.083	405.41667
3036.137	399.41667
3038.19	391.41667
3040.242	383.75
3042.292	368.41667
3044.341	373.08333
3046.388	385.41667
3048.435	361.75
3050.48	381.41667
3052.524	360.75
3054.566	353.75
3056.607	365.41667
3058.647	348.08333
3060.686	337.41667
3062.723	330.41667
3064.759	308.75
3066.794	-2.58333
3068.828	3.08333
3070.86	3.08333
