-0.839	514.41667
3.438	599.41667
7.711	172.41667
11.981	64.08333
16.247	47.75
20.509	51.75
24.768	49.08333
29.024	54.08333
33.276	46.41667
37.524	52.75
41.769	49.75
46.01	33.41667
50.247	48.08333
54.481	59.75
58.712	63.75
62.939	50.75
67.162	66.75
71.382	59.08333
75.599	49.75
79.812	65.08333
84.021	79.41667
88.227	59.75
92.429	66.41667
96.628	53.75
100.823	72.75
105.015	82.08333
109.204	70.75
113.388	76.41667
117.57	80.08333
121.748	91.41667
125.922	85.75
130.093	108.41667
134.261	106.41667
138.425	110.75
142.585	146.75
146.742	137.41667
150.896	174.75
155.046	223.08333
159.193	352.41667
163.336	610.08333
167.476	1121.75
171.613	2056.41667
175.746	3347.75
179.875	4949.41667
184.002	6368.41667
188.124	7335.75
192.244	7570.08333
196.36	7456.08333
200.472	7174.75
204.581	6959.41667
208.687	6720.41667
212.79	6566.41667
216.889	6513.75
220.984	6500.75
225.077	6454.41667
229.165	6424.75
233.251	6405.75
237.333	6399.41667
241.412	6272.41667
245.487	6168.75
249.559	6118.75
253.628	6046.08333
257.694	6053.41667
261.756	5979.08333
265.814	5889.75
269.87	5722.08333
273.922	5560.75
277.97	5452.41667
282.016	5338.75
286.058	5321.75
290.097	5368.41667
294.132	5431.41667
298.164	5419.08333
302.193	5240.75
306.219	4922.41667
310.241	4595.41667
314.26	4310.41667
318.276	4064.08333
322.288	3899.75
326.297	3764.08333
330.303	3701.08333
334.305	3667.41667
338.305	3599.75
342.301	3572.75
346.294	3528.41667
350.283	3532.75
354.269	3510.75
358.252	3495.08333
362.232	3494.75
366.209	3474.41667
370.182	3460.75
374.152	3426.41667
378.119	3439.75
382.083	3430.75
386.043	3475.41667
390	3460.75
393.954	3499.08333
397.905	3488.75
401.852	3501.75
405.797	3459.08333
409.738	3507.08333
413.676	3546.41667
417.61	3597.08333
421.542	3477.41667
425.47	3390.41667
429.396	3352.75
433.318	3364.41667
437.236	3329.08333
441.152	3374.41667
445.065	3313.08333
448.974	3314.41667
452.88	3298.41667
456.783	3295.08333
460.683	3265.41667
464.58	3274.08333
468.473	3313.41667
472.364	3298.41667
476.251	3308.75
480.135	3355.08333
484.016	3387.08333
487.894	3385.08333
491.769	3392.41667
495.641	3392.08333
499.509	3392.41667
503.375	3394.08333
507.237	3406.41667
511.096	3378.75
514.952	3384.75
518.805	3401.75
522.655	3428.41667
526.502	3351.08333
530.346	3352.41667
534.187	3375.08333
538.024	3399.41667
541.859	3373.41667
545.69	3414.41667
549.519	3374.08333
553.344	3373.41667
557.166	3338.08333
560.985	3317.75
564.802	3282.08333
568.615	3252.75
572.425	3211.75
576.232	3222.75
580.036	3200.41667
583.836	3215.08333
587.634	3228.41667
591.429	3194.08333
595.221	3255.75
599.01	3277.08333
602.796	3322.75
606.578	3334.41667
610.358	3338.75
614.135	3299.08333
617.909	3319.75
621.679	3307.41667
625.447	3266.75
629.212	3292.08333
632.973	3276.41667
636.732	3281.75
640.488	3287.75
644.241	3222.75
647.991	3222.41667
651.737	3242.41667
655.481	3237.41667
659.222	3239.75
662.96	3228.08333
666.695	3277.41667
670.427	3282.41667
674.156	3281.08333
677.882	3247.41667
681.605	3256.41667
685.325	3245.08333
689.043	3255.41667
692.757	3220.41667
696.468	3210.41667
700.177	3163.41667
703.882	3151.41667
707.585	3154.08333
711.284	3127.41667
714.981	3118.08333
718.675	3139.08333
722.366	3132.41667
726.054	3123.08333
729.739	3089.41667
733.421	3117.08333
737.1	3108.41667
740.777	3136.08333
744.45	3161.41667
748.121	3152.75
751.789	3217.08333
755.453	3190.08333
759.115	3225.08333
762.774	3224.75
766.431	3248.41667
770.084	3267.75
773.734	3276.41667
777.382	3307.75
781.027	3291.75
784.669	3313.41667
788.308	3308.41667
791.944	3325.75
795.577	3346.75
799.208	3362.41667
802.835	3400.41667
806.46	3376.41667
810.082	3448.08333
813.701	3436.41667
817.317	3465.41667
820.931	3455.08333
824.542	3432.75
828.149	3388.41667
831.754	3338.75
835.357	3335.41667
838.956	3317.41667
842.553	3352.75
846.146	3344.75
849.737	3276.75
853.326	3232.08333
856.911	3238.75
860.493	3264.75
864.073	3328.41667
867.65	3384.41667
871.225	3409.75
874.796	3367.41667
878.365	3345.08333
881.931	3329.75
885.494	3376.75
889.054	3344.08333
892.612	3362.75
896.166	3332.08333
899.719	3284.08333
903.268	3234.08333
906.814	3247.75
910.358	3227.75
913.899	3219.75
917.438	3202.75
920.973	3179.41667
924.506	3224.75
928.036	3260.08333
931.564	3299.75
935.088	3348.75
938.61	3342.41667
942.129	3379.08333
945.646	3414.41667
949.16	3461.41667
952.671	3512.08333
956.179	3524.08333
959.685	3503.08333
963.188	3523.75
966.688	3530.75
970.185	3399.41667
973.68	3344.08333
977.173	3290.75
980.662	3253.75
984.149	3272.75
987.633	3243.08333
991.114	3267.41667
994.593	3326.41667
998.069	3381.75
1001.542	3465.41667
1005.013	3437.41667
1008.481	3274.08333
1011.947	3227.75
1015.409	3174.41667
1018.869	3163.41667
1022.327	3166.41667
1025.782	3159.41667
1029.234	3168.75
1032.683	3129.75
1036.13	3029.08333
1039.574	2939.08333
1043.016	2871.08333
1046.455	2829.41667
1049.891	2804.75
1053.325	2833.75
1056.756	2812.75
1060.184	2823.08333
1063.61	2831.41667
1067.033	2843.41667
1070.454	2863.08333
1073.872	2882.75
1077.287	2880.41667
1080.7	2882.41667
1084.11	2864.08333
1087.517	2843.75
1090.922	2806.41667
1094.325	2751.08333
1097.724	2724.41667
1101.122	2738.08333
1104.516	2723.08333
1107.908	2723.08333
1111.298	2758.08333
1114.684	2785.08333
1118.069	2802.08333
1121.45	2814.08333
1124.83	2821.08333
1128.206	2852.41667
1131.58	2871.41667
1134.951	2932.75
1138.32	2997.41667
1141.687	3085.41667
1145.05	3108.75
1148.412	3116.41667
1151.77	3116.41667
1155.126	3086.41667
1158.48	3066.41667
1161.831	3082.41667
1165.18	3085.75
1168.525	3112.75
1171.869	3153.08333
1175.21	3177.75
1178.548	3202.41667
1181.884	3236.75
1185.217	3250.41667
1188.548	3317.41667
1191.877	3361.08333
1195.202	3439.41667
1198.526	3523.75
1201.846	3570.08333
1205.165	3544.75
1208.48	3556.08333
1211.794	3530.08333
1215.104	3549.75
1218.413	3549.75
1221.719	3519.41667
1225.022	3476.75
1228.323	3439.41667
1231.621	3411.08333
1234.917	3395.08333
1238.21	3383.75
1241.501	3360.41667
1244.79	3361.08333
1248.076	3360.08333
1251.359	3403.41667
1254.64	3447.41667
1257.919	3489.41667
1261.195	3526.08333
1264.468	3558.75
1267.74	3606.41667
1271.008	3608.75
1274.275	3618.08333
1277.538	3593.08333
1280.8	3575.08333
1284.059	3554.08333
1287.315	3604.08333
1290.569	3616.41667
1293.821	3609.75
1297.07	3604.08333
1300.317	3631.41667
1303.562	3619.41667
1306.803	3571.75
1310.043	3571.75
1313.28	3551.75
1316.515	3560.08333
1319.747	3515.41667
1322.977	3497.41667
1326.204	3469.75
1329.429	3449.08333
1332.652	3443.41667
1335.872	3417.08333
1339.09	3400.75
1342.306	3416.41667
1345.519	3380.41667
1348.729	3367.75
1351.938	3351.41667
1355.144	3313.41667
1358.347	3264.75
1361.548	3226.08333
1364.747	3251.41667
1367.944	3194.75
1371.138	3201.08333
1374.329	3211.75
1377.518	3206.41667
1380.705	3218.08333
1383.89	3183.08333
1387.072	3130.41667
1390.252	3031.08333
1393.429	2909.75
1396.605	2864.75
1399.777	2764.41667
1402.948	2755.08333
1406.116	2731.41667
1409.282	2732.75
1412.445	2716.75
1415.606	2746.75
1418.765	2744.75
1421.921	2801.41667
1425.075	2849.08333
1428.227	2938.41667
1431.376	3031.75
1434.524	3135.75
1437.668	3213.08333
1440.811	3249.08333
1443.951	3269.75
1447.089	3270.41667
1450.224	3286.75
1453.357	3274.08333
1456.488	3239.41667
1459.617	3205.75
1462.743	3189.75
1465.867	3136.41667
1468.989	3069.08333
1472.108	2994.41667
1475.225	2960.41667
1478.34	2934.08333
1481.453	2907.41667
1484.563	2896.75
1487.671	2913.08333
1490.776	2959.08333
1493.88	3002.08333
1496.981	3022.08333
1500.08	3077.75
1503.176	3114.75
1506.271	3136.41667
1509.363	3174.08333
1512.452	3193.75
1515.54	3240.75
1518.625	3262.75
1521.708	3370.75
1524.789	3455.75
1527.867	3585.41667
1530.944	3748.75
1534.018	3863.41667
1537.089	4009.41667
1540.159	4035.75
1543.226	4006.08333
1546.291	3906.41667
1549.354	3830.08333
1552.415	3722.75
1555.473	3666.41667
1558.529	3585.41667
1561.583	3588.75
1564.634	3523.75
1567.684	3539.41667
1570.731	3572.08333
1573.776	3588.75
1576.819	3634.41667
1579.859	3694.41667
1582.898	3740.41667
1585.934	3776.08333
1588.968	3768.08333
1591.999	3753.41667
1595.029	3762.08333
1598.056	3777.08333
1601.081	3817.75
1604.104	3799.75
1607.125	3769.41667
1610.144	3684.75
1613.16	3637.41667
1616.174	3549.08333
1619.186	3518.08333
1622.196	3438.41667
1625.203	3372.75
1628.209	3336.75
1631.212	3342.41667
1634.213	3382.75
1637.212	3384.08333
1640.209	3358.08333
1643.203	3305.41667
1646.196	3213.08333
1649.186	3050.41667
1652.174	2949.41667
1655.16	2894.75
1658.144	2805.08333
1661.125	2657.08333
1664.105	2563.41667
1667.082	2431.08333
1670.057	2333.08333
1673.03	2200.41667
1676.001	2061.08333
1678.97	1940.08333
1681.937	1847.41667
1684.901	1748.08333
1687.863	1689.41667
1690.824	1635.41667
1693.782	1618.08333
1696.738	1531.41667
1699.692	1519.08333
1702.643	1489.08333
1705.593	1454.41667
1708.54	1450.41667
1711.486	1452.08333
1714.429	1415.75
1717.37	1423.08333
1720.309	1383.75
1723.246	1399.75
1726.181	1374.75
1729.113	1389.41667
1732.044	1367.41667
1734.972	1341.75
1737.899	1353.41667
1740.823	1342.75
1743.745	1339.75
1746.665	1296.75
1749.583	1290.41667
1752.499	1279.08333
1755.413	1262.41667
1758.325	1238.08333
1761.235	1233.41667
1764.142	1214.08333
1767.048	1198.08333
1769.951	1208.75
1772.852	1202.08333
1775.752	1233.75
1778.649	1264.75
1781.544	1220.41667
1784.437	1165.75
1787.328	1171.41667
1790.217	1156.08333
1793.104	1141.08333
1795.989	1132.08333
1798.872	1122.75
1801.753	1145.41667
1804.631	1125.75
1807.508	1129.75
1810.383	1120.75
1813.255	1117.08333
1816.126	1103.08333
1818.994	1099.08333
1821.861	1101.41667
1824.725	1095.75
1827.587	1097.41667
1830.448	1087.75
1833.306	1063.41667
1836.162	1075.41667
1839.017	1065.08333
1841.869	1060.75
1844.719	1054.08333
1847.567	1039.75
1850.414	1033.08333
1853.258	1040.75
1856.1	1046.41667
1858.94	1052.41667
1861.778	1049.41667
1864.614	1023.75
1867.448	1028.08333
1870.28	1020.75
1873.111	1063.08333
1875.939	1036.41667
1878.765	1042.75
1881.589	1020.41667
1884.411	1023.41667
1887.231	1031.08333
1890.049	1033.75
1892.865	1027.08333
1895.68	989.41667
1898.492	1013.41667
1901.302	1006.75
1904.11	1003.08333
1906.916	979.75
1909.721	968.75
1912.523	968.41667
1915.323	957.75
1918.122	963.75
1920.918	971.41667
1923.712	960.41667
1926.505	944.08333
1929.295	943.41667
1932.084	957.08333
1934.87	952.75
1937.655	949.75
1940.438	949.75
1943.218	933.41667
1945.997	942.75
1948.774	960.75
1951.549	961.41667
1954.322	940.08333
1957.093	930.08333
1959.862	925.41667
1962.629	925.41667
1965.394	914.41667
1968.157	895.08333
1970.918	909.75
1973.678	894.41667
1976.435	911.08333
1979.19	898.75
1981.944	890.08333
1984.696	886.08333
1987.445	875.08333
1990.193	886.41667
1992.939	886.75
1995.683	882.75
1998.425	852.41667
2001.165	892.75
2003.903	857.08333
2006.639	868.08333
2009.374	877.75
2012.106	863.75
2014.837	847.41667
2017.566	866.08333
2020.292	859.41667
2023.017	849.75
2025.74	861.75
2028.461	840.41667
2031.18	845.75
2033.898	835.41667
2036.613	834.75
2039.327	825.08333
2042.038	829.75
2044.748	837.08333
2047.456	836.41667
2050.162	819.75
2052.866	827.41667
2055.568	818.08333
2058.268	821.41667
2060.967	822.41667
2063.663	799.08333
2066.358	800.08333
2069.051	796.41667
2071.742	794.41667
2074.431	805.08333
2077.118	792.41667
2079.804	790.75
2082.487	798.75
2085.169	796.08333
2087.849	818.08333
2090.527	785.75
2093.203	808.75
2095.877	802.75
2098.55	807.75
2101.22	815.41667
2103.889	819.41667
2106.556	804.75
2109.221	828.08333
2111.884	858.75
2114.546	1120.41667
2117.205	994.75
2119.863	939.75
2122.519	978.75
2125.173	1027.08333
2127.825	1079.75
2130.475	1074.41667
2133.124	1055.41667
2135.771	1022.41667
2138.416	993.75
2141.059	944.08333
2143.7	906.75
2146.339	882.08333
2148.977	828.75
2151.613	839.41667
2154.247	812.41667
2156.879	783.41667
2159.51	778.08333
2162.138	761.08333
2164.765	768.75
2167.39	741.75
2170.013	763.41667
2172.634	754.41667
2175.254	739.08333
2177.872	762.08333
2180.488	716.75
2183.102	731.08333
2185.714	717.41667
2188.325	693.75
2190.934	697.75
2193.541	710.08333
2196.146	692.75
2198.75	668.08333
2201.351	675.41667
2203.951	669.75
2206.549	687.75
2209.146	671.08333
2211.74	668.08333
2214.333	669.41667
2216.924	649.41667
2219.514	656.75
2222.101	653.08333
2224.687	665.08333
2227.271	656.41667
2229.853	638.08333
2232.433	636.08333
2235.012	651.41667
2237.589	656.75
2240.164	651.08333
2242.738	644.75
2245.309	629.75
2247.879	643.75
2250.448	646.08333
2253.014	621.75
2255.579	605.08333
2258.142	612.75
2260.703	595.75
2263.262	614.41667
2265.82	600.08333
2268.376	598.75
2270.93	589.75
2273.483	590.08333
2276.033	589.08333
2278.583	591.75
2281.13	589.41667
2283.675	571.41667
2286.219	573.08333
2288.761	592.08333
2291.302	576.75
2293.841	585.75
2296.377	557.75
2298.913	573.08333
2301.446	577.75
2303.978	568.75
2306.508	571.41667
2309.037	567.41667
2311.563	559.08333
2314.088	562.08333
2316.612	551.08333
2319.133	559.08333
2321.653	547.75
2324.171	539.41667
2326.688	562.75
2329.202	554.75
2331.715	548.41667
2334.227	547.75
2336.736	542.75
2339.244	538.08333
2341.751	532.75
2344.255	541.08333
2346.758	536.08333
2349.259	517.41667
2351.759	535.75
2354.257	532.41667
2356.753	515.08333
2359.247	525.08333
2361.74	527.41667
2364.231	528.41667
2366.721	528.08333
2369.209	512.75
2371.695	530.41667
2374.179	519.75
2376.662	509.08333
2379.143	532.41667
2381.622	514.75
2384.1	535.08333
2386.576	520.75
2389.051	526.08333
2391.524	525.75
2393.995	516.41667
2396.464	499.41667
2398.932	500.75
2401.398	501.08333
2403.863	496.41667
2406.325	491.75
2408.787	491.41667
2411.246	502.41667
2413.704	492.08333
2416.16	492.08333
2418.615	493.75
2421.068	498.08333
2423.519	498.08333
2425.969	483.75
2428.417	496.08333
2430.863	520.41667
2433.308	501.08333
2435.751	484.08333
2438.193	486.08333
2440.633	489.75
2443.071	491.41667
2445.508	484.08333
2447.943	484.41667
2450.376	479.41667
2452.808	471.08333
2455.238	474.75
2457.667	509.41667
2460.093	467.75
2462.519	460.08333
2464.942	470.08333
2467.365	473.41667
2469.785	485.08333
2472.204	466.08333
2474.621	458.08333
2477.037	480.41667
2479.451	451.41667
2481.863	454.41667
2484.274	466.08333
2486.683	458.41667
2489.091	472.41667
2491.497	444.75
2493.901	471.08333
2496.304	450.41667
2498.705	460.41667
2501.105	450.75
2503.503	477.08333
2505.899	439.75
2508.294	461.75
2510.687	444.41667
2513.079	452.75
2515.469	440.41667
2517.858	452.08333
2520.245	457.08333
2522.63	445.41667
2525.014	434.75
2527.396	436.75
2529.776	431.75
2532.156	448.41667
2534.533	446.08333
2536.909	431.08333
2539.283	426.75
2541.656	423.41667
2544.027	450.41667
2546.397	426.41667
2548.765	427.08333
2551.131	432.08333
2553.496	430.75
2555.86	442.08333
2558.221	425.08333
2560.582	424.75
2562.94	410.75
2565.298	423.75
2567.653	436.75
2570.007	407.75
2572.36	430.41667
2574.711	421.75
2577.06	434.75
2579.408	429.41667
2581.754	417.41667
2584.099	423.41667
2586.442	412.75
2588.784	426.75
2591.124	411.75
2593.463	426.08333
2595.8	417.08333
2598.135	408.75
2600.469	411.75
2602.802	418.75
2605.133	426.08333
2607.462	405.41667
2609.79	403.08333
2612.116	421.75
2614.441	417.75
2616.764	418.08333
2619.086	417.75
2621.406	402.08333
2623.725	424.75
2626.042	418.08333
2628.358	405.41667
2630.672	409.75
2632.985	429.08333
2635.296	419.08333
2637.606	411.41667
2639.914	400.41667
2642.22	408.41667
2644.525	416.75
2646.829	418.08333
2649.131	430.41667
2651.432	421.08333
2653.731	410.41667
2656.028	423.41667
2658.324	424.75
2660.619	408.75
2662.912	407.75
2665.204	402.08333
2667.494	417.75
2669.782	409.41667
2672.07	418.75
2674.355	429.08333
2676.639	416.08333
2678.922	399.41667
2681.203	422.75
2683.483	407.41667
2685.761	404.41667
2688.038	407.41667
2690.313	429.41667
2692.587	422.75
2694.859	407.41667
2697.13	418.41667
2699.399	424.08333
2701.667	428.41667
2703.933	423.41667
2706.198	422.75
2708.461	430.75
2710.723	433.41667
2712.984	430.75
2715.243	441.75
2717.5	431.75
2719.757	447.41667
2722.011	431.75
2724.264	450.75
2726.516	446.41667
2728.766	439.08333
2731.015	435.75
2733.262	446.08333
2735.508	435.75
2737.753	433.75
2739.996	420.41667
2742.237	427.08333
2744.477	436.08333
2746.716	436.41667
2748.953	425.41667
2751.189	425.41667
2753.423	428.75
2755.656	408.75
2757.887	410.75
2760.117	414.41667
2762.346	406.75
2764.573	401.75
2766.798	406.08333
2769.022	409.08333
2771.245	413.08333
2773.467	416.08333
2775.686	416.41667
2777.905	419.08333
2780.122	430.41667
2782.337	428.41667
2784.552	423.08333
2786.764	427.08333
2788.976	425.08333
2791.186	415.75
2793.394	437.41667
2795.601	434.41667
2797.807	453.08333
2800.011	456.08333
2802.214	456.41667
2804.415	455.08333
2806.615	448.08333
2808.814	456.08333
2811.011	474.75
2813.206	466.75
2815.401	478.41667
2817.594	478.75
2819.785	492.75
2821.975	475.41667
2824.164	489.41667
2826.351	495.41667
2828.537	515.41667
2830.722	513.41667
2832.905	524.75
2835.086	548.41667
2837.267	567.41667
2839.445	583.75
2841.623	613.41667
2843.799	621.41667
2845.974	655.08333
2848.147	669.08333
2850.319	701.75
2852.489	732.08333
2854.659	724.75
2856.826	752.08333
2858.993	779.75
2861.158	753.08333
2863.321	753.75
2865.483	769.75
2867.644	774.08333
2869.804	764.08333
2871.962	755.08333
2874.118	785.41667
2876.274	795.41667
2878.428	797.75
2880.58	777.41667
2882.731	769.08333
2884.881	770.41667
2887.03	776.08333
2889.177	770.08333
2891.322	776.75
2893.467	783.75
2895.61	765.75
2897.751	798.08333
2899.892	785.08333
2902.03	790.75
2904.168	795.08333
2906.304	793.41667
2908.439	813.75
2910.572	794.08333
2912.704	810.08333
2914.835	809.41667
2916.965	796.41667
2919.093	829.08333
2921.219	803.75
2923.345	810.41667
2925.469	784.75
2927.591	799.75
2929.712	755.75
2931.832	767.41667
2933.951	733.75
2936.068	735.08333
2938.184	722.75
2940.299	697.41667
2942.412	690.08333
2944.524	657.08333
2946.634	640.08333
2948.744	602.75
2950.851	629.41667
2952.958	593.08333
2955.063	584.75
2957.167	581.41667
2959.269	540.75
2961.371	573.75
2963.471	538.75
2965.569	539.41667
2967.666	510.08333
2969.762	509.75
2971.857	494.08333
2973.95	478.41667
2976.042	478.08333
2978.133	464.08333
2980.222	452.08333
2982.31	434.08333
2984.396	419.08333
2986.482	428.75
2988.566	413.41667
2990.648	415.08333
2992.73	400.08333
2994.81	405.75
2996.889	410.41667
2998.966	398.41667
3001.042	406.41667
3003.117	397.75
3005.191	396.08333
3007.263	402.75
3009.334	376.41667
3011.403	386.41667
3013.472	376.08333
3015.539	386.08333
3017.604	392.41667
3019.669	356.41667
3021.732	351.41667
3023.794	364.08333
3025.854	346.75
3027.914	340.75
3029.971	360.75
3032.028	351.08333
3034.083	350.41667
3036.137	342.08333
3038.19	335.08333
3040.242	328.75
3042.292	319.41667
3044.341	320.41667
3046.388	329.41667
3048.435	314.41667
3050.48	325.08333
3052.524	322.08333
3054.566	299.41667
3056.607	309.75
3058.647	304.08333
3060.686	293.41667
3062.723	277.75
3064.759	269.75
3066.794	-1.25
3068.828	3.41667
3070.86	1.75
