-0.839	490.75
3.438	586.41667
7.711	172.75
11.981	65.41667
16.247	44.75
20.509	51.08333
24.768	47.75
29.024	54.08333
33.276	49.08333
37.524	53.08333
41.769	47.41667
46.01	35.41667
50.247	47.08333
54.481	64.08333
58.712	61.75
62.939	50.75
67.162	58.41667
71.382	60.75
75.599	47.75
79.812	62.08333
84.021	83.08333
88.227	58.75
92.429	65.75
96.628	58.41667
100.823	74.08333
105.015	79.08333
109.204	70.41667
113.388	77.75
117.57	81.08333
121.748	91.41667
125.922	85.08333
130.093	109.08333
134.261	105.08333
138.425	99.08333
142.585	151.08333
146.742	147.75
150.896	173.41667
155.046	236.41667
159.193	370.08333
163.336	657.41667
167.476	1216.75
171.613	2207.08333
175.746	3598.41667
179.875	5216.08333
184.002	6665.75
188.124	7590.41667
192.244	7850.41667
196.36	7647.08333
200.472	7388.41667
204.581	7095.08333
208.687	6912.41667
212.79	6739.41667
216.889	6699.08333
220.984	6637.08333
225.077	6617.41667
229.165	6581.41667
233.251	6548.75
237.333	6513.75
241.412	6412.41667
245.487	6330.41667
249.559	6256.75
253.628	6179.41667
257.694	6158.41667
261.756	6092.08333
265.814	5969.75
269.87	5726.41667
273.922	5535.41667
277.97	5428.08333
282.016	5323.75
286.058	5294.41667
290.097	5381.75
294.132	5472.75
298.164	5400.75
302.193	5193.41667
306.219	4849.75
310.241	4442.75
314.26	4090.08333
318.276	3842.75
322.288	3648.08333
326.297	3484.75
330.303	3356.41667
334.305	3271.75
338.305	3193.41667
342.301	3148.41667
346.294	3135.41667
350.283	3065.75
354.269	3066.41667
358.252	3060.08333
362.232	3038.41667
366.209	3009.41667
370.182	2970.41667
374.152	2960.41667
378.119	2968.75
382.083	2956.75
386.043	2953.08333
390	2934.75
393.954	2998.41667
397.905	2968.75
401.852	2961.08333
405.797	2905.41667
409.738	3003.41667
413.676	3068.41667
417.61	3177.08333
421.542	2914.41667
425.47	2791.75
429.396	2750.08333
433.318	2756.75
437.236	2747.08333
441.152	2768.08333
445.065	2692.41667
448.974	2708.41667
452.88	2650.08333
456.783	2636.41667
460.683	2642.08333
464.58	2614.41667
468.473	2628.75
472.364	2648.08333
476.251	2620.75
480.135	2644.41667
484.016	2686.41667
487.894	2676.75
491.769	2693.41667
495.641	2691.75
499.509	2688.41667
503.375	2690.75
507.237	2711.75
511.096	2701.08333
514.952	2709.41667
518.805	2736.41667
522.655	2743.41667
526.502	2697.41667
530.346	2698.08333
534.187	2715.41667
538.024	2718.08333
541.859	2736.41667
545.69	2776.75
549.519	2741.08333
553.344	2737.75
557.166	2694.08333
560.985	2649.75
564.802	2595.75
568.615	2570.75
572.425	2542.41667
576.232	2515.75
580.036	2518.08333
583.836	2513.41667
587.634	2532.08333
591.429	2534.75
595.221	2573.75
599.01	2616.08333
602.796	2651.75
606.578	2659.75
610.358	2667.75
614.135	2631.08333
617.909	2627.41667
621.679	2597.08333
625.447	2565.08333
629.212	2566.41667
632.973	2600.41667
636.732	2598.08333
640.488	2610.75
644.241	2548.41667
647.991	2559.41667
651.737	2548.75
655.481	2542.41667
659.222	2549.75
662.96	2528.41667
666.695	2569.41667
670.427	2569.08333
674.156	2589.75
677.882	2570.41667
681.605	2553.75
685.325	2511.41667
689.043	2538.75
692.757	2522.41667
696.468	2523.75
700.177	2521.75
703.882	2489.08333
707.585	2490.75
711.284	2470.41667
714.981	2469.75
718.675	2483.41667
722.366	2499.41667
726.054	2456.08333
729.739	2500.41667
733.421	2497.08333
737.1	2487.41667
740.777	2514.41667
744.45	2518.08333
748.121	2529.75
751.789	2593.41667
755.453	2576.08333
759.115	2604.08333
762.774	2606.41667
766.431	2621.41667
770.084	2663.41667
773.734	2685.08333
777.382	2735.75
781.027	2769.75
784.669	2771.08333
788.308	2777.75
791.944	2794.08333
795.577	2811.08333
799.208	2826.75
802.835	2835.75
806.46	2843.75
810.082	2871.41667
813.701	2861.08333
817.317	2903.75
820.931	2902.75
824.542	2872.75
828.149	2866.75
831.754	2851.75
835.357	2849.41667
838.956	2876.08333
842.553	2935.08333
846.146	2927.41667
849.737	2836.75
853.326	2831.75
856.911	2834.08333
860.493	2886.08333
864.073	2965.75
867.65	3085.75
871.225	3097.08333
874.796	2984.75
878.365	2984.08333
881.931	2980.41667
885.494	3005.41667
889.054	3005.08333
892.612	3026.41667
896.166	2981.08333
899.719	2969.08333
903.268	2923.08333
906.814	2928.75
910.358	2900.08333
913.899	2892.41667
917.438	2867.75
920.973	2874.41667
924.506	2933.08333
928.036	2978.08333
931.564	2990.41667
935.088	3022.75
938.61	3043.75
942.129	3067.41667
945.646	3144.41667
949.16	3179.75
952.671	3243.75
956.179	3241.08333
959.685	3198.75
963.188	3192.08333
966.688	3154.75
970.185	3069.41667
973.68	3000.75
977.173	2937.75
980.662	2903.41667
984.149	2883.41667
987.633	2857.75
991.114	2918.75
994.593	2981.75
998.069	3054.75
1001.542	3179.75
1005.013	3113.75
1008.481	2949.75
1011.947	2910.41667
1015.409	2874.75
1018.869	2874.08333
1022.327	2879.41667
1025.782	2824.08333
1029.234	2816.75
1032.683	2776.41667
1036.13	2710.75
1039.574	2599.75
1043.016	2513.41667
1046.455	2477.08333
1049.891	2465.41667
1053.325	2484.08333
1056.756	2488.08333
1060.184	2502.08333
1063.61	2504.08333
1067.033	2528.41667
1070.454	2517.75
1073.872	2567.08333
1077.287	2535.08333
1080.7	2550.75
1084.11	2530.08333
1087.517	2512.08333
1090.922	2477.75
1094.325	2468.08333
1097.724	2445.41667
1101.122	2454.75
1104.516	2465.08333
1107.908	2478.08333
1111.298	2513.75
1114.684	2533.75
1118.069	2563.75
1121.45	2613.08333
1124.83	2609.75
1128.206	2632.08333
1131.58	2708.08333
1134.951	2785.41667
1138.32	2877.75
1141.687	2974.75
1145.05	3067.08333
1148.412	3061.41667
1151.77	3065.75
1155.126	3080.75
1158.48	3070.41667
1161.831	3095.75
1165.18	3080.75
1168.525	3143.41667
1171.869	3168.41667
1175.21	3190.75
1178.548	3219.75
1181.884	3233.41667
1185.217	3261.08333
1188.548	3340.41667
1191.877	3415.41667
1195.202	3511.75
1198.526	3571.08333
1201.846	3567.08333
1205.165	3548.75
1208.48	3510.08333
1211.794	3480.08333
1215.104	3479.75
1218.413	3466.08333
1221.719	3480.41667
1225.022	3411.08333
1228.323	3357.08333
1231.621	3332.41667
1234.917	3302.75
1238.21	3316.41667
1241.501	3316.75
1244.79	3292.75
1248.076	3286.08333
1251.359	3306.75
1254.64	3359.08333
1257.919	3406.75
1261.195	3490.75
1264.468	3521.41667
1267.74	3595.75
1271.008	3623.41667
1274.275	3598.41667
1277.538	3571.41667
1280.8	3578.41667
1284.059	3550.08333
1287.315	3591.08333
1290.569	3606.75
1293.821	3631.75
1297.07	3627.75
1300.317	3654.41667
1303.562	3637.08333
1306.803	3589.41667
1310.043	3610.41667
1313.28	3576.75
1316.515	3524.41667
1319.747	3519.08333
1322.977	3488.41667
1326.204	3426.08333
1329.429	3366.75
1332.652	3342.41667
1335.872	3316.08333
1339.09	3278.75
1342.306	3262.08333
1345.519	3233.75
1348.729	3198.41667
1351.938	3205.41667
1355.144	3162.75
1358.347	3127.75
1361.548	3100.75
1364.747	3096.41667
1367.944	3064.41667
1371.138	3081.75
1374.329	3094.75
1377.518	3126.75
1380.705	3152.75
1383.89	3119.75
1387.072	3017.41667
1390.252	2917.75
1393.429	2820.75
1396.605	2723.41667
1399.777	2626.41667
1402.948	2602.75
1406.116	2586.75
1409.282	2579.41667
1412.445	2573.75
1415.606	2591.08333
1418.765	2633.41667
1421.921	2670.41667
1425.075	2744.75
1428.227	2844.41667
1431.376	2972.08333
1434.524	3078.08333
1437.668	3147.41667
1440.811	3193.08333
1443.951	3227.75
1447.089	3216.08333
1450.224	3255.41667
1453.357	3224.08333
1456.488	3215.41667
1459.617	3150.75
1462.743	3123.08333
1465.867	3068.75
1468.989	3010.41667
1472.108	2977.41667
1475.225	2937.08333
1478.34	2907.08333
1481.453	2921.41667
1484.563	2953.41667
1487.671	2977.41667
1490.776	3027.08333
1493.88	3064.41667
1496.981	3133.41667
1500.08	3174.75
1503.176	3227.41667
1506.271	3276.75
1509.363	3328.75
1512.452	3348.75
1515.54	3396.08333
1518.625	3441.75
1521.708	3519.41667
1524.789	3624.41667
1527.867	3752.75
1530.944	3918.75
1534.018	4086.41667
1537.089	4237.41667
1540.159	4293.08333
1543.226	4266.75
1546.291	4191.08333
1549.354	4075.75
1552.415	4010.41667
1555.473	3926.08333
1558.529	3865.75
1561.583	3845.41667
1564.634	3841.75
1567.684	3817.08333
1570.731	3839.08333
1573.776	3916.08333
1576.819	3973.08333
1579.859	4028.08333
1582.898	4072.75
1585.934	4138.75
1588.968	4125.08333
1591.999	4135.75
1595.029	4091.41667
1598.056	4086.75
1601.081	4125.08333
1604.104	4093.75
1607.125	4066.75
1610.144	3975.41667
1613.16	3889.75
1616.174	3798.75
1619.186	3704.08333
1622.196	3577.75
1625.203	3490.41667
1628.209	3412.08333
1631.212	3355.41667
1634.213	3283.41667
1637.212	3247.08333
1640.209	3194.75
1643.203	3088.41667
1646.196	2991.75
1649.186	2855.41667
1652.174	2786.08333
1655.16	2692.41667
1658.144	2604.41667
1661.125	2460.08333
1664.105	2366.08333
1667.082	2258.75
1670.057	2146.08333
1673.03	2010.41667
1676.001	1910.08333
1678.97	1755.08333
1681.937	1669.41667
1684.901	1607.08333
1687.863	1530.08333
1690.824	1457.75
1693.782	1431.08333
1696.738	1361.41667
1699.692	1328.41667
1702.643	1298.08333
1705.593	1285.75
1708.54	1271.08333
1711.486	1262.08333
1714.429	1221.08333
1717.37	1228.75
1720.309	1188.75
1723.246	1209.75
1726.181	1172.08333
1729.113	1182.41667
1732.044	1161.75
1734.972	1158.08333
1737.899	1145.08333
1740.823	1133.75
1743.745	1140.08333
1746.665	1090.75
1749.583	1070.75
1752.499	1059.41667
1755.413	1058.41667
1758.325	1032.41667
1761.235	1026.08333
1764.142	1012.41667
1767.048	1003.41667
1769.951	1000.08333
1772.852	1007.75
1775.752	1064.08333
1778.649	1107.08333
1781.544	1035.08333
1784.437	970.41667
1787.328	978.41667
1790.217	948.08333
1793.104	941.41667
1795.989	929.75
1798.872	919.08333
1801.753	944.41667
1804.631	938.75
1807.508	936.75
1810.383	934.41667
1813.255	914.41667
1816.126	920.08333
1818.994	911.08333
1821.861	903.41667
1824.725	900.75
1827.587	905.41667
1830.448	899.41667
1833.306	875.75
1836.162	885.75
1839.017	880.41667
1841.869	868.08333
1844.719	869.41667
1847.567	838.41667
1850.414	853.75
1853.258	846.08333
1856.1	871.75
1858.94	862.75
1861.778	857.75
1864.614	845.41667
1867.448	835.75
1870.28	831.75
1873.111	859.41667
1875.939	849.75
1878.765	861.41667
1881.589	836.41667
1884.411	835.75
1887.231	826.75
1890.049	834.41667
1892.865	836.41667
1895.68	836.75
1898.492	867.08333
1901.302	829.08333
1904.11	823.75
1906.916	799.75
1909.721	798.08333
1912.523	807.75
1915.323	787.41667
1918.122	798.75
1920.918	812.08333
1923.712	792.75
1926.505	791.41667
1929.295	783.75
1932.084	791.41667
1934.87	787.75
1937.655	775.75
1940.438	778.08333
1943.218	780.08333
1945.997	786.75
1948.774	788.75
1951.549	787.41667
1954.322	776.75
1957.093	771.41667
1959.862	764.75
1962.629	762.75
1965.394	765.75
1968.157	747.08333
1970.918	753.08333
1973.678	732.08333
1976.435	752.41667
1979.19	740.08333
1981.944	736.75
1984.696	739.75
1987.445	716.41667
1990.193	734.08333
1992.939	753.75
1995.683	734.75
1998.425	725.08333
2001.165	745.75
2003.903	725.75
2006.639	721.41667
2009.374	730.75
2012.106	721.08333
2014.837	707.08333
2017.566	717.41667
2020.292	717.75
2023.017	726.75
2025.74	712.75
2028.461	707.08333
2031.18	720.08333
2033.898	698.08333
2036.613	705.41667
2039.327	716.75
2042.038	693.08333
2044.748	697.08333
2047.456	709.75
2050.162	685.75
2052.866	688.75
2055.568	700.08333
2058.268	681.08333
2060.967	685.08333
2063.663	668.75
2066.358	691.08333
2069.051	678.75
2071.742	682.41667
2074.431	687.41667
2077.118	691.08333
2079.804	664.75
2082.487	680.75
2085.169	697.08333
2087.849	704.41667
2090.527	675.75
2093.203	692.41667
2095.877	698.08333
2098.55	702.41667
2101.22	705.41667
2103.889	700.08333
2106.556	702.75
2109.221	720.75
2111.884	724.75
2114.546	786.08333
2117.205	818.41667
2119.863	878.41667
2122.519	928.08333
2125.173	980.75
2127.825	1030.41667
2130.475	1049.08333
2133.124	1003.75
2135.771	974.08333
2138.416	931.41667
2141.059	871.41667
2143.7	839.75
2146.339	784.75
2148.977	748.75
2151.613	743.75
2154.247	725.41667
2156.879	705.41667
2159.51	685.75
2162.138	677.75
2164.765	684.75
2167.39	667.08333
2170.013	678.41667
2172.634	685.75
2175.254	655.75
2177.872	689.41667
2180.488	636.08333
2183.102	653.08333
2185.714	638.75
2188.325	615.41667
2190.934	634.08333
2193.541	633.75
2196.146	628.75
2198.75	615.75
2201.351	618.41667
2203.951	606.75
2206.549	622.08333
2209.146	612.75
2211.74	603.41667
2214.333	609.75
2216.924	596.41667
2219.514	596.41667
2222.101	587.41667
2224.687	595.08333
2227.271	591.41667
2229.853	573.08333
2232.433	569.08333
2235.012	587.08333
2237.589	581.75
2240.164	593.41667
2242.738	570.41667
2245.309	569.75
2247.879	572.08333
2250.448	572.41667
2253.014	557.08333
2255.579	532.41667
2258.142	537.41667
2260.703	533.75
2263.262	530.75
2265.82	530.75
2268.376	533.75
2270.93	512.08333
2273.483	524.75
2276.033	532.08333
2278.583	519.41667
2281.13	523.08333
2283.675	520.08333
2286.219	510.08333
2288.761	509.75
2291.302	518.75
2293.841	525.75
2296.377	508.41667
2298.913	510.75
2301.446	520.08333
2303.978	507.75
2306.508	503.75
2309.037	502.41667
2311.563	503.75
2314.088	513.41667
2316.612	488.75
2319.133	502.41667
2321.653	494.08333
2324.171	496.75
2326.688	508.41667
2329.202	489.08333
2331.715	493.41667
2334.227	486.08333
2336.736	492.75
2339.244	487.08333
2341.751	474.08333
2344.255	487.75
2346.758	492.41667
2349.259	475.75
2351.759	480.75
2354.257	474.75
2356.753	465.41667
2359.247	479.08333
2361.74	491.41667
2364.231	477.75
2366.721	483.08333
2369.209	471.41667
2371.695	476.75
2374.179	474.08333
2376.662	460.08333
2379.143	475.41667
2381.622	471.41667
2384.1	493.75
2386.576	476.41667
2389.051	485.08333
2391.524	484.08333
2393.995	482.41667
2396.464	469.08333
2398.932	465.75
2401.398	464.08333
2403.863	470.75
2406.325	459.08333
2408.787	454.75
2411.246	453.75
2413.704	466.75
2416.16	453.75
2418.615	454.75
2421.068	472.41667
2423.519	464.41667
2425.969	450.41667
2428.417	453.75
2430.863	476.41667
2433.308	457.41667
2435.751	456.41667
2438.193	455.41667
2440.633	455.08333
2443.071	461.75
2445.508	447.75
2447.943	446.41667
2450.376	443.08333
2452.808	444.41667
2455.238	440.41667
2457.667	486.41667
2460.093	438.41667
2462.519	431.75
2464.942	446.75
2467.365	444.75
2469.785	459.08333
2472.204	437.41667
2474.621	439.08333
2477.037	466.08333
2479.451	428.41667
2481.863	428.08333
2484.274	440.08333
2486.683	440.41667
2489.091	442.41667
2491.497	432.75
2493.901	437.41667
2496.304	436.08333
2498.705	444.08333
2501.105	425.75
2503.503	466.41667
2505.899	423.41667
2508.294	447.08333
2510.687	439.08333
2513.079	439.08333
2515.469	422.08333
2517.858	448.41667
2520.245	445.75
2522.63	436.75
2525.014	431.08333
2527.396	426.08333
2529.776	421.41667
2532.156	434.41667
2534.533	416.41667
2536.909	415.41667
2539.283	410.41667
2541.656	411.75
2544.027	438.41667
2546.397	427.75
2548.765	423.08333
2551.131	422.41667
2553.496	425.08333
2555.86	432.41667
2558.221	428.75
2560.582	421.08333
2562.94	412.75
2565.298	418.41667
2567.653	434.08333
2570.007	418.75
2572.36	433.08333
2574.711	409.75
2577.06	429.08333
2579.408	429.75
2581.754	419.41667
2584.099	429.75
2586.442	419.08333
2588.784	420.41667
2591.124	429.41667
2593.463	423.75
2595.8	434.75
2598.135	412.08333
2600.469	420.08333
2602.802	438.75
2605.133	425.41667
2607.462	410.41667
2609.79	404.41667
2612.116	427.75
2614.441	420.75
2616.764	426.75
2619.086	420.75
2621.406	411.08333
2623.725	430.08333
2626.042	421.41667
2628.358	408.08333
2630.672	413.08333
2632.985	429.08333
2635.296	421.41667
2637.606	420.08333
2639.914	413.75
2642.22	418.41667
2644.525	424.08333
2646.829	429.08333
2649.131	435.75
2651.432	431.75
2653.731	432.75
2656.028	430.75
2658.324	442.75
2660.619	431.75
2662.912	427.75
2665.204	422.75
2667.494	438.08333
2669.782	432.41667
2672.07	433.08333
2674.355	437.41667
2676.639	437.41667
2678.922	426.08333
2681.203	439.75
2683.483	425.75
2685.761	425.41667
2688.038	431.08333
2690.313	446.41667
2692.587	440.08333
2694.859	432.41667
2697.13	439.41667
2699.399	451.08333
2701.667	454.08333
2703.933	448.08333
2706.198	454.41667
2708.461	464.08333
2710.723	452.41667
2712.984	455.75
2715.243	464.75
2717.5	449.41667
2719.757	472.41667
2722.011	460.75
2724.264	472.41667
2726.516	484.08333
2728.766	462.41667
2731.015	467.41667
2733.262	471.08333
2735.508	478.75
2737.753	463.08333
2739.996	461.08333
2742.237	452.75
2744.477	471.41667
2746.716	465.41667
2748.953	457.08333
2751.189	464.41667
2753.423	455.08333
2755.656	445.41667
2757.887	445.08333
2760.117	445.08333
2762.346	440.41667
2764.573	430.08333
2766.798	437.75
2769.022	445.75
2771.245	453.08333
2773.467	451.75
2775.686	452.41667
2777.905	444.75
2780.122	465.41667
2782.337	456.75
2784.552	461.75
2786.764	463.08333
2788.976	476.75
2791.186	464.75
2793.394	486.75
2795.601	487.08333
2797.807	491.41667
2800.011	494.41667
2802.214	494.41667
2804.415	496.08333
2806.615	493.41667
2808.814	502.75
2811.011	518.75
2813.206	510.41667
2815.401	531.41667
2817.594	531.75
2819.785	540.75
2821.975	534.08333
2824.164	533.41667
2826.351	545.41667
2828.537	577.75
2830.722	575.08333
2832.905	581.75
2835.086	602.08333
2837.267	635.41667
2839.445	647.08333
2841.623	675.08333
2843.799	689.08333
2845.974	721.08333
2848.147	753.08333
2850.319	780.41667
2852.489	798.41667
2854.659	814.08333
2856.826	832.41667
2858.993	859.08333
2861.158	821.08333
2863.321	848.08333
2865.483	859.41667
2867.644	867.41667
2869.804	857.75
2871.962	868.08333
2874.118	869.75
2876.274	904.75
2878.428	897.41667
2880.58	861.41667
2882.731	855.08333
2884.881	854.08333
2887.03	864.41667
2889.177	862.41667
2891.322	849.75
2893.467	843.75
2895.61	866.08333
2897.751	876.75
2899.892	873.41667
2902.03	877.08333
2904.168	889.75
2906.304	889.75
2908.439	906.41667
2910.572	888.08333
2912.704	912.41667
2914.835	922.75
2916.965	913.75
2919.093	918.75
2921.219	895.08333
2923.345	910.08333
2925.469	896.75
2927.591	898.75
2929.712	859.08333
2931.832	853.75
2933.951	835.41667
2936.068	824.08333
2938.184	806.08333
2940.299	787.08333
2942.412	782.75
2944.524	735.75
2946.634	724.41667
2948.744	684.08333
2950.851	705.08333
2952.958	661.08333
2955.063	662.08333
2957.167	659.75
2959.269	617.41667
2961.371	634.08333
2963.471	604.08333
2965.569	618.75
2967.666	581.75
2969.762	571.75
2971.857	565.75
2973.95	547.75
2976.042	551.75
2978.133	526.75
2980.222	524.41667
2982.31	503.75
2984.396	483.08333
2986.482	491.08333
2988.566	475.41667
2990.648	477.75
2992.73	471.75
2994.81	465.75
2996.889	466.75
2998.966	468.75
3001.042	462.75
3003.117	453.08333
3005.191	464.75
3007.263	466.75
3009.334	438.08333
3011.403	450.08333
3013.472	429.08333
3015.539	442.41667
3017.604	446.75
3019.669	403.41667
3021.732	419.41667
3023.794	416.08333
3025.854	400.41667
3027.914	407.41667
3029.971	414.08333
3032.028	395.08333
3034.083	410.75
3036.137	400.41667
3038.19	391.75
3040.242	372.08333
3042.292	372.75
3044.341	373.75
3046.388	380.08333
3048.435	354.41667
3050.48	386.41667
3052.524	362.08333
3054.566	354.41667
3056.607	365.41667
3058.647	351.41667
3060.686	337.41667
3062.723	327.41667
3064.759	316.41667
3066.794	1.75
3068.828	3.08333
3070.86	0.75
