-0.839	491.70833
3.438	582.375
7.711	171.375
11.981	61.375
16.247	44.375
20.509	50.70833
24.768	48.375
29.024	58.04167
33.276	47.70833
37.524	52.70833
41.769	50.375
46.01	33.70833
50.247	46.04167
54.481	58.70833
58.712	65.375
62.939	47.04167
67.162	63.70833
71.382	62.375
75.599	47.04167
79.812	63.70833
84.021	82.70833
88.227	59.375
92.429	61.70833
96.628	56.375
100.823	72.375
105.015	80.70833
109.204	69.04167
113.388	79.375
117.57	78.375
121.748	95.04167
125.922	84.04167
130.093	105.70833
134.261	103.70833
138.425	106.70833
142.585	150.04167
146.742	142.375
150.896	177.375
155.046	234.04167
159.193	379.375
163.336	661.04167
167.476	1219.70833
171.613	2237.375
175.746	3609.70833
179.875	5211.04167
184.002	6695.70833
188.124	7592.04167
192.244	7884.375
196.36	7686.375
200.472	7401.70833
204.581	7086.04167
208.687	6869.70833
212.79	6736.70833
216.889	6665.04167
220.984	6629.04167
225.077	6600.375
229.165	6595.375
233.251	6551.375
237.333	6473.375
241.412	6386.04167
245.487	6301.70833
249.559	6223.04167
253.628	6177.375
257.694	6129.70833
261.756	6077.375
265.814	5945.04167
269.87	5700.375
273.922	5543.70833
277.97	5414.375
282.016	5294.70833
286.058	5339.04167
290.097	5392.375
294.132	5459.70833
298.164	5411.70833
302.193	5206.70833
306.219	4816.70833
310.241	4455.70833
314.26	4073.70833
318.276	3793.70833
322.288	3650.04167
326.297	3449.04167
330.303	3334.04167
334.305	3263.04167
338.305	3208.70833
342.301	3138.04167
346.294	3127.375
350.283	3073.04167
354.269	3048.70833
358.252	3050.70833
362.232	2983.375
366.209	2994.70833
370.182	2935.375
374.152	2936.04167
378.119	2946.375
382.083	2915.04167
386.043	2924.04167
390	2916.375
393.954	2960.375
397.905	2966.70833
401.852	2960.375
405.797	2884.375
409.738	2962.70833
413.676	3053.375
417.61	3116.70833
421.542	2888.70833
425.47	2755.04167
429.396	2732.04167
433.318	2712.70833
437.236	2702.04167
441.152	2732.375
445.065	2693.70833
448.974	2663.70833
452.88	2634.70833
456.783	2626.70833
460.683	2596.375
464.58	2619.375
468.473	2582.70833
472.364	2587.375
476.251	2610.04167
480.135	2637.375
484.016	2663.04167
487.894	2690.70833
491.769	2679.70833
495.641	2680.04167
499.509	2678.70833
503.375	2693.04167
507.237	2678.375
511.096	2660.375
514.952	2684.70833
518.805	2706.70833
522.655	2713.375
526.502	2684.04167
530.346	2663.04167
534.187	2685.04167
538.024	2720.04167
541.859	2724.70833
545.69	2721.04167
549.519	2727.375
553.344	2708.70833
557.166	2670.04167
560.985	2620.70833
564.802	2583.04167
568.615	2548.04167
572.425	2503.375
576.232	2487.375
580.036	2483.375
583.836	2504.70833
587.634	2499.70833
591.429	2509.375
595.221	2558.70833
599.01	2604.375
602.796	2632.04167
606.578	2608.04167
610.358	2653.375
614.135	2609.375
617.909	2595.70833
621.679	2562.70833
625.447	2559.375
629.212	2547.375
632.973	2562.04167
636.732	2583.375
640.488	2578.375
644.241	2525.375
647.991	2521.70833
651.737	2541.70833
655.481	2507.70833
659.222	2514.04167
662.96	2509.375
666.695	2547.04167
670.427	2537.375
674.156	2535.04167
677.882	2553.375
681.605	2542.375
685.325	2522.04167
689.043	2544.375
692.757	2480.375
696.468	2507.70833
700.177	2482.375
703.882	2478.375
707.585	2460.04167
711.284	2436.375
714.981	2442.375
718.675	2449.04167
722.366	2453.375
726.054	2447.04167
729.739	2431.04167
733.421	2465.70833
737.1	2470.375
740.777	2472.04167
744.45	2488.70833
748.121	2523.375
751.789	2557.70833
755.453	2521.04167
759.115	2567.375
762.774	2579.04167
766.431	2605.70833
770.084	2646.375
773.734	2675.70833
777.382	2704.375
781.027	2742.70833
784.669	2746.375
788.308	2777.04167
791.944	2777.70833
795.577	2762.70833
799.208	2790.375
802.835	2825.375
806.46	2830.375
810.082	2863.04167
813.701	2861.70833
817.317	2878.04167
820.931	2872.04167
824.542	2879.04167
828.149	2852.70833
831.754	2808.04167
835.357	2832.375
838.956	2860.70833
842.553	2889.04167
846.146	2926.375
849.737	2822.04167
853.326	2812.04167
856.911	2804.375
860.493	2851.70833
864.073	2913.70833
867.65	3058.375
871.225	3093.04167
874.796	2959.70833
878.365	2957.04167
881.931	2968.70833
885.494	3018.04167
889.054	2983.04167
892.612	3001.375
896.166	2979.70833
899.719	2961.375
903.268	2899.70833
906.814	2906.04167
910.358	2869.04167
913.899	2868.70833
917.438	2885.70833
920.973	2867.04167
924.506	2906.375
928.036	2930.70833
931.564	2946.375
935.088	2997.70833
938.61	3004.70833
942.129	3038.375
945.646	3127.04167
949.16	3161.04167
952.671	3220.70833
956.179	3233.70833
959.685	3187.375
963.188	3160.375
966.688	3131.04167
970.185	3058.70833
973.68	2986.70833
977.173	2906.70833
980.662	2861.04167
984.149	2863.375
987.633	2856.04167
991.114	2901.70833
994.593	2929.04167
998.069	3043.04167
1001.542	3149.70833
1005.013	3121.375
1008.481	2927.70833
1011.947	2881.70833
1015.409	2848.375
1018.869	2860.04167
1022.327	2841.04167
1025.782	2812.375
1029.234	2797.70833
1032.683	2766.04167
1036.13	2662.375
1039.574	2595.04167
1043.016	2504.70833
1046.455	2469.375
1049.891	2450.04167
1053.325	2469.375
1056.756	2453.70833
1060.184	2480.70833
1063.61	2500.70833
1067.033	2501.375
1070.454	2501.04167
1073.872	2555.04167
1077.287	2528.375
1080.7	2530.04167
1084.11	2518.04167
1087.517	2503.04167
1090.922	2474.375
1094.325	2462.70833
1097.724	2442.70833
1101.122	2435.70833
1104.516	2446.375
1107.908	2447.375
1111.298	2500.04167
1114.684	2512.04167
1118.069	2561.70833
1121.45	2602.375
1124.83	2589.70833
1128.206	2622.70833
1131.58	2699.70833
1134.951	2752.04167
1138.32	2859.70833
1141.687	2987.375
1145.05	3024.04167
1148.412	3066.375
1151.77	3060.70833
1155.126	3071.04167
1158.48	3035.375
1161.831	3071.375
1165.18	3112.04167
1168.525	3139.70833
1171.869	3171.70833
1175.21	3196.375
1178.548	3200.375
1181.884	3219.04167
1185.217	3262.375
1188.548	3336.70833
1191.877	3404.70833
1195.202	3486.70833
1198.526	3545.375
1201.846	3547.70833
1205.165	3527.70833
1208.48	3521.375
1211.794	3484.70833
1215.104	3463.70833
1218.413	3470.04167
1221.719	3439.375
1225.022	3419.04167
1228.323	3330.70833
1231.621	3305.70833
1234.917	3292.70833
1238.21	3324.70833
1241.501	3288.04167
1244.79	3286.375
1248.076	3260.375
1251.359	3319.70833
1254.64	3361.70833
1257.919	3392.375
1261.195	3451.375
1264.468	3527.70833
1267.74	3572.375
1271.008	3565.375
1274.275	3587.04167
1277.538	3545.70833
1280.8	3541.70833
1284.059	3545.04167
1287.315	3554.04167
1290.569	3586.375
1293.821	3580.70833
1297.07	3652.375
1300.317	3648.375
1303.562	3640.375
1306.803	3598.375
1310.043	3579.375
1313.28	3549.375
1316.515	3522.375
1319.747	3502.375
1322.977	3456.04167
1326.204	3429.04167
1329.429	3375.375
1332.652	3327.04167
1335.872	3312.04167
1339.09	3280.04167
1342.306	3236.375
1345.519	3191.70833
1348.729	3179.70833
1351.938	3180.375
1355.144	3145.04167
1358.347	3088.04167
1361.548	3069.375
1364.747	3055.70833
1367.944	3050.70833
1371.138	3079.375
1374.329	3068.375
1377.518	3110.375
1380.705	3134.375
1383.89	3090.375
1387.072	3000.04167
1390.252	2907.70833
1393.429	2786.70833
1396.605	2700.70833
1399.777	2615.375
1402.948	2597.04167
1406.116	2572.375
1409.282	2562.375
1412.445	2566.04167
1415.606	2602.70833
1418.765	2640.70833
1421.921	2692.375
1425.075	2757.04167
1428.227	2825.04167
1431.376	2952.04167
1434.524	3051.70833
1437.668	3143.375
1440.811	3180.04167
1443.951	3198.375
1447.089	3229.70833
1450.224	3222.04167
1453.357	3204.04167
1456.488	3181.70833
1459.617	3132.04167
1462.743	3110.70833
1465.867	3055.04167
1468.989	3011.04167
1472.108	2970.375
1475.225	2934.70833
1478.34	2897.375
1481.453	2901.375
1484.563	2912.375
1487.671	2961.04167
1490.776	3020.70833
1493.88	3080.375
1496.981	3135.70833
1500.08	3194.70833
1503.176	3238.375
1506.271	3277.70833
1509.363	3338.70833
1512.452	3367.375
1515.54	3401.375
1518.625	3474.04167
1521.708	3533.375
1524.789	3622.375
1527.867	3750.04167
1530.944	3942.04167
1534.018	4108.70833
1537.089	4250.375
1540.159	4282.70833
1543.226	4262.70833
1546.291	4188.70833
1549.354	4111.70833
1552.415	4021.04167
1555.473	3934.375
1558.529	3858.375
1561.583	3854.375
1564.634	3821.70833
1567.684	3863.04167
1570.731	3873.04167
1573.776	3923.375
1576.819	3962.375
1579.859	4030.04167
1582.898	4049.70833
1585.934	4105.375
1588.968	4125.375
1591.999	4109.375
1595.029	4141.375
1598.056	4102.375
1601.081	4112.375
1604.104	4069.04167
1607.125	4052.70833
1610.144	3956.375
1613.16	3840.70833
1616.174	3796.70833
1619.186	3672.375
1622.196	3563.70833
1625.203	3464.375
1628.209	3401.375
1631.212	3323.375
1634.213	3270.70833
1637.212	3247.70833
1640.209	3158.375
1643.203	3075.04167
1646.196	2999.70833
1649.186	2867.70833
1652.174	2754.04167
1655.16	2646.04167
1658.144	2607.375
1661.125	2455.375
1664.105	2352.375
1667.082	2271.375
1670.057	2148.375
1673.03	2018.375
1676.001	1888.04167
1678.97	1766.04167
1681.937	1666.04167
1684.901	1571.04167
1687.863	1519.70833
1690.824	1449.375
1693.782	1428.70833
1696.738	1359.04167
1699.692	1329.375
1702.643	1288.04167
1705.593	1279.375
1708.54	1260.375
1711.486	1252.04167
1714.429	1222.04167
1717.37	1216.70833
1720.309	1179.04167
1723.246	1192.04167
1726.181	1168.04167
1729.113	1175.04167
1732.044	1151.70833
1734.972	1128.70833
1737.899	1147.04167
1740.823	1129.04167
1743.745	1142.04167
1746.665	1082.04167
1749.583	1072.04167
1752.499	1047.375
1755.413	1045.70833
1758.325	1027.04167
1761.235	1015.04167
1764.142	1017.375
1767.048	987.375
1769.951	985.70833
1772.852	999.375
1775.752	1050.04167
1778.649	1103.375
1781.544	1019.70833
1784.437	955.70833
1787.328	960.04167
1790.217	951.04167
1793.104	912.70833
1795.989	921.375
1798.872	922.375
1801.753	926.375
1804.631	911.375
1807.508	914.04167
1810.383	913.04167
1813.255	896.375
1816.126	913.70833
1818.994	907.04167
1821.861	896.70833
1824.725	888.375
1827.587	899.04167
1830.448	894.04167
1833.306	858.70833
1836.162	880.70833
1839.017	863.04167
1841.869	860.04167
1844.719	848.04167
1847.567	844.04167
1850.414	835.04167
1853.258	844.04167
1856.1	860.375
1858.94	856.04167
1861.778	852.70833
1864.614	839.04167
1867.448	842.375
1870.28	829.04167
1873.111	845.70833
1875.939	840.04167
1878.765	854.375
1881.589	824.70833
1884.411	832.04167
1887.231	833.70833
1890.049	823.04167
1892.865	825.375
1895.68	826.04167
1898.492	857.375
1901.302	823.70833
1904.11	814.375
1906.916	800.04167
1909.721	796.70833
1912.523	801.04167
1915.323	794.04167
1918.122	782.04167
1920.918	785.375
1923.712	777.70833
1926.505	779.04167
1929.295	765.375
1932.084	778.70833
1934.87	779.375
1937.655	767.375
1940.438	766.04167
1943.218	768.70833
1945.997	786.70833
1948.774	783.04167
1951.549	780.04167
1954.322	774.375
1957.093	762.70833
1959.862	756.70833
1962.629	754.04167
1965.394	753.04167
1968.157	746.70833
1970.918	746.375
1973.678	731.70833
1976.435	755.04167
1979.19	738.04167
1981.944	738.375
1984.696	727.04167
1987.445	719.375
1990.193	734.04167
1992.939	749.375
1995.683	717.375
1998.425	711.70833
2001.165	731.375
2003.903	717.375
2006.639	719.70833
2009.374	721.70833
2012.106	715.375
2014.837	708.70833
2017.566	719.04167
2020.292	719.04167
2023.017	715.70833
2025.74	709.375
2028.461	695.375
2031.18	710.375
2033.898	693.70833
2036.613	701.04167
2039.327	703.375
2042.038	702.70833
2044.748	697.70833
2047.456	700.04167
2050.162	683.375
2052.866	684.70833
2055.568	697.70833
2058.268	687.04167
2060.967	687.04167
2063.663	684.70833
2066.358	674.70833
2069.051	680.375
2071.742	685.04167
2074.431	684.04167
2077.118	682.70833
2079.804	666.70833
2082.487	672.04167
2085.169	684.375
2087.849	704.375
2090.527	665.375
2093.203	678.04167
2095.877	678.70833
2098.55	695.04167
2101.22	694.70833
2103.889	693.70833
2106.556	704.04167
2109.221	720.04167
2111.884	732.375
2114.546	783.70833
2117.205	820.375
2119.863	867.04167
2122.519	935.04167
2125.173	989.375
2127.825	1041.04167
2130.475	1042.04167
2133.124	1019.375
2135.771	976.375
2138.416	939.70833
2141.059	871.04167
2143.7	830.04167
2146.339	775.04167
2148.977	742.375
2151.613	732.70833
2154.247	721.375
2156.879	710.70833
2159.51	701.04167
2162.138	681.375
2164.765	667.375
2167.39	660.70833
2170.013	672.375
2172.634	665.375
2175.254	654.70833
2177.872	684.375
2180.488	634.04167
2183.102	640.04167
2185.714	629.375
2188.325	623.70833
2190.934	625.04167
2193.541	636.375
2196.146	613.375
2198.75	607.70833
2201.351	617.70833
2203.951	600.375
2206.549	616.04167
2209.146	614.375
2211.74	595.375
2214.333	608.375
2216.924	578.70833
2219.514	598.70833
2222.101	585.375
2224.687	608.375
2227.271	583.70833
2229.853	562.375
2232.433	554.04167
2235.012	584.375
2237.589	580.70833
2240.164	583.70833
2242.738	567.375
2245.309	562.04167
2247.879	561.70833
2250.448	569.04167
2253.014	537.04167
2255.579	541.375
2258.142	537.375
2260.703	531.04167
2263.262	537.375
2265.82	526.70833
2268.376	538.375
2270.93	520.70833
2273.483	516.70833
2276.033	525.04167
2278.583	515.375
2281.13	515.375
2283.675	509.04167
2286.219	511.375
2288.761	519.375
2291.302	511.70833
2293.841	519.375
2296.377	489.375
2298.913	507.04167
2301.446	527.375
2303.978	503.70833
2306.508	493.375
2309.037	500.375
2311.563	508.04167
2314.088	498.04167
2316.612	481.70833
2319.133	491.375
2321.653	495.04167
2324.171	483.70833
2326.688	500.70833
2329.202	487.70833
2331.715	493.04167
2334.227	489.375
2336.736	494.04167
2339.244	475.04167
2341.751	478.70833
2344.255	485.375
2346.758	486.375
2349.259	474.04167
2351.759	484.375
2354.257	476.70833
2356.753	459.70833
2359.247	468.70833
2361.74	485.70833
2364.231	479.04167
2366.721	479.04167
2369.209	474.04167
2371.695	480.375
2374.179	462.375
2376.662	461.70833
2379.143	478.70833
2381.622	475.04167
2384.1	481.375
2386.576	469.375
2389.051	480.375
2391.524	485.70833
2393.995	475.70833
2396.464	464.375
2398.932	467.04167
2401.398	456.375
2403.863	456.375
2406.325	453.375
2408.787	455.04167
2411.246	449.70833
2413.704	456.70833
2416.16	450.70833
2418.615	454.70833
2421.068	462.04167
2423.519	459.70833
2425.969	449.375
2428.417	455.375
2430.863	477.375
2433.308	454.70833
2435.751	457.70833
2438.193	453.375
2440.633	450.04167
2443.071	454.04167
2445.508	447.375
2447.943	444.04167
2450.376	435.375
2452.808	450.375
2455.238	435.70833
2457.667	481.70833
2460.093	443.70833
2462.519	429.70833
2464.942	438.375
2467.365	447.04167
2469.785	452.375
2472.204	460.04167
2474.621	438.70833
2477.037	451.04167
2479.451	429.70833
2481.863	421.70833
2484.274	436.375
2486.683	445.375
2489.091	444.375
2491.497	433.375
2493.901	446.70833
2496.304	432.70833
2498.705	445.70833
2501.105	438.04167
2503.503	459.375
2505.899	424.04167
2508.294	443.04167
2510.687	433.04167
2513.079	429.04167
2515.469	427.70833
2517.858	437.375
2520.245	449.04167
2522.63	427.04167
2525.014	427.70833
2527.396	418.04167
2529.776	423.70833
2532.156	428.70833
2534.533	413.04167
2536.909	403.04167
2539.283	406.04167
2541.656	412.375
2544.027	439.04167
2546.397	418.04167
2548.765	412.04167
2551.131	424.04167
2553.496	419.04167
2555.86	427.04167
2558.221	423.04167
2560.582	403.70833
2562.94	408.70833
2565.298	424.70833
2567.653	430.70833
2570.007	396.375
2572.36	422.375
2574.711	410.375
2577.06	430.04167
2579.408	420.375
2581.754	417.70833
2584.099	423.375
2586.442	414.375
2588.784	428.70833
2591.124	422.04167
2593.463	424.04167
2595.8	433.70833
2598.135	406.04167
2600.469	418.70833
2602.802	429.375
2605.133	432.70833
2607.462	413.04167
2609.79	405.04167
2612.116	421.04167
2614.441	421.375
2616.764	433.04167
2619.086	420.04167
2621.406	404.70833
2623.725	431.70833
2626.042	426.375
2628.358	416.04167
2630.672	417.70833
2632.985	435.375
2635.296	419.04167
2637.606	428.04167
2639.914	418.70833
2642.22	421.04167
2644.525	426.70833
2646.829	424.04167
2649.131	426.04167
2651.432	434.70833
2653.731	417.70833
2656.028	439.04167
2658.324	443.04167
2660.619	420.70833
2662.912	436.70833
2665.204	420.04167
2667.494	434.375
2669.782	418.375
2672.07	432.70833
2674.355	435.70833
2676.639	430.375
2678.922	423.04167
2681.203	427.04167
2683.483	428.70833
2685.761	425.70833
2688.038	430.70833
2690.313	455.70833
2692.587	423.70833
2694.859	431.04167
2697.13	442.375
2699.399	444.70833
2701.667	454.70833
2703.933	447.70833
2706.198	449.04167
2708.461	454.04167
2710.723	454.04167
2712.984	461.70833
2715.243	463.04167
2717.5	455.375
2719.757	471.04167
2722.011	460.375
2724.264	469.04167
2726.516	476.375
2728.766	472.375
2731.015	464.04167
2733.262	472.375
2735.508	470.04167
2737.753	476.70833
2739.996	456.70833
2742.237	453.375
2744.477	464.04167
2746.716	466.04167
2748.953	454.04167
2751.189	460.04167
2753.423	452.375
2755.656	439.375
2757.887	434.70833
2760.117	453.375
2762.346	435.04167
2764.573	443.70833
2766.798	438.70833
2769.022	435.04167
2771.245	451.70833
2773.467	453.04167
2775.686	451.04167
2777.905	456.70833
2780.122	461.375
2782.337	463.04167
2784.552	461.04167
2786.764	462.70833
2788.976	468.375
2791.186	470.04167
2793.394	474.70833
2795.601	478.04167
2797.807	488.04167
2800.011	495.70833
2802.214	499.375
2804.415	488.04167
2806.615	499.04167
2808.814	507.375
2811.011	504.70833
2813.206	502.70833
2815.401	525.70833
2817.594	549.04167
2819.785	539.04167
2821.975	530.375
2824.164	536.04167
2826.351	547.375
2828.537	567.04167
2830.722	570.70833
2832.905	581.375
2835.086	596.375
2837.267	626.375
2839.445	659.70833
2841.623	665.70833
2843.799	686.375
2845.974	721.04167
2848.147	764.375
2850.319	776.04167
2852.489	796.04167
2854.659	815.04167
2856.826	836.04167
2858.993	860.375
2861.158	839.375
2863.321	835.375
2865.483	851.375
2867.644	858.04167
2869.804	878.375
2871.962	864.70833
2874.118	870.04167
2876.274	900.375
2878.428	891.375
2880.58	872.70833
2882.731	856.375
2884.881	863.04167
2887.03	852.70833
2889.177	850.04167
2891.322	871.04167
2893.467	849.375
2895.61	852.70833
2897.751	888.04167
2899.892	865.375
2902.03	874.04167
2904.168	885.375
2906.304	892.04167
2908.439	902.375
2910.572	891.375
2912.704	899.70833
2914.835	910.70833
2916.965	893.375
2919.093	917.70833
2921.219	898.375
2923.345	914.375
2925.469	886.375
2927.591	882.04167
2929.712	856.04167
2931.832	857.04167
2933.951	829.04167
2936.068	819.375
2938.184	804.04167
2940.299	788.04167
2942.412	760.04167
2944.524	727.04167
2946.634	734.04167
2948.744	681.70833
2950.851	711.04167
2952.958	663.70833
2955.063	664.04167
2957.167	657.70833
2959.269	622.04167
2961.371	638.04167
2963.471	607.375
2965.569	610.70833
2967.666	575.70833
2969.762	566.04167
2971.857	569.375
2973.95	542.375
2976.042	545.375
2978.133	525.04167
2980.222	519.70833
2982.31	502.375
2984.396	476.04167
2986.482	482.375
2988.566	483.04167
2990.648	465.70833
2992.73	476.70833
2994.81	461.70833
2996.889	469.375
2998.966	463.70833
3001.042	473.375
3003.117	454.375
3005.191	461.375
3007.263	463.04167
3009.334	443.70833
3011.403	451.04167
3013.472	433.04167
3015.539	434.70833
3017.604	456.375
3019.669	411.04167
3021.732	418.70833
3023.794	410.375
3025.854	408.04167
3027.914	400.04167
3029.971	419.04167
3032.028	409.70833
3034.083	409.70833
3036.137	403.375
3038.19	391.70833
3040.242	379.04167
3042.292	368.04167
3044.341	368.375
3046.388	378.70833
3048.435	356.70833
3050.48	372.04167
3052.524	359.70833
3054.566	353.04167
3056.607	367.04167
3058.647	348.375
3060.686	335.04167
3062.723	326.04167
3064.759	312.04167
3066.794	-0.95833
3068.828	3.04167
3070.86	3.375
