-0.839	443.04167
3.438	525.04167
7.711	159.375
11.981	59.04167
16.247	41.375
20.509	48.375
24.768	44.70833
29.024	52.375
33.276	43.70833
37.524	50.04167
41.769	44.375
46.01	32.375
50.247	47.70833
54.481	59.70833
58.712	59.375
62.939	48.04167
67.162	62.70833
71.382	57.70833
75.599	45.04167
79.812	60.375
84.021	81.70833
88.227	60.04167
92.429	57.70833
96.628	50.70833
100.823	70.04167
105.015	75.70833
109.204	66.375
113.388	73.70833
117.57	72.375
121.748	87.375
125.922	76.375
130.093	95.375
134.261	96.04167
138.425	95.04167
142.585	133.375
146.742	127.04167
150.896	154.375
155.046	195.04167
159.193	304.375
163.336	515.70833
167.476	938.375
171.613	1737.04167
175.746	2873.375
179.875	4241.375
184.002	5517.70833
188.124	6352.04167
192.244	6674.375
196.36	6583.375
200.472	6408.70833
204.581	6208.04167
208.687	6077.04167
212.79	6040.70833
216.889	6021.70833
220.984	6016.04167
225.077	6059.04167
229.165	6056.04167
233.251	6060.70833
237.333	6020.04167
241.412	5957.04167
245.487	5887.04167
249.559	5791.70833
253.628	5760.375
257.694	5729.04167
261.756	5695.70833
265.814	5566.04167
269.87	5405.375
273.922	5212.04167
277.97	5134.70833
282.016	5080.04167
286.058	5076.70833
290.097	5178.70833
294.132	5216.04167
298.164	5200.375
302.193	4976.04167
306.219	4604.70833
310.241	4216.375
314.26	3891.70833
318.276	3629.375
322.288	3455.04167
326.297	3330.04167
330.303	3202.04167
334.305	3126.70833
338.305	3075.375
342.301	3055.04167
346.294	3042.70833
350.283	2991.04167
354.269	2980.375
358.252	2937.04167
362.232	2936.70833
366.209	2925.375
370.182	2893.375
374.152	2889.04167
378.119	2895.70833
382.083	2884.04167
386.043	2882.375
390	2862.70833
393.954	2850.375
397.905	2855.375
401.852	2856.375
405.797	2804.375
409.738	2853.70833
413.676	2882.70833
417.61	2896.70833
421.542	2827.04167
425.47	2753.04167
429.396	2748.375
433.318	2728.04167
437.236	2725.70833
441.152	2763.70833
445.065	2683.375
448.974	2687.04167
452.88	2659.70833
456.783	2655.70833
460.683	2635.70833
464.58	2633.04167
468.473	2650.70833
472.364	2650.375
476.251	2657.70833
480.135	2675.04167
484.016	2703.04167
487.894	2713.375
491.769	2712.375
495.641	2719.04167
499.509	2727.70833
503.375	2733.04167
507.237	2717.375
511.096	2732.375
514.952	2750.04167
518.805	2782.70833
522.655	2792.70833
526.502	2736.70833
530.346	2736.70833
534.187	2732.04167
538.024	2748.04167
541.859	2745.375
545.69	2774.04167
549.519	2753.70833
553.344	2719.70833
557.166	2682.70833
560.985	2657.04167
564.802	2611.375
568.615	2562.04167
572.425	2520.70833
576.232	2524.04167
580.036	2513.70833
583.836	2530.04167
587.634	2547.04167
591.429	2541.375
595.221	2599.375
599.01	2612.70833
602.796	2644.04167
606.578	2647.375
610.358	2649.375
614.135	2630.375
617.909	2642.04167
621.679	2594.04167
625.447	2597.70833
629.212	2567.375
632.973	2600.70833
636.732	2610.04167
640.488	2592.70833
644.241	2559.70833
647.991	2551.70833
651.737	2561.375
655.481	2529.70833
659.222	2543.375
662.96	2540.375
666.695	2564.04167
670.427	2578.04167
674.156	2595.375
677.882	2578.04167
681.605	2563.375
685.325	2542.375
689.043	2534.375
692.757	2503.70833
696.468	2509.70833
700.177	2494.375
703.882	2481.375
707.585	2463.70833
711.284	2473.375
714.981	2502.375
718.675	2478.375
722.366	2469.70833
726.054	2450.70833
729.739	2468.70833
733.421	2470.375
737.1	2451.70833
740.777	2503.04167
744.45	2499.375
748.121	2517.375
751.789	2582.375
755.453	2550.375
759.115	2592.375
762.774	2586.375
766.431	2569.375
770.084	2617.375
773.734	2633.04167
777.382	2682.04167
781.027	2693.04167
784.669	2690.375
788.308	2710.04167
791.944	2718.04167
795.577	2743.04167
799.208	2777.70833
802.835	2790.04167
806.46	2814.375
810.082	2806.04167
813.701	2818.70833
817.317	2851.04167
820.931	2865.70833
824.542	2839.375
828.149	2795.375
831.754	2755.04167
835.357	2766.70833
838.956	2780.04167
842.553	2789.375
846.146	2777.04167
849.737	2735.70833
853.326	2728.04167
856.911	2728.375
860.493	2755.04167
864.073	2774.70833
867.65	2843.70833
871.225	2851.70833
874.796	2819.375
878.365	2816.375
881.931	2840.375
885.494	2867.70833
889.054	2867.04167
892.612	2865.04167
896.166	2834.375
899.719	2800.70833
903.268	2772.375
906.814	2758.70833
910.358	2752.375
913.899	2695.375
917.438	2710.70833
920.973	2708.375
924.506	2748.70833
928.036	2794.70833
931.564	2823.375
935.088	2871.04167
938.61	2897.375
942.129	2930.04167
945.646	2992.04167
949.16	3056.04167
952.671	3108.375
956.179	3082.70833
959.685	3082.04167
963.188	3059.04167
966.688	3042.375
970.185	2957.04167
973.68	2896.375
977.173	2811.375
980.662	2762.70833
984.149	2770.375
987.633	2758.375
991.114	2811.70833
994.593	2846.375
998.069	2934.70833
1001.542	3003.375
1005.013	2967.04167
1008.481	2799.375
1011.947	2754.04167
1015.409	2718.04167
1018.869	2704.375
1022.327	2718.70833
1025.782	2702.04167
1029.234	2682.375
1032.683	2658.04167
1036.13	2573.375
1039.574	2476.375
1043.016	2406.375
1046.455	2369.04167
1049.891	2360.375
1053.325	2382.375
1056.756	2382.375
1060.184	2381.04167
1063.61	2414.04167
1067.033	2424.04167
1070.454	2418.70833
1073.872	2430.375
1077.287	2432.70833
1080.7	2447.375
1084.11	2446.04167
1087.517	2413.70833
1090.922	2383.70833
1094.325	2341.70833
1097.724	2306.04167
1101.122	2305.70833
1104.516	2311.70833
1107.908	2341.375
1111.298	2355.04167
1114.684	2387.375
1118.069	2400.04167
1121.45	2452.04167
1124.83	2433.70833
1128.206	2442.70833
1131.58	2485.70833
1134.951	2545.70833
1138.32	2625.04167
1141.687	2705.70833
1145.05	2746.70833
1148.412	2752.70833
1151.77	2736.04167
1155.126	2725.375
1158.48	2721.04167
1161.831	2729.04167
1165.18	2728.04167
1168.525	2780.04167
1171.869	2804.04167
1175.21	2827.375
1178.548	2844.70833
1181.884	2865.70833
1185.217	2900.375
1188.548	3001.70833
1191.877	3045.04167
1195.202	3152.70833
1198.526	3214.04167
1201.846	3231.04167
1205.165	3199.70833
1208.48	3209.70833
1211.794	3232.70833
1215.104	3217.375
1218.413	3202.70833
1221.719	3223.04167
1225.022	3144.70833
1228.323	3114.70833
1231.621	3081.70833
1234.917	3051.04167
1238.21	3055.375
1241.501	3032.70833
1244.79	3023.04167
1248.076	3035.04167
1251.359	3027.375
1254.64	3106.375
1257.919	3130.70833
1261.195	3172.375
1264.468	3220.70833
1267.74	3241.04167
1271.008	3259.375
1274.275	3277.70833
1277.538	3262.375
1280.8	3246.04167
1284.059	3241.375
1287.315	3294.04167
1290.569	3309.04167
1293.821	3343.375
1297.07	3330.375
1300.317	3358.375
1303.562	3343.70833
1306.803	3308.375
1310.043	3314.70833
1313.28	3269.70833
1316.515	3225.04167
1319.747	3219.70833
1322.977	3171.375
1326.204	3173.70833
1329.429	3114.375
1332.652	3110.375
1335.872	3078.375
1339.09	3024.04167
1342.306	3017.375
1345.519	2978.70833
1348.729	2955.375
1351.938	2985.375
1355.144	2937.375
1358.347	2867.04167
1361.548	2868.70833
1364.747	2865.70833
1367.944	2840.70833
1371.138	2858.04167
1374.329	2818.04167
1377.518	2860.70833
1380.705	2863.70833
1383.89	2808.70833
1387.072	2759.04167
1390.252	2637.70833
1393.429	2579.70833
1396.605	2489.375
1399.777	2430.04167
1402.948	2371.04167
1406.116	2384.04167
1409.282	2369.70833
1412.445	2354.04167
1415.606	2392.375
1418.765	2440.70833
1421.921	2475.04167
1425.075	2561.04167
1428.227	2656.375
1431.376	2748.70833
1434.524	2843.375
1437.668	2920.70833
1440.811	2956.70833
1443.951	2963.04167
1447.089	2976.04167
1450.224	2967.70833
1453.357	2952.375
1456.488	2929.375
1459.617	2894.375
1462.743	2821.70833
1465.867	2757.70833
1468.989	2737.04167
1472.108	2677.70833
1475.225	2627.04167
1478.34	2606.04167
1481.453	2586.375
1484.563	2595.375
1487.671	2649.375
1490.776	2663.04167
1493.88	2704.70833
1496.981	2716.04167
1500.08	2766.04167
1503.176	2815.04167
1506.271	2838.70833
1509.363	2867.70833
1512.452	2894.70833
1515.54	2938.375
1518.625	2984.70833
1521.708	3036.70833
1524.789	3103.375
1527.867	3225.375
1530.944	3378.70833
1534.018	3544.04167
1537.089	3659.375
1540.159	3735.375
1543.226	3708.375
1546.291	3613.375
1549.354	3543.70833
1552.415	3434.375
1555.473	3373.70833
1558.529	3313.04167
1561.583	3291.04167
1564.634	3256.375
1567.684	3287.70833
1570.731	3310.04167
1573.776	3329.04167
1576.819	3372.375
1579.859	3399.70833
1582.898	3449.70833
1585.934	3491.70833
1588.968	3512.375
1591.999	3515.04167
1595.029	3518.375
1598.056	3528.70833
1601.081	3539.04167
1604.104	3545.04167
1607.125	3541.70833
1610.144	3446.375
1613.16	3367.04167
1616.174	3285.70833
1619.186	3221.04167
1622.196	3131.70833
1625.203	3067.375
1628.209	2989.70833
1631.212	2980.70833
1634.213	2970.375
1637.212	2987.375
1640.209	2939.70833
1643.203	2891.375
1646.196	2797.375
1649.186	2664.70833
1652.174	2567.375
1655.16	2510.04167
1658.144	2424.70833
1661.125	2309.70833
1664.105	2205.375
1667.082	2113.375
1670.057	1993.70833
1673.03	1875.375
1676.001	1761.70833
1678.97	1655.375
1681.937	1547.04167
1684.901	1459.70833
1687.863	1401.04167
1690.824	1356.375
1693.782	1327.375
1696.738	1273.375
1699.692	1254.70833
1702.643	1216.04167
1705.593	1208.70833
1708.54	1192.375
1711.486	1184.04167
1714.429	1158.375
1717.37	1146.04167
1720.309	1122.375
1723.246	1124.04167
1726.181	1114.375
1729.113	1113.04167
1732.044	1090.70833
1734.972	1086.70833
1737.899	1092.04167
1740.823	1090.04167
1743.745	1086.70833
1746.665	1050.70833
1749.583	1024.04167
1752.499	1007.375
1755.413	1014.04167
1758.325	974.04167
1761.235	987.04167
1764.142	965.70833
1767.048	967.375
1769.951	959.04167
1772.852	952.70833
1775.752	973.70833
1778.649	988.70833
1781.544	947.70833
1784.437	910.70833
1787.328	922.70833
1790.217	921.375
1793.104	903.375
1795.989	894.70833
1798.872	888.70833
1801.753	897.04167
1804.631	892.70833
1807.508	897.04167
1810.383	888.375
1813.255	878.04167
1816.126	881.04167
1818.994	878.375
1821.861	858.70833
1824.725	875.70833
1827.587	864.375
1830.448	854.04167
1833.306	821.375
1836.162	852.70833
1839.017	840.375
1841.869	841.04167
1844.719	843.04167
1847.567	820.70833
1850.414	815.04167
1853.258	816.70833
1856.1	831.04167
1858.94	827.375
1861.778	821.04167
1864.614	821.70833
1867.448	812.04167
1870.28	802.375
1873.111	823.375
1875.939	814.70833
1878.765	829.375
1881.589	798.04167
1884.411	804.70833
1887.231	813.70833
1890.049	805.04167
1892.865	809.375
1895.68	787.04167
1898.492	807.70833
1901.302	791.375
1904.11	785.375
1906.916	774.04167
1909.721	764.70833
1912.523	779.04167
1915.323	753.04167
1918.122	759.04167
1920.918	768.375
1923.712	754.375
1926.505	762.04167
1929.295	749.375
1932.084	774.04167
1934.87	756.375
1937.655	745.70833
1940.438	752.04167
1943.218	751.70833
1945.997	748.70833
1948.774	759.70833
1951.549	754.70833
1954.322	751.04167
1957.093	748.375
1959.862	741.70833
1962.629	730.375
1965.394	740.04167
1968.157	719.04167
1970.918	723.70833
1973.678	710.04167
1976.435	713.375
1979.19	718.375
1981.944	713.04167
1984.696	720.70833
1987.445	706.04167
1990.193	706.70833
1992.939	722.70833
1995.683	711.375
1998.425	681.04167
2001.165	713.04167
2003.903	690.04167
2006.639	688.375
2009.374	707.375
2012.106	696.375
2014.837	673.04167
2017.566	693.04167
2020.292	700.70833
2023.017	703.70833
2025.74	696.375
2028.461	677.04167
2031.18	680.375
2033.898	665.04167
2036.613	667.04167
2039.327	677.375
2042.038	664.04167
2044.748	669.375
2047.456	668.04167
2050.162	659.375
2052.866	667.375
2055.568	680.70833
2058.268	649.04167
2060.967	666.375
2063.663	646.04167
2066.358	652.375
2069.051	642.70833
2071.742	660.375
2074.431	663.70833
2077.118	650.04167
2079.804	644.04167
2082.487	647.70833
2085.169	659.04167
2087.849	660.04167
2090.527	626.375
2093.203	652.70833
2095.877	657.375
2098.55	656.70833
2101.22	657.375
2103.889	671.375
2106.556	665.04167
2109.221	670.70833
2111.884	686.04167
2114.546	727.70833
2117.205	761.375
2119.863	826.375
2122.519	845.70833
2125.173	900.375
2127.825	934.04167
2130.475	936.70833
2133.124	896.04167
2135.771	871.70833
2138.416	845.70833
2141.059	792.375
2143.7	753.04167
2146.339	719.70833
2148.977	688.375
2151.613	687.70833
2154.247	677.70833
2156.879	651.375
2159.51	646.375
2162.138	627.375
2164.765	625.375
2167.39	605.70833
2170.013	624.04167
2172.634	622.375
2175.254	616.04167
2177.872	645.375
2180.488	595.375
2183.102	600.04167
2185.714	602.04167
2188.325	575.70833
2190.934	580.04167
2193.541	585.70833
2196.146	576.70833
2198.75	572.04167
2201.351	565.04167
2203.951	556.375
2206.549	578.375
2209.146	572.04167
2211.74	557.375
2214.333	564.375
2216.924	547.04167
2219.514	552.70833
2222.101	551.04167
2224.687	565.375
2227.271	546.70833
2229.853	543.375
2232.433	526.70833
2235.012	555.70833
2237.589	547.375
2240.164	556.04167
2242.738	545.70833
2245.309	525.375
2247.879	539.04167
2250.448	537.375
2253.014	524.375
2255.579	504.375
2258.142	517.04167
2260.703	507.375
2263.262	516.70833
2265.82	502.70833
2268.376	516.375
2270.93	493.375
2273.483	503.375
2276.033	498.70833
2278.583	492.04167
2281.13	496.375
2283.675	492.04167
2286.219	492.70833
2288.761	491.04167
2291.302	501.70833
2293.841	501.04167
2296.377	482.04167
2298.913	495.70833
2301.446	505.04167
2303.978	492.04167
2306.508	475.70833
2309.037	480.375
2311.563	494.375
2314.088	487.375
2316.612	462.04167
2319.133	473.375
2321.653	471.04167
2324.171	466.70833
2326.688	484.70833
2329.202	471.04167
2331.715	473.375
2334.227	464.375
2336.736	478.04167
2339.244	472.04167
2341.751	461.04167
2344.255	473.375
2346.758	462.70833
2349.259	445.04167
2351.759	462.04167
2354.257	447.70833
2356.753	448.375
2359.247	448.04167
2361.74	468.04167
2364.231	472.04167
2366.721	460.04167
2369.209	457.375
2371.695	457.70833
2374.179	444.04167
2376.662	440.70833
2379.143	466.70833
2381.622	452.70833
2384.1	460.375
2386.576	444.04167
2389.051	457.70833
2391.524	452.04167
2393.995	459.375
2396.464	451.04167
2398.932	437.04167
2401.398	443.70833
2403.863	445.70833
2406.325	435.04167
2408.787	446.04167
2411.246	447.375
2413.704	446.375
2416.16	434.375
2418.615	436.375
2421.068	453.04167
2423.519	446.375
2425.969	431.375
2428.417	449.04167
2430.863	459.04167
2433.308	447.375
2435.751	433.04167
2438.193	434.375
2440.633	430.70833
2443.071	438.04167
2445.508	436.375
2447.943	422.70833
2450.376	431.375
2452.808	441.375
2455.238	426.70833
2457.667	458.04167
2460.093	434.04167
2462.519	418.375
2464.942	425.375
2467.365	432.70833
2469.785	440.04167
2472.204	433.04167
2474.621	416.375
2477.037	438.70833
2479.451	419.04167
2481.863	401.04167
2484.274	417.04167
2486.683	422.04167
2489.091	428.70833
2491.497	417.70833
2493.901	427.375
2496.304	415.375
2498.705	428.375
2501.105	415.04167
2503.503	445.70833
2505.899	409.04167
2508.294	443.375
2510.687	424.04167
2513.079	422.04167
2515.469	414.375
2517.858	420.70833
2520.245	423.04167
2522.63	413.375
2525.014	418.04167
2527.396	402.375
2529.776	397.04167
2532.156	420.375
2534.533	404.375
2536.909	400.04167
2539.283	396.70833
2541.656	404.70833
2544.027	432.70833
2546.397	409.375
2548.765	407.70833
2551.131	408.375
2553.496	405.375
2555.86	418.04167
2558.221	415.375
2560.582	403.70833
2562.94	395.70833
2565.298	409.04167
2567.653	423.04167
2570.007	400.375
2572.36	416.70833
2574.711	397.375
2577.06	424.70833
2579.408	419.375
2581.754	413.375
2584.099	415.70833
2586.442	410.70833
2588.784	404.04167
2591.124	409.375
2593.463	408.04167
2595.8	414.375
2598.135	404.70833
2600.469	408.70833
2602.802	412.375
2605.133	415.70833
2607.462	392.375
2609.79	397.70833
2612.116	415.70833
2614.441	412.70833
2616.764	399.04167
2619.086	404.04167
2621.406	398.04167
2623.725	412.375
2626.042	409.04167
2628.358	407.375
2630.672	397.04167
2632.985	412.04167
2635.296	410.70833
2637.606	409.70833
2639.914	408.70833
2642.22	410.375
2644.525	413.70833
2646.829	422.375
2649.131	426.04167
2651.432	422.375
2653.731	411.375
2656.028	421.04167
2658.324	427.375
2660.619	414.70833
2662.912	431.375
2665.204	409.04167
2667.494	418.375
2669.782	415.70833
2672.07	423.70833
2674.355	425.70833
2676.639	417.70833
2678.922	410.70833
2681.203	430.04167
2683.483	413.375
2685.761	424.70833
2688.038	429.04167
2690.313	441.70833
2692.587	419.375
2694.859	423.70833
2697.13	431.375
2699.399	430.375
2701.667	447.375
2703.933	437.70833
2706.198	442.375
2708.461	446.04167
2710.723	443.04167
2712.984	436.70833
2715.243	444.04167
2717.5	441.70833
2719.757	458.04167
2722.011	445.375
2724.264	458.375
2726.516	463.04167
2728.766	460.375
2731.015	455.70833
2733.262	456.04167
2735.508	459.70833
2737.753	458.70833
2739.996	444.375
2742.237	436.04167
2744.477	453.375
2746.716	452.70833
2748.953	436.70833
2751.189	452.375
2753.423	433.04167
2755.656	443.04167
2757.887	428.04167
2760.117	434.375
2762.346	430.70833
2764.573	422.04167
2766.798	426.70833
2769.022	438.375
2771.245	438.375
2773.467	442.04167
2775.686	446.375
2777.905	442.04167
2780.122	457.70833
2782.337	452.375
2784.552	449.375
2786.764	447.375
2788.976	446.70833
2791.186	461.04167
2793.394	469.375
2795.601	466.375
2797.807	483.70833
2800.011	481.04167
2802.214	487.375
2804.415	482.70833
2806.615	480.70833
2808.814	486.70833
2811.011	496.70833
2813.206	489.04167
2815.401	507.04167
2817.594	505.375
2819.785	515.375
2821.975	513.375
2824.164	525.04167
2826.351	533.375
2828.537	535.70833
2830.722	555.70833
2832.905	561.04167
2835.086	581.70833
2837.267	605.375
2839.445	613.375
2841.623	621.04167
2843.799	649.70833
2845.974	689.70833
2848.147	706.70833
2850.319	726.70833
2852.489	751.04167
2854.659	768.04167
2856.826	774.375
2858.993	808.375
2861.158	773.70833
2863.321	784.70833
2865.483	795.70833
2867.644	799.70833
2869.804	779.04167
2871.962	800.375
2874.118	807.375
2876.274	826.04167
2878.428	809.04167
2880.58	795.70833
2882.731	788.04167
2884.881	790.04167
2887.03	798.04167
2889.177	785.70833
2891.322	807.375
2893.467	788.375
2895.61	801.04167
2897.751	825.70833
2899.892	807.04167
2902.03	808.70833
2904.168	808.04167
2906.304	814.375
2908.439	843.70833
2910.572	832.04167
2912.704	828.375
2914.835	848.70833
2916.965	829.70833
2919.093	851.04167
2921.219	826.04167
2923.345	836.04167
2925.469	819.70833
2927.591	816.70833
2929.712	793.70833
2931.832	787.04167
2933.951	782.70833
2936.068	759.04167
2938.184	740.70833
2940.299	726.375
2942.412	710.04167
2944.524	685.375
2946.634	682.04167
2948.744	636.04167
2950.851	657.375
2952.958	628.375
2955.063	616.70833
2957.167	613.70833
2959.269	579.375
2961.371	612.375
2963.471	576.04167
2965.569	585.04167
2967.666	552.70833
2969.762	552.04167
2971.857	543.375
2973.95	522.70833
2976.042	533.04167
2978.133	507.70833
2980.222	498.70833
2982.31	479.70833
2984.396	472.375
2986.482	472.04167
2988.566	468.375
2990.648	459.375
2992.73	462.04167
2994.81	449.70833
2996.889	453.04167
2998.966	445.70833
3001.042	458.70833
3003.117	455.70833
3005.191	448.375
3007.263	449.04167
3009.334	437.70833
3011.403	443.375
3013.472	440.375
3015.539	437.04167
3017.604	431.04167
3019.669	400.04167
3021.732	398.375
3023.794	406.375
3025.854	410.375
3027.914	402.70833
3029.971	412.375
3032.028	395.375
3034.083	408.375
3036.137	395.375
3038.19	385.04167
3040.242	368.375
3042.292	367.375
3044.341	364.04167
3046.388	376.04167
3048.435	357.375
3050.48	375.04167
3052.524	360.375
3054.566	348.70833
3056.607	357.04167
3058.647	351.375
3060.686	335.04167
3062.723	321.70833
3064.759	308.375
3066.794	-0.29167
3068.828	3.04167
3070.86	1.04167
