-0.839	450.5
3.438	535.16667
7.711	164.16667
11.981	59.5
16.247	43.83333
20.509	48.5
24.768	40.83333
29.024	52.16667
33.276	45.5
37.524	53.16667
41.769	47.16667
46.01	33.83333
50.247	46.5
54.481	57.83333
58.712	63.83333
62.939	43.5
67.162	65.16667
71.382	56.16667
75.599	42.16667
79.812	59.5
84.021	79.16667
88.227	57.83333
92.429	62.83333
96.628	52.5
100.823	70.5
105.015	74.5
109.204	60.83333
113.388	70.83333
117.57	72.16667
121.748	84.83333
125.922	77.5
130.093	98.16667
134.261	95.5
138.425	94.16667
142.585	137.5
146.742	122.16667
150.896	150.83333
155.046	189.5
159.193	300.5
163.336	514.83333
167.476	944.83333
171.613	1676.16667
175.746	2844.16667
179.875	4160.83333
184.002	5414.16667
188.124	6230.83333
192.244	6587.16667
196.36	6435.83333
200.472	6246.83333
204.581	6109.5
208.687	5967.5
212.79	5874.83333
216.889	5868.83333
220.984	5879.5
225.077	5890.16667
229.165	5904.83333
233.251	5889.16667
237.333	5831.83333
241.412	5776.16667
245.487	5747.16667
249.559	5651.16667
253.628	5610.16667
257.694	5551.16667
261.756	5530.83333
265.814	5415.83333
269.87	5258.16667
273.922	5072.5
277.97	4965.83333
282.016	4900.5
286.058	4954.83333
290.097	5054.16667
294.132	5134.5
298.164	5065.5
302.193	4806.83333
306.219	4454.83333
310.241	4107.83333
314.26	3743.16667
318.276	3499.5
322.288	3309.5
326.297	3168.16667
330.303	3088.5
334.305	3004.5
338.305	2935.16667
342.301	2909.5
346.294	2876.5
350.283	2878.83333
354.269	2826.83333
358.252	2791.5
362.232	2781.83333
366.209	2755.5
370.182	2739.83333
374.152	2719.16667
378.119	2718.5
382.083	2706.16667
386.043	2729.5
390	2691.5
393.954	2731.5
397.905	2714.5
401.852	2708.83333
405.797	2662.5
409.738	2696.5
413.676	2741.83333
417.61	2760.16667
421.542	2661.83333
425.47	2598.5
429.396	2570.16667
433.318	2557.83333
437.236	2567.83333
441.152	2566.5
445.065	2534.16667
448.974	2512.16667
452.88	2488.16667
456.783	2477.16667
460.683	2436.83333
464.58	2462.5
468.473	2462.83333
472.364	2485.5
476.251	2480.16667
480.135	2501.16667
484.016	2510.16667
487.894	2542.16667
491.769	2522.83333
495.641	2538.83333
499.509	2539.16667
503.375	2551.83333
507.237	2549.16667
511.096	2529.5
514.952	2582.5
518.805	2610.5
522.655	2611.83333
526.502	2577.16667
530.346	2542.16667
534.187	2555.5
538.024	2571.16667
541.859	2574.16667
545.69	2575.16667
549.519	2597.16667
553.344	2586.16667
557.166	2530.16667
560.985	2482.16667
564.802	2444.5
568.615	2407.83333
572.425	2368.83333
576.232	2357.16667
580.036	2354.5
583.836	2365.83333
587.634	2362.83333
591.429	2352.5
595.221	2435.83333
599.01	2453.83333
602.796	2498.16667
606.578	2492.5
610.358	2496.16667
614.135	2481.83333
617.909	2462.16667
621.679	2412.83333
625.447	2403.16667
629.212	2418.16667
632.973	2419.83333
636.732	2418.16667
640.488	2428.5
644.241	2393.16667
647.991	2389.16667
651.737	2402.83333
655.481	2367.5
659.222	2369.16667
662.96	2359.83333
666.695	2382.16667
670.427	2415.16667
674.156	2426.5
677.882	2400.5
681.605	2407.16667
685.325	2386.83333
689.043	2355.83333
692.757	2354.16667
696.468	2340.16667
700.177	2332.16667
703.882	2326.83333
707.585	2315.5
711.284	2307.5
714.981	2301.5
718.675	2310.83333
722.366	2331.16667
726.054	2311.5
729.739	2318.83333
733.421	2320.83333
737.1	2325.83333
740.777	2327.5
744.45	2367.16667
748.121	2368.83333
751.789	2415.83333
755.453	2396.83333
759.115	2424.83333
762.774	2416.16667
766.431	2444.5
770.084	2475.16667
773.734	2472.16667
777.382	2529.83333
781.027	2539.83333
784.669	2562.83333
788.308	2563.16667
791.944	2588.5
795.577	2582.83333
799.208	2609.5
802.835	2625.16667
806.46	2636.5
810.082	2661.16667
813.701	2650.5
817.317	2673.5
820.931	2682.16667
824.542	2661.16667
828.149	2650.16667
831.754	2602.5
835.357	2615.83333
838.956	2646.83333
842.553	2650.16667
846.146	2628.5
849.737	2613.83333
853.326	2601.83333
856.911	2606.5
860.493	2629.83333
864.073	2674.83333
867.65	2724.5
871.225	2745.16667
874.796	2712.83333
878.365	2724.83333
881.931	2719.83333
885.494	2747.16667
889.054	2747.83333
892.612	2744.83333
896.166	2728.16667
899.719	2683.83333
903.268	2630.16667
906.814	2647.83333
910.358	2612.5
913.899	2587.16667
917.438	2601.83333
920.973	2590.83333
924.506	2627.16667
928.036	2679.5
931.564	2716.16667
935.088	2761.5
938.61	2796.83333
942.129	2807.5
945.646	2874.5
949.16	2939.5
952.671	2974.5
956.179	2979.83333
959.685	2935.16667
963.188	2933.5
966.688	2885.5
970.185	2808.83333
973.68	2718.5
977.173	2691.16667
980.662	2659.5
984.149	2641.5
987.633	2631.83333
991.114	2680.16667
994.593	2717.83333
998.069	2797.83333
1001.542	2852.5
1005.013	2848.83333
1008.481	2656.16667
1011.947	2624.16667
1015.409	2612.83333
1018.869	2626.5
1022.327	2629.5
1025.782	2573.16667
1029.234	2567.5
1032.683	2535.16667
1036.13	2447.16667
1039.574	2368.16667
1043.016	2297.5
1046.455	2285.16667
1049.891	2270.5
1053.325	2267.16667
1056.756	2285.83333
1060.184	2300.16667
1063.61	2296.5
1067.033	2315.16667
1070.454	2309.83333
1073.872	2344.16667
1077.287	2344.16667
1080.7	2334.83333
1084.11	2305.83333
1087.517	2316.83333
1090.922	2272.83333
1094.325	2262.83333
1097.724	2236.83333
1101.122	2259.5
1104.516	2206.5
1107.908	2200.5
1111.298	2267.5
1114.684	2288.16667
1118.069	2316.5
1121.45	2354.83333
1124.83	2346.16667
1128.206	2353.16667
1131.58	2393.16667
1134.951	2487.5
1138.32	2557.16667
1141.687	2614.5
1145.05	2670.16667
1148.412	2679.16667
1151.77	2665.16667
1155.126	2654.5
1158.48	2645.16667
1161.831	2646.83333
1165.18	2677.16667
1168.525	2703.5
1171.869	2738.83333
1175.21	2760.16667
1178.548	2782.16667
1181.884	2813.16667
1185.217	2847.83333
1188.548	2904.83333
1191.877	2971.5
1195.202	3062.83333
1198.526	3141.16667
1201.846	3171.83333
1205.165	3176.83333
1208.48	3141.83333
1211.794	3126.83333
1215.104	3153.83333
1218.413	3125.5
1221.719	3120.83333
1225.022	3055.16667
1228.323	3006.16667
1231.621	2988.16667
1234.917	2983.16667
1238.21	2971.16667
1241.501	2955.5
1244.79	2939.83333
1248.076	2915.5
1251.359	2952.5
1254.64	3022.5
1257.919	3033.5
1261.195	3100.16667
1264.468	3140.16667
1267.74	3179.83333
1271.008	3191.16667
1274.275	3171.5
1277.538	3139.83333
1280.8	3150.83333
1284.059	3172.5
1287.315	3175.5
1290.569	3217.5
1293.821	3241.16667
1297.07	3269.83333
1300.317	3253.16667
1303.562	3269.83333
1306.803	3253.16667
1310.043	3245.5
1313.28	3198.83333
1316.515	3159.16667
1319.747	3143.5
1322.977	3123.83333
1326.204	3080.83333
1329.429	3033.83333
1332.652	3003.83333
1335.872	2975.83333
1339.09	2916.5
1342.306	2887.83333
1345.519	2887.5
1348.729	2837.16667
1351.938	2850.5
1355.144	2814.16667
1358.347	2765.83333
1361.548	2752.16667
1364.747	2757.83333
1367.944	2707.16667
1371.138	2717.16667
1374.329	2733.16667
1377.518	2779.16667
1380.705	2774.16667
1383.89	2739.5
1387.072	2650.16667
1390.252	2565.16667
1393.429	2471.5
1396.605	2390.83333
1399.777	2339.16667
1402.948	2309.16667
1406.116	2288.16667
1409.282	2272.5
1412.445	2278.16667
1415.606	2312.16667
1418.765	2353.83333
1421.921	2413.16667
1425.075	2485.5
1428.227	2539.5
1431.376	2656.5
1434.524	2742.83333
1437.668	2829.5
1440.811	2896.5
1443.951	2905.5
1447.089	2886.5
1450.224	2898.5
1453.357	2875.83333
1456.488	2839.5
1459.617	2793.16667
1462.743	2767.5
1465.867	2687.83333
1468.989	2644.5
1472.108	2576.83333
1475.225	2553.83333
1478.34	2530.16667
1481.453	2512.5
1484.563	2506.83333
1487.671	2575.16667
1490.776	2578.5
1493.88	2637.5
1496.981	2661.16667
1500.08	2698.16667
1503.176	2750.5
1506.271	2771.5
1509.363	2812.16667
1512.452	2816.16667
1515.54	2858.16667
1518.625	2906.5
1521.708	2977.5
1524.789	3045.16667
1527.867	3151.16667
1530.944	3335.83333
1534.018	3438.16667
1537.089	3590.16667
1540.159	3632.83333
1543.226	3646.83333
1546.291	3536.5
1549.354	3481.83333
1552.415	3409.83333
1555.473	3351.16667
1558.529	3307.5
1561.583	3240.5
1564.634	3236.5
1567.684	3247.83333
1570.731	3248.5
1573.776	3295.83333
1576.819	3320.83333
1579.859	3379.83333
1582.898	3403.5
1585.934	3428.16667
1588.968	3434.5
1591.999	3462.5
1595.029	3473.5
1598.056	3490.5
1601.081	3504.16667
1604.104	3506.5
1607.125	3480.16667
1610.144	3434.16667
1613.16	3320.16667
1616.174	3232.5
1619.186	3160.5
1622.196	3074.83333
1625.203	3000.5
1628.209	2930.16667
1631.212	2876.5
1634.213	2850.16667
1637.212	2845.5
1640.209	2811.16667
1643.203	2724.16667
1646.196	2625.16667
1649.186	2545.83333
1652.174	2469.83333
1655.16	2383.16667
1658.144	2315.83333
1661.125	2226.16667
1664.105	2125.83333
1667.082	2034.83333
1670.057	1939.16667
1673.03	1819.83333
1676.001	1695.5
1678.97	1592.5
1681.937	1493.16667
1684.901	1420.16667
1687.863	1360.16667
1690.824	1312.83333
1693.782	1285.5
1696.738	1224.16667
1699.692	1202.5
1702.643	1165.5
1705.593	1148.83333
1708.54	1137.16667
1711.486	1150.16667
1714.429	1107.83333
1717.37	1104.5
1720.309	1067.16667
1723.246	1086.5
1726.181	1062.5
1729.113	1048.83333
1732.044	1036.16667
1734.972	1032.16667
1737.899	1039.83333
1740.823	1031.5
1743.745	1032.16667
1746.665	990.83333
1749.583	981.16667
1752.499	963.16667
1755.413	957.83333
1758.325	937.16667
1761.235	917.16667
1764.142	910.83333
1767.048	888.83333
1769.951	901.16667
1772.852	906.16667
1775.752	918.5
1778.649	931.83333
1781.544	914.5
1784.437	861.5
1787.328	874.16667
1790.217	862.5
1793.104	828.83333
1795.989	840.5
1798.872	834.83333
1801.753	856.83333
1804.631	835.16667
1807.508	850.83333
1810.383	840.5
1813.255	823.83333
1816.126	826.83333
1818.994	831.5
1821.861	810.16667
1824.725	813.16667
1827.587	812.5
1830.448	803.83333
1833.306	785.83333
1836.162	807.83333
1839.017	790.83333
1841.869	793.83333
1844.719	782.16667
1847.567	781.83333
1850.414	766.16667
1853.258	770.5
1856.1	780.83333
1858.94	790.83333
1861.778	769.83333
1864.614	761.16667
1867.448	762.16667
1870.28	756.16667
1873.111	778.16667
1875.939	756.83333
1878.765	781.16667
1881.589	757.83333
1884.411	769.5
1887.231	765.16667
1890.049	754.83333
1892.865	759.5
1895.68	751.5
1898.492	755.16667
1901.302	754.16667
1904.11	735.83333
1906.916	723.5
1909.721	721.83333
1912.523	715.83333
1915.323	718.83333
1918.122	713.5
1920.918	726.5
1923.712	713.5
1926.505	711.83333
1929.295	701.83333
1932.084	719.83333
1934.87	711.83333
1937.655	707.16667
1940.438	697.83333
1943.218	710.5
1945.997	706.83333
1948.774	713.16667
1951.549	704.83333
1954.322	704.5
1957.093	696.5
1959.862	697.16667
1962.629	680.5
1965.394	677.83333
1968.157	676.5
1970.918	678.83333
1973.678	666.16667
1976.435	692.16667
1979.19	676.5
1981.944	674.5
1984.696	673.83333
1987.445	658.16667
1990.193	672.83333
1992.939	676.83333
1995.683	666.16667
1998.425	651.5
2001.165	683.16667
2003.903	656.5
2006.639	653.83333
2009.374	663.83333
2012.106	650.83333
2014.837	642.16667
2017.566	667.83333
2020.292	657.5
2023.017	661.83333
2025.74	642.5
2028.461	650.5
2031.18	655.16667
2033.898	634.5
2036.613	639.5
2039.327	644.16667
2042.038	637.16667
2044.748	628.16667
2047.456	631.16667
2050.162	620.16667
2052.866	628.16667
2055.568	629.5
2058.268	622.16667
2060.967	626.16667
2063.663	612.5
2066.358	622.83333
2069.051	618.5
2071.742	620.5
2074.431	614.16667
2077.118	611.83333
2079.804	606.83333
2082.487	617.5
2085.169	620.16667
2087.849	640.5
2090.527	610.16667
2093.203	628.5
2095.877	628.16667
2098.55	620.83333
2101.22	644.16667
2103.889	641.16667
2106.556	642.83333
2109.221	650.5
2111.884	667.16667
2114.546	712.5
2117.205	737.83333
2119.863	796.83333
2122.519	825.5
2125.173	861.5
2127.825	915.83333
2130.475	916.16667
2133.124	877.5
2135.771	834.16667
2138.416	818.5
2141.059	760.16667
2143.7	739.5
2146.339	697.16667
2148.977	656.83333
2151.613	661.16667
2154.247	637.83333
2156.879	631.5
2159.51	616.5
2162.138	593.16667
2164.765	608.5
2167.39	583.5
2170.013	601.83333
2172.634	593.16667
2175.254	593.16667
2177.872	610.16667
2180.488	568.5
2183.102	576.5
2185.714	566.5
2188.325	545.16667
2190.934	559.16667
2193.541	565.83333
2196.146	552.16667
2198.75	545.16667
2201.351	543.83333
2203.951	537.16667
2206.549	538.16667
2209.146	531.83333
2211.74	537.83333
2214.333	535.83333
2216.924	520.5
2219.514	530.5
2222.101	518.83333
2224.687	540.83333
2227.271	523.16667
2229.853	521.5
2232.433	504.5
2235.012	530.16667
2237.589	528.5
2240.164	541.16667
2242.738	515.83333
2245.309	503.5
2247.879	518.83333
2250.448	519.16667
2253.014	503.16667
2255.579	490.83333
2258.142	491.83333
2260.703	479.5
2263.262	492.5
2265.82	479.16667
2268.376	483.83333
2270.93	485.5
2273.483	474.83333
2276.033	474.83333
2278.583	482.16667
2281.13	481.83333
2283.675	464.5
2286.219	469.5
2288.761	473.5
2291.302	468.83333
2293.841	479.5
2296.377	462.16667
2298.913	466.83333
2301.446	476.5
2303.978	465.16667
2306.508	460.16667
2309.037	461.83333
2311.563	466.16667
2314.088	468.83333
2316.612	442.5
2319.133	456.16667
2321.653	458.16667
2324.171	445.83333
2326.688	458.83333
2329.202	445.16667
2331.715	451.83333
2334.227	445.83333
2336.736	461.16667
2339.244	452.5
2341.751	438.5
2344.255	445.83333
2346.758	439.5
2349.259	437.5
2351.759	439.16667
2354.257	438.83333
2356.753	432.16667
2359.247	449.5
2361.74	443.16667
2364.231	439.5
2366.721	446.5
2369.209	432.83333
2371.695	432.5
2374.179	434.83333
2376.662	423.16667
2379.143	453.5
2381.622	430.16667
2384.1	448.5
2386.576	436.83333
2389.051	452.83333
2391.524	452.16667
2393.995	444.83333
2396.464	426.16667
2398.932	429.83333
2401.398	428.83333
2403.863	439.83333
2406.325	429.16667
2408.787	428.5
2411.246	431.83333
2413.704	421.83333
2416.16	427.5
2418.615	418.5
2421.068	428.5
2423.519	431.5
2425.969	418.5
2428.417	430.83333
2430.863	451.83333
2433.308	419.83333
2435.751	425.83333
2438.193	418.16667
2440.633	425.5
2443.071	428.5
2445.508	421.5
2447.943	411.83333
2450.376	408.83333
2452.808	413.16667
2455.238	403.5
2457.667	447.16667
2460.093	412.83333
2462.519	408.83333
2464.942	418.83333
2467.365	415.16667
2469.785	423.5
2472.204	417.16667
2474.621	404.16667
2477.037	434.16667
2479.451	403.5
2481.863	404.5
2484.274	415.5
2486.683	415.5
2489.091	414.16667
2491.497	409.83333
2493.901	408.83333
2496.304	405.5
2498.705	418.5
2501.105	399.83333
2503.503	433.5
2505.899	403.83333
2508.294	428.83333
2510.687	416.5
2513.079	413.5
2515.469	400.5
2517.858	408.5
2520.245	415.16667
2522.63	396.5
2525.014	396.16667
2527.396	394.5
2529.776	388.5
2532.156	412.83333
2534.533	401.5
2536.909	397.83333
2539.283	385.83333
2541.656	395.16667
2544.027	420.16667
2546.397	400.5
2548.765	409.5
2551.131	405.16667
2553.496	400.16667
2555.86	402.83333
2558.221	407.83333
2560.582	399.5
2562.94	393.83333
2565.298	394.83333
2567.653	406.16667
2570.007	391.16667
2572.36	407.16667
2574.711	394.83333
2577.06	417.83333
2579.408	405.83333
2581.754	391.83333
2584.099	403.5
2586.442	391.16667
2588.784	403.83333
2591.124	401.16667
2593.463	407.5
2595.8	406.16667
2598.135	390.83333
2600.469	392.16667
2602.802	407.5
2605.133	405.83333
2607.462	398.16667
2609.79	385.16667
2612.116	404.83333
2614.441	402.5
2616.764	400.83333
2619.086	405.83333
2621.406	389.83333
2623.725	407.16667
2626.042	413.83333
2628.358	393.16667
2630.672	388.83333
2632.985	417.5
2635.296	408.83333
2637.606	402.5
2639.914	385.5
2642.22	405.16667
2644.525	406.5
2646.829	406.16667
2649.131	420.5
2651.432	424.5
2653.731	410.16667
2656.028	423.83333
2658.324	418.16667
2660.619	411.83333
2662.912	420.5
2665.204	406.5
2667.494	420.16667
2669.782	411.83333
2672.07	428.16667
2674.355	421.16667
2676.639	411.83333
2678.922	410.5
2681.203	418.16667
2683.483	413.5
2685.761	412.5
2688.038	416.16667
2690.313	422.83333
2692.587	426.16667
2694.859	409.16667
2697.13	430.16667
2699.399	435.83333
2701.667	433.5
2703.933	439.16667
2706.198	438.5
2708.461	443.5
2710.723	434.83333
2712.984	442.5
2715.243	440.5
2717.5	436.16667
2719.757	456.5
2722.011	440.5
2724.264	452.83333
2726.516	463.83333
2728.766	448.16667
2731.015	454.5
2733.262	451.5
2735.508	453.83333
2737.753	445.83333
2739.996	437.16667
2742.237	442.16667
2744.477	443.83333
2746.716	455.16667
2748.953	438.16667
2751.189	454.5
2753.423	441.83333
2755.656	443.5
2757.887	425.5
2760.117	433.83333
2762.346	424.16667
2764.573	420.5
2766.798	434.16667
2769.022	427.5
2771.245	447.83333
2773.467	441.5
2775.686	441.16667
2777.905	432.83333
2780.122	448.5
2782.337	453.5
2784.552	447.83333
2786.764	452.5
2788.976	449.16667
2791.186	455.16667
2793.394	462.83333
2795.601	473.16667
2797.807	474.5
2800.011	483.16667
2802.214	483.83333
2804.415	482.83333
2806.615	482.83333
2808.814	475.83333
2811.011	494.83333
2813.206	495.83333
2815.401	519.83333
2817.594	514.83333
2819.785	532.83333
2821.975	524.83333
2824.164	517.83333
2826.351	535.16667
2828.537	552.16667
2830.722	554.83333
2832.905	556.16667
2835.086	581.16667
2837.267	613.16667
2839.445	613.16667
2841.623	628.5
2843.799	639.16667
2845.974	682.16667
2848.147	715.83333
2850.319	723.5
2852.489	767.5
2854.659	765.16667
2856.826	779.16667
2858.993	813.16667
2861.158	776.83333
2863.321	784.16667
2865.483	800.5
2867.644	806.5
2869.804	795.16667
2871.962	795.83333
2874.118	790.16667
2876.274	820.16667
2878.428	821.5
2880.58	798.16667
2882.731	784.5
2884.881	784.5
2887.03	788.83333
2889.177	801.83333
2891.322	798.83333
2893.467	803.16667
2895.61	801.16667
2897.751	817.83333
2899.892	801.83333
2902.03	813.83333
2904.168	811.5
2906.304	820.5
2908.439	840.5
2910.572	821.5
2912.704	830.16667
2914.835	837.16667
2916.965	822.83333
2919.093	837.83333
2921.219	820.83333
2923.345	836.16667
2925.469	817.16667
2927.591	818.83333
2929.712	784.83333
2931.832	797.5
2933.951	765.83333
2936.068	776.16667
2938.184	747.83333
2940.299	731.83333
2942.412	720.83333
2944.524	674.5
2946.634	675.83333
2948.744	633.83333
2950.851	662.5
2952.958	628.5
2955.063	628.83333
2957.167	616.5
2959.269	581.5
2961.371	623.16667
2963.471	574.5
2965.569	569.83333
2967.666	554.5
2969.762	551.5
2971.857	550.83333
2973.95	522.83333
2976.042	527.83333
2978.133	512.5
2980.222	490.83333
2982.31	479.83333
2984.396	468.5
2986.482	477.16667
2988.566	461.83333
2990.648	468.5
2992.73	463.83333
2994.81	456.16667
2996.889	458.5
2998.966	450.5
3001.042	462.5
3003.117	460.16667
3005.191	453.16667
3007.263	457.5
3009.334	444.16667
3011.403	432.5
3013.472	433.83333
3015.539	431.83333
3017.604	438.5
3019.669	402.5
3021.732	414.16667
3023.794	406.5
3025.854	406.5
3027.914	404.83333
3029.971	405.83333
3032.028	397.5
3034.083	405.83333
3036.137	407.5
3038.19	390.5
3040.242	380.83333
3042.292	363.5
3044.341	365.83333
3046.388	388.5
3048.435	360.16667
3050.48	376.83333
3052.524	363.16667
3054.566	357.83333
3056.607	360.5
3058.647	345.5
3060.686	337.5
3062.723	325.16667
3064.759	313.16667
3066.794	-0.5
3068.828	1.5
3070.86	2.16667
