-0.839	458.08333
3.438	539.41667
7.711	160.41667
11.981	59.08333
16.247	44.08333
20.509	48.41667
24.768	43.75
29.024	51.41667
33.276	45.08333
37.524	49.41667
41.769	45.41667
46.01	36.41667
50.247	47.08333
54.481	57.41667
58.712	59.75
62.939	46.41667
67.162	63.75
71.382	56.75
75.599	45.75
79.812	60.41667
84.021	79.41667
88.227	62.08333
92.429	60.41667
96.628	51.08333
100.823	71.41667
105.015	73.41667
109.204	66.75
113.388	69.75
117.57	71.41667
121.748	88.41667
125.922	73.41667
130.093	96.41667
134.261	90.08333
138.425	95.08333
142.585	135.41667
146.742	125.41667
150.896	148.75
155.046	191.08333
159.193	296.08333
163.336	517.75
167.476	938.41667
171.613	1706.08333
175.746	2825.41667
179.875	4182.08333
184.002	5414.75
188.124	6243.41667
192.244	6537.08333
196.36	6461.08333
200.472	6262.41667
204.581	6095.41667
208.687	6001.41667
212.79	5928.75
216.889	5915.08333
220.984	5895.08333
225.077	5937.08333
229.165	5883.75
233.251	5890.08333
237.333	5867.41667
241.412	5828.08333
245.487	5731.41667
249.559	5669.41667
253.628	5635.41667
257.694	5594.75
261.756	5555.08333
265.814	5430.75
269.87	5258.08333
273.922	5071.08333
277.97	4989.08333
282.016	4939.75
286.058	4986.75
290.097	5065.08333
294.132	5132.41667
298.164	5078.08333
302.193	4833.08333
306.219	4511.08333
310.241	4122.75
314.26	3760.41667
318.276	3543.41667
322.288	3371.41667
326.297	3222.41667
330.303	3083.75
334.305	3013.08333
338.305	2972.41667
342.301	2905.08333
346.294	2919.75
350.283	2874.41667
354.269	2853.41667
358.252	2824.75
362.232	2805.75
366.209	2789.41667
370.182	2744.41667
374.152	2742.08333
378.119	2743.41667
382.083	2726.08333
386.043	2745.08333
390	2713.75
393.954	2741.75
397.905	2738.41667
401.852	2709.08333
405.797	2690.75
409.738	2694.75
413.676	2743.08333
417.61	2764.75
421.542	2672.75
425.47	2615.75
429.396	2592.08333
433.318	2570.41667
437.236	2579.75
441.152	2614.41667
445.065	2547.08333
448.974	2521.41667
452.88	2518.75
456.783	2498.41667
460.683	2489.75
464.58	2468.75
468.473	2476.75
472.364	2491.08333
476.251	2501.75
480.135	2524.08333
484.016	2534.08333
487.894	2564.08333
491.769	2557.75
495.641	2562.41667
499.509	2575.08333
503.375	2570.41667
507.237	2554.41667
511.096	2563.75
514.952	2600.41667
518.805	2641.75
522.655	2641.41667
526.502	2592.41667
530.346	2570.75
534.187	2582.41667
538.024	2587.08333
541.859	2601.08333
545.69	2633.75
549.519	2625.41667
553.344	2602.08333
557.166	2543.75
560.985	2514.75
564.802	2452.08333
568.615	2430.41667
572.425	2401.41667
576.232	2386.75
580.036	2386.41667
583.836	2382.75
587.634	2386.41667
591.429	2405.08333
595.221	2466.75
599.01	2477.08333
602.796	2502.41667
606.578	2506.41667
610.358	2508.75
614.135	2485.75
617.909	2494.75
621.679	2450.75
625.447	2418.08333
629.212	2461.08333
632.973	2413.08333
636.732	2431.41667
640.488	2443.41667
644.241	2422.75
647.991	2395.41667
651.737	2419.41667
655.481	2376.75
659.222	2397.41667
662.96	2391.75
666.695	2416.08333
670.427	2429.75
674.156	2451.08333
677.882	2433.75
681.605	2430.08333
685.325	2380.75
689.043	2401.75
692.757	2368.75
696.468	2386.41667
700.177	2357.75
703.882	2316.75
707.585	2328.41667
711.284	2336.08333
714.981	2344.75
718.675	2339.41667
722.366	2352.41667
726.054	2339.41667
729.739	2344.08333
733.421	2360.75
737.1	2355.08333
740.777	2363.75
744.45	2382.75
748.121	2400.41667
751.789	2438.75
755.453	2418.08333
759.115	2462.41667
762.774	2443.75
766.431	2435.08333
770.084	2498.41667
773.734	2520.08333
777.382	2552.08333
781.027	2566.75
784.669	2593.41667
788.308	2594.41667
791.944	2617.08333
795.577	2609.75
799.208	2634.75
802.835	2657.75
806.46	2659.08333
810.082	2695.08333
813.701	2680.08333
817.317	2702.75
820.931	2698.08333
824.542	2694.75
828.149	2674.08333
831.754	2647.41667
835.357	2654.75
838.956	2647.08333
842.553	2665.75
846.146	2666.41667
849.737	2629.75
853.326	2603.08333
856.911	2603.41667
860.493	2647.75
864.073	2680.08333
867.65	2737.75
871.225	2769.41667
874.796	2707.75
878.365	2741.41667
881.931	2753.08333
885.494	2767.08333
889.054	2767.75
892.612	2753.08333
896.166	2735.75
899.719	2698.08333
903.268	2687.08333
906.814	2675.75
910.358	2638.75
913.899	2608.75
917.438	2616.75
920.973	2589.41667
924.506	2637.75
928.036	2671.75
931.564	2739.41667
935.088	2773.41667
938.61	2790.41667
942.129	2854.41667
945.646	2908.75
949.16	2939.75
952.671	3026.41667
956.179	2984.41667
959.685	2969.75
963.188	2956.41667
966.688	2907.75
970.185	2828.75
973.68	2737.75
977.173	2706.75
980.662	2662.08333
984.149	2680.41667
987.633	2648.75
991.114	2697.41667
994.593	2732.75
998.069	2813.08333
1001.542	2890.08333
1005.013	2885.75
1008.481	2678.41667
1011.947	2645.75
1015.409	2635.41667
1018.869	2618.75
1022.327	2615.41667
1025.782	2608.75
1029.234	2580.08333
1032.683	2544.08333
1036.13	2472.08333
1039.574	2398.41667
1043.016	2322.75
1046.455	2289.41667
1049.891	2274.08333
1053.325	2285.75
1056.756	2284.08333
1060.184	2302.41667
1063.61	2321.08333
1067.033	2338.41667
1070.454	2316.08333
1073.872	2342.41667
1077.287	2350.08333
1080.7	2369.08333
1084.11	2327.08333
1087.517	2312.75
1090.922	2286.08333
1094.325	2291.08333
1097.724	2250.08333
1101.122	2266.08333
1104.516	2239.08333
1107.908	2255.75
1111.298	2265.75
1114.684	2287.08333
1118.069	2334.41667
1121.45	2383.41667
1124.83	2344.75
1128.206	2381.41667
1131.58	2411.75
1134.951	2477.75
1138.32	2539.75
1141.687	2619.75
1145.05	2673.41667
1148.412	2692.08333
1151.77	2661.75
1155.126	2653.41667
1158.48	2653.75
1161.831	2664.08333
1165.18	2689.75
1168.525	2722.08333
1171.869	2735.75
1175.21	2775.08333
1178.548	2788.75
1181.884	2807.75
1185.217	2836.08333
1188.548	2932.08333
1191.877	2993.75
1195.202	3112.08333
1198.526	3180.08333
1201.846	3199.41667
1205.165	3157.08333
1208.48	3158.41667
1211.794	3139.75
1215.104	3152.41667
1218.413	3140.41667
1221.719	3126.75
1225.022	3083.08333
1228.323	3022.75
1231.621	2993.41667
1234.917	2971.08333
1238.21	2971.75
1241.501	2962.41667
1244.79	2942.08333
1248.076	2935.75
1251.359	2968.08333
1254.64	3027.41667
1257.919	3031.41667
1261.195	3105.08333
1264.468	3135.75
1267.74	3196.08333
1271.008	3185.75
1274.275	3175.75
1277.538	3186.41667
1280.8	3193.75
1284.059	3175.08333
1287.315	3223.41667
1290.569	3224.08333
1293.821	3263.75
1297.07	3271.41667
1300.317	3291.41667
1303.562	3279.08333
1306.803	3221.08333
1310.043	3230.41667
1313.28	3198.41667
1316.515	3172.41667
1319.747	3155.08333
1322.977	3117.41667
1326.204	3072.75
1329.429	3051.41667
1332.652	2995.75
1335.872	2987.08333
1339.09	2953.75
1342.306	2914.75
1345.519	2880.41667
1348.729	2867.75
1351.938	2874.41667
1355.144	2844.75
1358.347	2779.41667
1361.548	2780.08333
1364.747	2780.75
1367.944	2755.08333
1371.138	2755.08333
1374.329	2778.41667
1377.518	2777.08333
1380.705	2793.08333
1383.89	2755.08333
1387.072	2656.75
1390.252	2567.41667
1393.429	2497.08333
1396.605	2396.41667
1399.777	2323.08333
1402.948	2341.08333
1406.116	2294.41667
1409.282	2274.75
1412.445	2297.41667
1415.606	2343.75
1418.765	2364.08333
1421.921	2411.75
1425.075	2478.75
1428.227	2563.75
1431.376	2680.08333
1434.524	2756.41667
1437.668	2849.75
1440.811	2894.41667
1443.951	2899.75
1447.089	2911.41667
1450.224	2918.75
1453.357	2889.75
1456.488	2861.41667
1459.617	2812.08333
1462.743	2781.41667
1465.867	2708.41667
1468.989	2660.75
1472.108	2607.41667
1475.225	2557.41667
1478.34	2522.75
1481.453	2512.75
1484.563	2535.41667
1487.671	2599.41667
1490.776	2588.08333
1493.88	2633.41667
1496.981	2663.41667
1500.08	2712.08333
1503.176	2748.75
1506.271	2777.75
1509.363	2827.08333
1512.452	2861.75
1515.54	2874.08333
1518.625	2908.75
1521.708	2979.75
1524.789	3052.08333
1527.867	3186.08333
1530.944	3291.41667
1534.018	3467.41667
1537.089	3629.41667
1540.159	3645.41667
1543.226	3646.75
1546.291	3558.75
1549.354	3517.75
1552.415	3424.75
1555.473	3340.41667
1558.529	3294.41667
1561.583	3267.41667
1564.634	3229.08333
1567.684	3213.08333
1570.731	3233.41667
1573.776	3289.75
1576.819	3358.08333
1579.859	3384.41667
1582.898	3428.41667
1585.934	3456.08333
1588.968	3462.75
1591.999	3468.08333
1595.029	3490.08333
1598.056	3503.75
1601.081	3527.75
1604.104	3494.08333
1607.125	3481.75
1610.144	3433.41667
1613.16	3356.41667
1616.174	3243.75
1619.186	3178.75
1622.196	3062.41667
1625.203	3002.75
1628.209	2944.75
1631.212	2882.41667
1634.213	2879.41667
1637.212	2853.41667
1640.209	2817.41667
1643.203	2733.41667
1646.196	2673.08333
1649.186	2557.08333
1652.174	2484.08333
1655.16	2401.75
1658.144	2334.75
1661.125	2224.75
1664.105	2137.41667
1667.082	2052.75
1670.057	1937.75
1673.03	1820.41667
1676.001	1706.41667
1678.97	1594.75
1681.937	1495.08333
1684.901	1416.08333
1687.863	1372.41667
1690.824	1295.08333
1693.782	1294.41667
1696.738	1227.41667
1699.692	1213.41667
1702.643	1166.75
1705.593	1170.08333
1708.54	1146.75
1711.486	1149.75
1714.429	1116.41667
1717.37	1109.08333
1720.309	1068.75
1723.246	1092.08333
1726.181	1065.41667
1729.113	1065.08333
1732.044	1055.75
1734.972	1043.08333
1737.899	1055.75
1740.823	1049.08333
1743.745	1040.41667
1746.665	994.41667
1749.583	973.75
1752.499	960.41667
1755.413	960.75
1758.325	934.75
1761.235	927.08333
1764.142	915.08333
1767.048	901.75
1769.951	917.41667
1772.852	902.08333
1775.752	921.75
1778.649	961.08333
1781.544	914.08333
1784.437	866.41667
1787.328	882.75
1790.217	862.41667
1793.104	853.75
1795.989	860.41667
1798.872	840.08333
1801.753	852.41667
1804.631	843.41667
1807.508	858.41667
1810.383	845.08333
1813.255	835.75
1816.126	831.75
1818.994	838.41667
1821.861	816.75
1824.725	823.75
1827.587	809.41667
1830.448	823.08333
1833.306	797.41667
1836.162	813.75
1839.017	799.41667
1841.869	799.41667
1844.719	790.75
1847.567	774.75
1850.414	774.08333
1853.258	770.75
1856.1	779.08333
1858.94	792.41667
1861.778	775.75
1864.614	768.41667
1867.448	776.75
1870.28	773.75
1873.111	792.75
1875.939	775.41667
1878.765	795.75
1881.589	770.75
1884.411	763.08333
1887.231	764.41667
1890.049	766.41667
1892.865	773.75
1895.68	752.41667
1898.492	771.08333
1901.302	754.08333
1904.11	747.41667
1906.916	741.41667
1909.721	743.41667
1912.523	744.08333
1915.323	721.08333
1918.122	725.41667
1920.918	726.41667
1923.712	720.75
1926.505	721.08333
1929.295	720.41667
1932.084	723.41667
1934.87	722.08333
1937.655	710.41667
1940.438	715.75
1943.218	721.08333
1945.997	709.75
1948.774	717.08333
1951.549	721.75
1954.322	703.75
1957.093	703.41667
1959.862	701.08333
1962.629	690.41667
1965.394	693.08333
1968.157	696.08333
1970.918	680.75
1973.678	680.75
1976.435	698.41667
1979.19	678.08333
1981.944	673.75
1984.696	667.75
1987.445	663.75
1990.193	672.41667
1992.939	687.41667
1995.683	670.41667
1998.425	655.41667
2001.165	691.08333
2003.903	654.41667
2006.639	663.75
2009.374	672.75
2012.106	663.08333
2014.837	633.08333
2017.566	657.08333
2020.292	659.08333
2023.017	655.75
2025.74	636.41667
2028.461	640.75
2031.18	651.08333
2033.898	637.41667
2036.613	645.75
2039.327	645.08333
2042.038	642.08333
2044.748	630.41667
2047.456	646.75
2050.162	631.41667
2052.866	620.41667
2055.568	637.75
2058.268	628.08333
2060.967	633.75
2063.663	630.41667
2066.358	621.75
2069.051	624.75
2071.742	626.41667
2074.431	625.41667
2077.118	611.08333
2079.804	609.41667
2082.487	614.41667
2085.169	622.75
2087.849	637.41667
2090.527	609.41667
2093.203	626.75
2095.877	632.08333
2098.55	634.41667
2101.22	652.08333
2103.889	643.08333
2106.556	637.75
2109.221	653.41667
2111.884	674.08333
2114.546	714.75
2117.205	745.41667
2119.863	801.08333
2122.519	815.08333
2125.173	875.41667
2127.825	908.41667
2130.475	920.75
2133.124	873.08333
2135.771	836.08333
2138.416	816.41667
2141.059	769.75
2143.7	737.41667
2146.339	688.75
2148.977	660.75
2151.613	669.08333
2154.247	654.41667
2156.879	642.41667
2159.51	617.75
2162.138	614.08333
2164.765	600.41667
2167.39	584.08333
2170.013	604.41667
2172.634	598.75
2175.254	588.41667
2177.872	615.41667
2180.488	570.75
2183.102	576.41667
2185.714	578.41667
2188.325	552.75
2190.934	562.41667
2193.541	569.41667
2196.146	555.41667
2198.75	538.41667
2201.351	547.41667
2203.951	537.75
2206.549	553.08333
2209.146	552.08333
2211.74	538.08333
2214.333	541.75
2216.924	529.75
2219.514	535.75
2222.101	541.75
2224.687	545.41667
2227.271	533.08333
2229.853	511.75
2232.433	508.08333
2235.012	539.08333
2237.589	529.41667
2240.164	531.75
2242.738	519.08333
2245.309	517.08333
2247.879	525.41667
2250.448	522.41667
2253.014	504.41667
2255.579	495.08333
2258.142	501.41667
2260.703	495.41667
2263.262	496.41667
2265.82	490.08333
2268.376	490.41667
2270.93	481.41667
2273.483	480.41667
2276.033	488.41667
2278.583	472.41667
2281.13	482.41667
2283.675	458.08333
2286.219	473.08333
2288.761	477.41667
2291.302	474.41667
2293.841	479.41667
2296.377	460.75
2298.913	465.08333
2301.446	478.08333
2303.978	469.08333
2306.508	462.41667
2309.037	474.08333
2311.563	463.08333
2314.088	468.75
2316.612	452.41667
2319.133	464.41667
2321.653	469.08333
2324.171	453.75
2326.688	472.08333
2329.202	464.08333
2331.715	455.75
2334.227	441.75
2336.736	459.08333
2339.244	443.41667
2341.751	451.75
2344.255	449.75
2346.758	452.41667
2349.259	433.08333
2351.759	444.08333
2354.257	440.75
2356.753	438.41667
2359.247	444.08333
2361.74	453.08333
2364.231	447.41667
2366.721	448.75
2369.209	446.75
2371.695	441.41667
2374.179	432.75
2376.662	427.75
2379.143	443.75
2381.622	442.08333
2384.1	451.08333
2386.576	442.75
2389.051	458.08333
2391.524	455.75
2393.995	444.08333
2396.464	430.08333
2398.932	433.41667
2401.398	430.08333
2403.863	431.41667
2406.325	426.41667
2408.787	435.75
2411.246	432.41667
2413.704	433.08333
2416.16	423.08333
2418.615	438.75
2421.068	426.41667
2423.519	436.08333
2425.969	411.41667
2428.417	428.75
2430.863	444.08333
2433.308	429.75
2435.751	424.41667
2438.193	424.75
2440.633	432.41667
2443.071	429.08333
2445.508	427.75
2447.943	418.08333
2450.376	414.08333
2452.808	423.08333
2455.238	409.75
2457.667	457.08333
2460.093	412.75
2462.519	414.75
2464.942	416.75
2467.365	419.08333
2469.785	416.41667
2472.204	413.75
2474.621	408.08333
2477.037	431.75
2479.451	395.08333
2481.863	405.08333
2484.274	404.41667
2486.683	411.75
2489.091	420.75
2491.497	417.41667
2493.901	422.41667
2496.304	409.08333
2498.705	419.41667
2501.105	410.08333
2503.503	435.41667
2505.899	400.08333
2508.294	422.75
2510.687	410.08333
2513.079	407.75
2515.469	404.41667
2517.858	409.08333
2520.245	416.41667
2522.63	404.08333
2525.014	403.75
2527.396	400.41667
2529.776	392.08333
2532.156	414.08333
2534.533	401.08333
2536.909	401.75
2539.283	387.75
2541.656	402.41667
2544.027	418.75
2546.397	398.08333
2548.765	401.41667
2551.131	399.08333
2553.496	397.75
2555.86	403.41667
2558.221	404.75
2560.582	396.08333
2562.94	393.08333
2565.298	398.75
2567.653	409.41667
2570.007	385.41667
2572.36	408.08333
2574.711	390.08333
2577.06	409.08333
2579.408	409.41667
2581.754	398.08333
2584.099	403.08333
2586.442	396.75
2588.784	400.41667
2591.124	401.75
2593.463	404.41667
2595.8	406.75
2598.135	394.08333
2600.469	396.08333
2602.802	400.08333
2605.133	408.41667
2607.462	388.41667
2609.79	384.75
2612.116	409.08333
2614.441	413.41667
2616.764	403.75
2619.086	398.75
2621.406	393.75
2623.725	409.75
2626.042	414.75
2628.358	404.08333
2630.672	396.75
2632.985	416.08333
2635.296	401.75
2637.606	402.75
2639.914	387.75
2642.22	401.08333
2644.525	409.08333
2646.829	414.08333
2649.131	415.41667
2651.432	425.41667
2653.731	412.41667
2656.028	418.41667
2658.324	424.41667
2660.619	408.75
2662.912	421.08333
2665.204	405.08333
2667.494	432.75
2669.782	409.08333
2672.07	421.41667
2674.355	418.75
2676.639	422.41667
2678.922	404.08333
2681.203	413.75
2683.483	404.41667
2685.761	415.08333
2688.038	423.08333
2690.313	426.41667
2692.587	427.75
2694.859	414.08333
2697.13	426.75
2699.399	436.41667
2701.667	433.75
2703.933	430.41667
2706.198	447.08333
2708.461	438.08333
2710.723	443.41667
2712.984	435.75
2715.243	441.75
2717.5	439.08333
2719.757	449.41667
2722.011	442.41667
2724.264	452.08333
2726.516	466.75
2728.766	445.75
2731.015	452.41667
2733.262	455.08333
2735.508	456.75
2737.753	452.41667
2739.996	450.41667
2742.237	444.41667
2744.477	458.41667
2746.716	451.08333
2748.953	448.41667
2751.189	448.75
2753.423	446.41667
2755.656	428.75
2757.887	429.08333
2760.117	434.41667
2762.346	420.75
2764.573	432.41667
2766.798	434.41667
2769.022	429.08333
2771.245	439.41667
2773.467	433.41667
2775.686	442.08333
2777.905	441.75
2780.122	449.08333
2782.337	457.41667
2784.552	446.08333
2786.764	452.41667
2788.976	461.08333
2791.186	454.75
2793.394	474.41667
2795.601	464.08333
2797.807	486.08333
2800.011	486.08333
2802.214	482.41667
2804.415	486.08333
2806.615	482.75
2808.814	493.41667
2811.011	492.41667
2813.206	493.41667
2815.401	510.41667
2817.594	519.75
2819.785	513.08333
2821.975	512.08333
2824.164	519.75
2826.351	527.75
2828.537	544.41667
2830.722	552.08333
2832.905	552.75
2835.086	583.08333
2837.267	606.41667
2839.445	621.41667
2841.623	635.08333
2843.799	656.75
2845.974	688.08333
2848.147	706.75
2850.319	725.41667
2852.489	767.75
2854.659	773.08333
2856.826	779.75
2858.993	816.75
2861.158	778.75
2863.321	796.41667
2865.483	797.08333
2867.644	805.75
2869.804	795.75
2871.962	796.75
2874.118	807.41667
2876.274	821.75
2878.428	810.41667
2880.58	803.41667
2882.731	793.41667
2884.881	791.41667
2887.03	806.08333
2889.177	789.08333
2891.322	808.41667
2893.467	795.08333
2895.61	791.75
2897.751	814.08333
2899.892	809.75
2902.03	818.75
2904.168	822.41667
2906.304	823.75
2908.439	845.75
2910.572	826.41667
2912.704	841.75
2914.835	846.08333
2916.965	832.41667
2919.093	852.75
2921.219	830.75
2923.345	849.41667
2925.469	812.41667
2927.591	819.41667
2929.712	796.08333
2931.832	790.08333
2933.951	775.41667
2936.068	768.08333
2938.184	738.08333
2940.299	724.75
2942.412	706.41667
2944.524	690.41667
2946.634	678.08333
2948.744	627.08333
2950.851	662.08333
2952.958	619.75
2955.063	624.08333
2957.167	620.08333
2959.269	587.75
2961.371	609.75
2963.471	568.75
2965.569	586.75
2967.666	547.75
2969.762	548.75
2971.857	541.08333
2973.95	521.08333
2976.042	515.75
2978.133	502.41667
2980.222	495.08333
2982.31	482.08333
2984.396	475.41667
2986.482	481.41667
2988.566	475.41667
2990.648	453.41667
2992.73	461.75
2994.81	456.41667
2996.889	461.41667
2998.966	461.08333
3001.042	460.41667
3003.117	463.41667
3005.191	453.08333
3007.263	456.75
3009.334	442.08333
3011.403	430.75
3013.472	432.08333
3015.539	437.41667
3017.604	435.75
3019.669	398.41667
3021.732	417.08333
3023.794	406.41667
3025.854	409.08333
3027.914	409.75
3029.971	406.08333
3032.028	400.75
3034.083	412.75
3036.137	399.41667
3038.19	392.75
3040.242	366.41667
3042.292	368.08333
3044.341	374.41667
3046.388	377.41667
3048.435	362.08333
3050.48	379.08333
3052.524	372.75
3054.566	346.08333
3056.607	359.41667
3058.647	352.41667
3060.686	342.41667
3062.723	330.75
3064.759	314.75
3066.794	0.08333
3068.828	2.41667
3070.86	2.41667
