-0.839	460.20833
3.438	535.54167
7.711	161.875
11.981	60.20833
16.247	46.54167
20.509	49.20833
24.768	45.20833
29.024	52.875
33.276	45.875
37.524	49.20833
41.769	49.875
46.01	34.875
50.247	44.875
54.481	58.20833
58.712	57.875
62.939	47.875
67.162	62.20833
71.382	58.54167
75.599	48.875
79.812	57.20833
84.021	84.875
88.227	60.20833
92.429	62.54167
96.628	52.20833
100.823	68.54167
105.015	76.875
109.204	66.875
113.388	74.20833
117.57	74.20833
121.748	84.875
125.922	81.20833
130.093	97.20833
134.261	100.54167
138.425	93.875
142.585	132.875
146.742	125.20833
150.896	153.875
155.046	193.20833
159.193	305.875
163.336	517.875
167.476	916.20833
171.613	1727.54167
175.746	2847.54167
179.875	4205.20833
184.002	5463.875
188.124	6284.875
192.244	6562.875
196.36	6477.20833
200.472	6335.875
204.581	6167.20833
208.687	6024.54167
212.79	5952.54167
216.889	5913.54167
220.984	5944.54167
225.077	5956.54167
229.165	5968.54167
233.251	5996.875
237.333	5922.20833
241.412	5876.875
245.487	5790.875
249.559	5701.20833
253.628	5679.20833
257.694	5643.54167
261.756	5591.20833
265.814	5487.875
269.87	5343.875
273.922	5148.54167
277.97	5048.54167
282.016	4985.20833
286.058	5030.54167
290.097	5123.54167
294.132	5167.54167
298.164	5120.20833
302.193	4847.875
306.219	4517.20833
310.241	4124.20833
314.26	3806.20833
318.276	3554.875
322.288	3371.875
326.297	3253.54167
330.303	3127.20833
334.305	3047.875
338.305	3013.875
342.301	2949.875
346.294	2942.54167
350.283	2926.875
354.269	2883.20833
358.252	2881.54167
362.232	2840.20833
366.209	2822.20833
370.182	2788.875
374.152	2783.20833
378.119	2795.54167
382.083	2770.875
386.043	2799.54167
390	2761.875
393.954	2776.20833
397.905	2786.875
401.852	2782.20833
405.797	2722.54167
409.738	2737.875
413.676	2789.54167
417.61	2816.54167
421.542	2700.54167
425.47	2644.54167
429.396	2650.54167
433.318	2623.875
437.236	2618.20833
441.152	2636.54167
445.065	2601.20833
448.974	2590.54167
452.88	2562.54167
456.783	2520.54167
460.683	2524.54167
464.58	2538.875
468.473	2542.875
472.364	2560.54167
476.251	2550.20833
480.135	2566.54167
484.016	2590.20833
487.894	2601.875
491.769	2635.20833
495.641	2612.54167
499.509	2632.54167
503.375	2621.20833
507.237	2619.20833
511.096	2615.20833
514.952	2639.875
518.805	2678.54167
522.655	2694.875
526.502	2662.875
530.346	2595.20833
534.187	2611.54167
538.024	2621.20833
541.859	2680.54167
545.69	2702.875
549.519	2648.875
553.344	2632.20833
557.166	2603.20833
560.985	2570.20833
564.802	2512.54167
568.615	2454.875
572.425	2426.54167
576.232	2425.875
580.036	2417.54167
583.836	2444.20833
587.634	2439.875
591.429	2445.875
595.221	2510.875
599.01	2524.54167
602.796	2544.875
606.578	2568.875
610.358	2583.20833
614.135	2521.20833
617.909	2526.54167
621.679	2514.875
625.447	2480.54167
629.212	2496.20833
632.973	2498.54167
636.732	2481.54167
640.488	2514.20833
644.241	2435.875
647.991	2448.875
651.737	2459.875
655.481	2427.875
659.222	2442.875
662.96	2434.54167
666.695	2464.20833
670.427	2480.875
674.156	2489.20833
677.882	2479.875
681.605	2462.875
685.325	2450.20833
689.043	2446.875
692.757	2418.20833
696.468	2413.54167
700.177	2411.54167
703.882	2389.20833
707.585	2374.875
711.284	2369.20833
714.981	2379.20833
718.675	2369.20833
722.366	2394.54167
726.054	2376.20833
729.739	2375.20833
733.421	2407.875
737.1	2383.20833
740.777	2404.54167
744.45	2418.20833
748.121	2427.20833
751.789	2471.20833
755.453	2440.54167
759.115	2484.20833
762.774	2509.20833
766.431	2505.54167
770.084	2520.875
773.734	2554.20833
777.382	2608.20833
781.027	2606.875
784.669	2637.54167
788.308	2618.20833
791.944	2642.875
795.577	2664.875
799.208	2690.54167
802.835	2715.54167
806.46	2696.875
810.082	2744.54167
813.701	2737.875
817.317	2780.54167
820.931	2754.54167
824.542	2725.875
828.149	2710.20833
831.754	2673.54167
835.357	2684.20833
838.956	2685.875
842.553	2703.54167
846.146	2704.20833
849.737	2660.20833
853.326	2655.20833
856.911	2641.875
860.493	2687.875
864.073	2703.20833
867.65	2763.875
871.225	2796.875
874.796	2763.20833
878.365	2771.54167
881.931	2778.875
885.494	2795.20833
889.054	2790.875
892.612	2780.20833
896.166	2754.875
899.719	2731.20833
903.268	2716.20833
906.814	2678.875
910.358	2655.875
913.899	2621.875
917.438	2655.875
920.973	2654.875
924.506	2696.20833
928.036	2737.875
931.564	2770.875
935.088	2805.20833
938.61	2826.20833
942.129	2869.54167
945.646	2943.20833
949.16	2988.54167
952.671	3043.875
956.179	3028.875
959.685	3001.875
963.188	2996.875
966.688	2963.20833
970.185	2877.875
973.68	2788.875
977.173	2733.875
980.662	2713.54167
984.149	2696.20833
987.633	2702.875
991.114	2706.875
994.593	2776.54167
998.069	2869.54167
1001.542	2943.20833
1005.013	2885.875
1008.481	2716.54167
1011.947	2686.875
1015.409	2674.20833
1018.869	2648.875
1022.327	2666.875
1025.782	2643.875
1029.234	2610.54167
1032.683	2599.54167
1036.13	2515.875
1039.574	2422.875
1043.016	2364.54167
1046.455	2327.54167
1049.891	2300.875
1053.325	2321.20833
1056.756	2312.20833
1060.184	2340.875
1063.61	2340.20833
1067.033	2382.20833
1070.454	2362.54167
1073.872	2394.54167
1077.287	2367.54167
1080.7	2375.875
1084.11	2380.54167
1087.517	2336.875
1090.922	2310.875
1094.325	2306.54167
1097.724	2277.54167
1101.122	2275.54167
1104.516	2281.875
1107.908	2258.20833
1111.298	2298.20833
1114.684	2328.20833
1118.069	2353.20833
1121.45	2401.54167
1124.83	2383.20833
1128.206	2403.20833
1131.58	2418.54167
1134.951	2512.54167
1138.32	2554.20833
1141.687	2663.875
1145.05	2700.54167
1148.412	2696.875
1151.77	2710.54167
1155.126	2686.20833
1158.48	2677.54167
1161.831	2700.875
1165.18	2699.54167
1168.525	2722.875
1171.869	2759.54167
1175.21	2800.54167
1178.548	2809.875
1181.884	2837.54167
1185.217	2910.875
1188.548	2946.54167
1191.877	3019.875
1195.202	3125.20833
1198.526	3188.875
1201.846	3185.20833
1205.165	3193.20833
1208.48	3186.875
1211.794	3134.54167
1215.104	3169.54167
1218.413	3176.875
1221.719	3131.875
1225.022	3102.54167
1228.323	3048.54167
1231.621	3023.54167
1234.917	3002.20833
1238.21	3033.875
1241.501	3002.54167
1244.79	2987.875
1248.076	2977.20833
1251.359	2988.54167
1254.64	3046.20833
1257.919	3061.875
1261.195	3136.54167
1264.468	3175.20833
1267.74	3221.54167
1271.008	3221.54167
1274.275	3201.20833
1277.538	3188.20833
1280.8	3177.54167
1284.059	3178.54167
1287.315	3220.54167
1290.569	3231.20833
1293.821	3278.54167
1297.07	3311.54167
1300.317	3300.54167
1303.562	3308.54167
1306.803	3263.875
1310.043	3264.54167
1313.28	3241.54167
1316.515	3202.875
1319.747	3184.20833
1322.977	3166.54167
1326.204	3117.20833
1329.429	3059.875
1332.652	3052.54167
1335.872	3015.54167
1339.09	2973.54167
1342.306	2964.875
1345.519	2926.875
1348.729	2878.54167
1351.938	2891.875
1355.144	2849.875
1358.347	2831.875
1361.548	2806.20833
1364.747	2802.875
1367.944	2750.20833
1371.138	2777.20833
1374.329	2768.875
1377.518	2833.54167
1380.705	2821.20833
1383.89	2789.875
1387.072	2704.54167
1390.252	2588.875
1393.429	2505.54167
1396.605	2432.875
1399.777	2363.54167
1402.948	2349.20833
1406.116	2335.54167
1409.282	2317.54167
1412.445	2316.875
1415.606	2351.54167
1418.765	2379.875
1421.921	2453.875
1425.075	2496.20833
1428.227	2583.20833
1431.376	2716.20833
1434.524	2791.54167
1437.668	2879.875
1440.811	2905.875
1443.951	2932.54167
1447.089	2941.875
1450.224	2926.54167
1453.357	2917.875
1456.488	2904.20833
1459.617	2818.875
1462.743	2783.20833
1465.867	2719.20833
1468.989	2676.875
1472.108	2650.54167
1475.225	2579.875
1478.34	2537.875
1481.453	2549.20833
1484.563	2557.875
1487.671	2573.875
1490.776	2608.20833
1493.88	2665.54167
1496.981	2670.875
1500.08	2742.20833
1503.176	2759.875
1506.271	2820.54167
1509.363	2825.54167
1512.452	2858.875
1515.54	2925.875
1518.625	2940.54167
1521.708	3008.875
1524.789	3085.20833
1527.867	3179.20833
1530.944	3340.875
1534.018	3490.875
1537.089	3617.20833
1540.159	3672.20833
1543.226	3669.20833
1546.291	3573.54167
1549.354	3514.875
1552.415	3437.54167
1555.473	3379.875
1558.529	3320.20833
1561.583	3266.20833
1564.634	3236.875
1567.684	3231.20833
1570.731	3280.20833
1573.776	3288.54167
1576.819	3352.20833
1579.859	3398.54167
1582.898	3415.20833
1585.934	3476.54167
1588.968	3473.875
1591.999	3490.875
1595.029	3498.54167
1598.056	3526.875
1601.081	3538.875
1604.104	3521.875
1607.125	3503.875
1610.144	3442.20833
1613.16	3334.54167
1616.174	3274.54167
1619.186	3175.20833
1622.196	3086.875
1625.203	3007.20833
1628.209	2947.20833
1631.212	2908.20833
1634.213	2900.20833
1637.212	2900.20833
1640.209	2877.54167
1643.203	2795.54167
1646.196	2715.20833
1649.186	2595.875
1652.174	2510.20833
1655.16	2443.875
1658.144	2364.20833
1661.125	2246.20833
1664.105	2168.875
1667.082	2067.54167
1670.057	1962.20833
1673.03	1848.875
1676.001	1714.20833
1678.97	1624.875
1681.937	1511.54167
1684.901	1446.20833
1687.863	1395.20833
1690.824	1337.875
1693.782	1309.20833
1696.738	1250.875
1699.692	1210.875
1702.643	1185.875
1705.593	1175.20833
1708.54	1158.20833
1711.486	1174.20833
1714.429	1111.20833
1717.37	1135.54167
1720.309	1101.54167
1723.246	1101.875
1726.181	1082.54167
1729.113	1083.20833
1732.044	1064.54167
1734.972	1053.54167
1737.899	1067.875
1740.823	1059.20833
1743.745	1065.20833
1746.665	1026.54167
1749.583	996.875
1752.499	988.54167
1755.413	964.20833
1758.325	943.54167
1761.235	953.54167
1764.142	938.54167
1767.048	933.20833
1769.951	919.54167
1772.852	917.54167
1775.752	952.875
1778.649	959.54167
1781.544	928.20833
1784.437	892.54167
1787.328	904.54167
1790.217	873.875
1793.104	855.875
1795.989	860.875
1798.872	867.20833
1801.753	878.54167
1804.631	859.54167
1807.508	870.20833
1810.383	856.875
1813.255	856.20833
1816.126	858.54167
1818.994	846.875
1821.861	836.20833
1824.725	843.20833
1827.587	830.875
1830.448	828.875
1833.306	812.54167
1836.162	821.20833
1839.017	823.875
1841.869	805.20833
1844.719	807.875
1847.567	793.875
1850.414	789.875
1853.258	794.875
1856.1	803.20833
1858.94	803.20833
1861.778	793.54167
1864.614	788.20833
1867.448	791.20833
1870.28	789.875
1873.111	808.20833
1875.939	779.875
1878.765	806.54167
1881.589	785.54167
1884.411	782.875
1887.231	783.54167
1890.049	778.20833
1892.865	779.54167
1895.68	768.875
1898.492	779.54167
1901.302	767.54167
1904.11	754.875
1906.916	756.20833
1909.721	749.875
1912.523	742.54167
1915.323	726.20833
1918.122	737.20833
1920.918	742.875
1923.712	726.20833
1926.505	724.875
1929.295	733.20833
1932.084	731.20833
1934.87	728.875
1937.655	736.20833
1940.438	721.20833
1943.218	719.20833
1945.997	732.875
1948.774	739.54167
1951.549	728.20833
1954.322	712.875
1957.093	713.54167
1959.862	702.20833
1962.629	698.20833
1965.394	702.54167
1968.157	696.875
1970.918	696.20833
1973.678	683.54167
1976.435	706.54167
1979.19	689.54167
1981.944	692.20833
1984.696	694.875
1987.445	681.20833
1990.193	689.20833
1992.939	700.875
1995.683	676.875
1998.425	660.875
2001.165	707.20833
2003.903	667.20833
2006.639	680.875
2009.374	691.20833
2012.106	674.54167
2014.837	659.875
2017.566	676.54167
2020.292	676.54167
2023.017	669.20833
2025.74	664.20833
2028.461	654.875
2031.18	652.54167
2033.898	650.875
2036.613	653.54167
2039.327	662.54167
2042.038	641.875
2044.748	646.20833
2047.456	654.875
2050.162	635.875
2052.866	637.875
2055.568	649.54167
2058.268	648.20833
2060.967	643.875
2063.663	612.20833
2066.358	630.875
2069.051	628.875
2071.742	641.54167
2074.431	624.20833
2077.118	637.20833
2079.804	613.20833
2082.487	620.875
2085.169	636.875
2087.849	657.875
2090.527	620.54167
2093.203	628.20833
2095.877	640.20833
2098.55	643.875
2101.22	648.54167
2103.889	646.54167
2106.556	647.875
2109.221	665.54167
2111.884	672.875
2114.546	730.54167
2117.205	751.20833
2119.863	801.20833
2122.519	830.875
2125.173	877.20833
2127.825	917.54167
2130.475	912.20833
2133.124	887.875
2135.771	844.20833
2138.416	823.875
2141.059	777.875
2143.7	751.875
2146.339	699.20833
2148.977	671.20833
2151.613	674.20833
2154.247	651.20833
2156.879	641.54167
2159.51	618.875
2162.138	613.54167
2164.765	624.875
2167.39	595.20833
2170.013	615.20833
2172.634	607.875
2175.254	606.875
2177.872	628.875
2180.488	586.20833
2183.102	593.20833
2185.714	573.20833
2188.325	558.875
2190.934	575.20833
2193.541	572.54167
2196.146	571.875
2198.75	540.20833
2201.351	553.20833
2203.951	538.875
2206.549	561.54167
2209.146	556.20833
2211.74	550.875
2214.333	548.20833
2216.924	531.54167
2219.514	543.20833
2222.101	538.20833
2224.687	552.54167
2227.271	540.20833
2229.853	516.54167
2232.433	514.54167
2235.012	540.875
2237.589	531.54167
2240.164	537.875
2242.738	532.54167
2245.309	521.54167
2247.879	530.875
2250.448	539.875
2253.014	508.54167
2255.579	491.875
2258.142	497.875
2260.703	495.54167
2263.262	498.20833
2265.82	496.875
2268.376	497.20833
2270.93	487.20833
2273.483	486.54167
2276.033	492.875
2278.583	497.54167
2281.13	487.54167
2283.675	475.54167
2286.219	484.20833
2288.761	483.875
2291.302	479.875
2293.841	496.20833
2296.377	468.875
2298.913	479.875
2301.446	483.875
2303.978	481.20833
2306.508	473.875
2309.037	474.54167
2311.563	470.20833
2314.088	468.875
2316.612	457.20833
2319.133	465.875
2321.653	474.54167
2324.171	458.20833
2326.688	480.875
2329.202	464.875
2331.715	459.54167
2334.227	461.54167
2336.736	465.20833
2339.244	455.20833
2341.751	443.54167
2344.255	457.54167
2346.758	453.875
2349.259	446.54167
2351.759	457.54167
2354.257	440.20833
2356.753	441.54167
2359.247	443.54167
2361.74	455.20833
2364.231	454.875
2366.721	444.20833
2369.209	447.54167
2371.695	442.54167
2374.179	434.20833
2376.662	435.54167
2379.143	451.20833
2381.622	442.20833
2384.1	450.875
2386.576	444.54167
2389.051	458.875
2391.524	459.54167
2393.995	444.875
2396.464	444.875
2398.932	441.20833
2401.398	437.20833
2403.863	425.20833
2406.325	432.875
2408.787	436.875
2411.246	449.20833
2413.704	427.20833
2416.16	431.20833
2418.615	430.20833
2421.068	436.54167
2423.519	434.875
2425.969	423.875
2428.417	437.20833
2430.863	443.54167
2433.308	437.20833
2435.751	433.54167
2438.193	431.20833
2440.633	426.875
2443.071	433.875
2445.508	424.20833
2447.943	431.20833
2450.376	425.875
2452.808	420.20833
2455.238	408.875
2457.667	461.54167
2460.093	410.875
2462.519	411.875
2464.942	417.20833
2467.365	416.20833
2469.785	429.20833
2472.204	420.20833
2474.621	410.875
2477.037	428.875
2479.451	416.54167
2481.863	399.875
2484.274	411.20833
2486.683	415.875
2489.091	419.875
2491.497	410.875
2493.901	431.20833
2496.304	424.54167
2498.705	426.875
2501.105	411.875
2503.503	435.54167
2505.899	411.20833
2508.294	427.54167
2510.687	414.875
2513.079	412.20833
2515.469	410.54167
2517.858	418.54167
2520.245	418.20833
2522.63	406.875
2525.014	405.875
2527.396	399.54167
2529.776	394.20833
2532.156	417.20833
2534.533	400.54167
2536.909	402.54167
2539.283	387.875
2541.656	393.875
2544.027	418.20833
2546.397	402.20833
2548.765	405.20833
2551.131	398.54167
2553.496	403.54167
2555.86	416.20833
2558.221	414.54167
2560.582	410.875
2562.94	401.875
2565.298	401.20833
2567.653	418.875
2570.007	397.875
2572.36	404.54167
2574.711	398.54167
2577.06	415.875
2579.408	406.54167
2581.754	396.54167
2584.099	413.54167
2586.442	409.20833
2588.784	405.875
2591.124	404.875
2593.463	409.875
2595.8	409.54167
2598.135	394.20833
2600.469	405.20833
2602.802	405.875
2605.133	412.875
2607.462	399.54167
2609.79	389.875
2612.116	404.875
2614.441	401.875
2616.764	403.875
2619.086	405.875
2621.406	399.20833
2623.725	416.20833
2626.042	406.875
2628.358	393.54167
2630.672	396.875
2632.985	417.20833
2635.296	403.54167
2637.606	412.54167
2639.914	391.875
2642.22	401.875
2644.525	403.54167
2646.829	413.54167
2649.131	422.20833
2651.432	421.54167
2653.731	407.54167
2656.028	419.20833
2658.324	421.875
2660.619	409.54167
2662.912	417.54167
2665.204	409.875
2667.494	420.54167
2669.782	407.875
2672.07	421.54167
2674.355	431.875
2676.639	419.20833
2678.922	409.20833
2681.203	418.875
2683.483	409.875
2685.761	413.54167
2688.038	421.54167
2690.313	431.54167
2692.587	420.875
2694.859	425.54167
2697.13	423.54167
2699.399	424.20833
2701.667	438.20833
2703.933	431.20833
2706.198	431.54167
2708.461	446.875
2710.723	440.875
2712.984	440.875
2715.243	438.20833
2717.5	437.875
2719.757	461.20833
2722.011	441.20833
2724.264	453.875
2726.516	470.20833
2728.766	454.54167
2731.015	463.54167
2733.262	450.54167
2735.508	461.875
2737.753	445.875
2739.996	443.875
2742.237	443.20833
2744.477	459.20833
2746.716	454.875
2748.953	448.54167
2751.189	454.54167
2753.423	438.54167
2755.656	431.875
2757.887	441.20833
2760.117	438.20833
2762.346	429.54167
2764.573	429.54167
2766.798	432.54167
2769.022	430.20833
2771.245	441.54167
2773.467	443.20833
2775.686	442.54167
2777.905	448.54167
2780.122	455.875
2782.337	447.875
2784.552	445.20833
2786.764	442.875
2788.976	453.54167
2791.186	452.20833
2793.394	454.20833
2795.601	461.20833
2797.807	478.54167
2800.011	484.54167
2802.214	482.875
2804.415	483.875
2806.615	486.54167
2808.814	485.875
2811.011	498.54167
2813.206	498.875
2815.401	506.875
2817.594	521.20833
2819.785	519.20833
2821.975	518.54167
2824.164	524.54167
2826.351	535.875
2828.537	550.54167
2830.722	561.20833
2832.905	566.54167
2835.086	585.875
2837.267	609.54167
2839.445	625.20833
2841.623	627.875
2843.799	656.20833
2845.974	690.54167
2848.147	713.875
2850.319	734.54167
2852.489	758.20833
2854.659	773.20833
2856.826	776.54167
2858.993	805.20833
2861.158	792.875
2863.321	784.875
2865.483	803.875
2867.644	801.54167
2869.804	791.54167
2871.962	788.875
2874.118	813.54167
2876.274	821.54167
2878.428	823.875
2880.58	801.54167
2882.731	785.54167
2884.881	790.54167
2887.03	793.54167
2889.177	792.54167
2891.322	810.875
2893.467	790.54167
2895.61	797.54167
2897.751	819.20833
2899.892	802.875
2902.03	814.875
2904.168	821.875
2906.304	802.875
2908.439	848.20833
2910.572	825.20833
2912.704	836.875
2914.835	851.54167
2916.965	826.875
2919.093	841.54167
2921.219	819.54167
2923.345	844.54167
2925.469	819.20833
2927.591	824.54167
2929.712	792.20833
2931.832	786.875
2933.951	769.20833
2936.068	766.875
2938.184	748.20833
2940.299	728.875
2942.412	732.54167
2944.524	683.20833
2946.634	679.54167
2948.744	643.54167
2950.851	659.54167
2952.958	616.875
2955.063	617.875
2957.167	610.20833
2959.269	576.54167
2961.371	602.875
2963.471	574.20833
2965.569	581.875
2967.666	553.20833
2969.762	543.20833
2971.857	546.20833
2973.95	527.54167
2976.042	526.54167
2978.133	514.875
2980.222	506.875
2982.31	483.54167
2984.396	467.54167
2986.482	477.54167
2988.566	466.875
2990.648	463.875
2992.73	454.875
2994.81	451.875
2996.889	466.54167
2998.966	458.20833
3001.042	464.54167
3003.117	452.875
3005.191	453.875
3007.263	449.875
3009.334	430.20833
3011.403	445.875
3013.472	441.875
3015.539	436.54167
3017.604	440.54167
3019.669	401.20833
3021.732	412.54167
3023.794	417.20833
3025.854	401.875
3027.914	397.54167
3029.971	414.54167
3032.028	402.20833
3034.083	398.875
3036.137	395.54167
3038.19	381.20833
3040.242	375.54167
3042.292	369.875
3044.341	367.20833
3046.388	384.20833
3048.435	359.20833
3050.48	378.54167
3052.524	360.20833
3054.566	346.875
3056.607	363.20833
3058.647	347.54167
3060.686	335.875
3062.723	331.875
3064.759	315.875
3066.794	0.875
3068.828	3.20833
3070.86	2.20833
