-0.839	510.54167
3.438	603.54167
7.711	176.875
11.981	60.875
16.247	47.20833
20.509	50.20833
24.768	45.875
29.024	54.54167
33.276	46.54167
37.524	51.20833
41.769	43.54167
46.01	32.54167
50.247	48.54167
54.481	59.54167
58.712	63.20833
62.939	52.54167
67.162	61.54167
71.382	55.54167
75.599	45.20833
79.812	64.875
84.021	85.54167
88.227	58.875
92.429	59.20833
96.628	52.875
100.823	68.20833
105.015	79.875
109.204	71.875
113.388	78.875
117.57	80.54167
121.748	92.54167
125.922	89.875
130.093	105.20833
134.261	100.54167
138.425	105.20833
142.585	143.875
146.742	140.54167
150.896	183.20833
155.046	234.20833
159.193	375.875
163.336	656.54167
167.476	1202.875
171.613	2196.875
175.746	3591.54167
179.875	5194.54167
184.002	6705.20833
188.124	7595.54167
192.244	7867.875
196.36	7669.54167
200.472	7372.875
204.581	7088.54167
208.687	6799.875
212.79	6680.20833
216.889	6595.20833
220.984	6581.875
225.077	6515.875
229.165	6505.875
233.251	6489.875
237.333	6410.54167
241.412	6322.875
245.487	6221.20833
249.559	6189.875
253.628	6092.875
257.694	6075.875
261.756	6013.20833
265.814	5852.875
269.87	5603.54167
273.922	5446.20833
277.97	5319.54167
282.016	5230.20833
286.058	5249.54167
290.097	5314.54167
294.132	5371.875
298.164	5320.20833
302.193	5103.875
306.219	4767.54167
310.241	4356.54167
314.26	4002.20833
318.276	3743.875
322.288	3540.875
326.297	3383.54167
330.303	3274.54167
334.305	3170.20833
338.305	3098.875
342.301	3051.54167
346.294	3047.875
350.283	3023.20833
354.269	2977.54167
358.252	2938.54167
362.232	2934.875
366.209	2896.54167
370.182	2866.54167
374.152	2857.875
378.119	2831.20833
382.083	2852.875
386.043	2834.54167
390	2811.20833
393.954	2889.20833
397.905	2876.875
401.852	2853.875
405.797	2780.20833
409.738	2888.54167
413.676	2967.20833
417.61	3033.20833
421.542	2806.54167
425.47	2672.875
429.396	2661.875
433.318	2624.54167
437.236	2621.875
441.152	2664.20833
445.065	2578.20833
448.974	2560.20833
452.88	2556.875
456.783	2538.875
460.683	2488.54167
464.58	2513.875
468.473	2501.20833
472.364	2528.20833
476.251	2503.54167
480.135	2526.54167
484.016	2548.54167
487.894	2569.875
491.769	2574.875
495.641	2575.54167
499.509	2579.875
503.375	2586.20833
507.237	2574.875
511.096	2566.54167
514.952	2590.54167
518.805	2630.54167
522.655	2627.20833
526.502	2590.20833
530.346	2591.875
534.187	2599.20833
538.024	2598.875
541.859	2617.54167
545.69	2662.20833
549.519	2620.875
553.344	2608.20833
557.166	2592.20833
560.985	2524.20833
564.802	2492.875
568.615	2447.20833
572.425	2416.54167
576.232	2384.20833
580.036	2412.54167
583.836	2403.20833
587.634	2405.20833
591.429	2416.20833
595.221	2453.20833
599.01	2498.54167
602.796	2519.54167
606.578	2526.54167
610.358	2523.20833
614.135	2540.20833
617.909	2488.875
621.679	2477.20833
625.447	2437.54167
629.212	2463.20833
632.973	2476.875
636.732	2491.54167
640.488	2509.875
644.241	2456.54167
647.991	2435.875
651.737	2447.54167
655.481	2413.20833
659.222	2423.20833
662.96	2410.20833
666.695	2447.20833
670.427	2475.875
674.156	2453.20833
677.882	2446.875
681.605	2437.875
685.325	2429.20833
689.043	2433.54167
692.757	2399.875
696.468	2404.54167
700.177	2398.54167
703.882	2388.54167
707.585	2361.20833
711.284	2332.54167
714.981	2374.875
718.675	2364.875
722.366	2399.54167
726.054	2362.54167
729.739	2383.54167
733.421	2375.20833
737.1	2368.20833
740.777	2391.20833
744.45	2418.54167
748.121	2440.875
751.789	2458.54167
755.453	2461.20833
759.115	2485.20833
762.774	2506.875
766.431	2516.20833
770.084	2563.875
773.734	2582.54167
777.382	2620.54167
781.027	2672.20833
784.669	2686.54167
788.308	2679.54167
791.944	2669.20833
795.577	2705.54167
799.208	2705.875
802.835	2729.875
806.46	2734.20833
810.082	2771.20833
813.701	2753.20833
817.317	2789.54167
820.931	2785.20833
824.542	2771.54167
828.149	2750.20833
831.754	2741.20833
835.357	2738.20833
838.956	2775.54167
842.553	2827.20833
846.146	2828.875
849.737	2761.20833
853.326	2751.20833
856.911	2762.54167
860.493	2783.875
864.073	2860.875
867.65	3009.875
871.225	2981.54167
874.796	2903.875
878.365	2881.20833
881.931	2899.875
885.494	2924.54167
889.054	2921.54167
892.612	2921.20833
896.166	2887.20833
899.719	2882.875
903.268	2828.20833
906.814	2827.875
910.358	2805.54167
913.899	2786.54167
917.438	2799.20833
920.973	2776.20833
924.506	2819.875
928.036	2859.54167
931.564	2914.20833
935.088	2945.54167
938.61	2937.54167
942.129	2983.875
945.646	3049.54167
949.16	3105.54167
952.671	3148.875
956.179	3140.54167
959.685	3113.875
963.188	3092.20833
966.688	3035.875
970.185	2956.20833
973.68	2892.54167
977.173	2851.875
980.662	2799.54167
984.149	2803.875
987.633	2773.875
991.114	2835.20833
994.593	2877.54167
998.069	2957.875
1001.542	3090.54167
1005.013	3047.20833
1008.481	2860.20833
1011.947	2812.54167
1015.409	2806.875
1018.869	2783.54167
1022.327	2783.875
1025.782	2769.54167
1029.234	2744.54167
1032.683	2700.875
1036.13	2607.875
1039.574	2522.20833
1043.016	2442.54167
1046.455	2418.875
1049.891	2383.54167
1053.325	2401.875
1056.756	2407.20833
1060.184	2417.54167
1063.61	2429.875
1067.033	2435.54167
1070.454	2442.20833
1073.872	2475.875
1077.287	2456.20833
1080.7	2466.54167
1084.11	2461.20833
1087.517	2444.20833
1090.922	2391.875
1094.325	2403.54167
1097.724	2369.875
1101.122	2408.875
1104.516	2374.20833
1107.908	2389.875
1111.298	2428.875
1114.684	2466.875
1118.069	2501.20833
1121.45	2559.20833
1124.83	2532.20833
1128.206	2580.20833
1131.58	2647.54167
1134.951	2707.875
1138.32	2801.875
1141.687	2916.875
1145.05	3007.875
1148.412	3011.875
1151.77	3010.54167
1155.126	3022.20833
1158.48	3012.20833
1161.831	3027.20833
1165.18	3054.20833
1168.525	3095.20833
1171.869	3153.54167
1175.21	3162.20833
1178.548	3175.875
1181.884	3203.54167
1185.217	3209.20833
1188.548	3270.20833
1191.877	3337.54167
1195.202	3451.875
1198.526	3513.54167
1201.846	3507.875
1205.165	3493.54167
1208.48	3429.875
1211.794	3425.875
1215.104	3413.54167
1218.413	3402.20833
1221.719	3394.875
1225.022	3352.875
1228.323	3290.875
1231.621	3282.54167
1234.917	3242.20833
1238.21	3268.20833
1241.501	3240.20833
1244.79	3242.54167
1248.076	3226.875
1251.359	3254.20833
1254.64	3333.20833
1257.919	3321.875
1261.195	3382.20833
1264.468	3483.54167
1267.74	3528.54167
1271.008	3551.20833
1274.275	3520.875
1277.538	3518.20833
1280.8	3498.875
1284.059	3488.20833
1287.315	3531.20833
1290.569	3533.54167
1293.821	3567.54167
1297.07	3580.20833
1300.317	3594.54167
1303.562	3594.20833
1306.803	3566.54167
1310.043	3515.875
1313.28	3479.875
1316.515	3461.875
1319.747	3437.875
1322.977	3395.875
1326.204	3322.875
1329.429	3311.54167
1332.652	3278.20833
1335.872	3238.54167
1339.09	3219.54167
1342.306	3183.20833
1345.519	3155.20833
1348.729	3128.875
1351.938	3113.54167
1355.144	3062.20833
1358.347	3047.875
1361.548	3030.875
1364.747	3030.20833
1367.944	2996.54167
1371.138	3017.20833
1374.329	3038.20833
1377.518	3061.20833
1380.705	3081.54167
1383.89	3049.54167
1387.072	2941.875
1390.252	2841.54167
1393.429	2751.54167
1396.605	2671.54167
1399.777	2590.54167
1402.948	2542.20833
1406.116	2551.54167
1409.282	2513.54167
1412.445	2506.20833
1415.606	2552.54167
1418.765	2583.54167
1421.921	2622.54167
1425.075	2682.20833
1428.227	2789.54167
1431.376	2906.54167
1434.524	3014.875
1437.668	3078.20833
1440.811	3140.54167
1443.951	3140.54167
1447.089	3174.20833
1450.224	3167.875
1453.357	3165.54167
1456.488	3138.54167
1459.617	3090.54167
1462.743	3070.875
1465.867	3016.20833
1468.989	2972.20833
1472.108	2916.20833
1475.225	2897.875
1478.34	2885.20833
1481.453	2856.875
1484.563	2881.875
1487.671	2933.875
1490.776	2979.20833
1493.88	3051.20833
1496.981	3089.875
1500.08	3144.54167
1503.176	3198.20833
1506.271	3254.54167
1509.363	3296.54167
1512.452	3320.20833
1515.54	3352.875
1518.625	3428.875
1521.708	3515.54167
1524.789	3597.54167
1527.867	3707.54167
1530.944	3892.54167
1534.018	4060.20833
1537.089	4185.20833
1540.159	4249.20833
1543.226	4213.20833
1546.291	4157.20833
1549.354	4056.875
1552.415	3968.875
1555.473	3900.54167
1558.529	3846.875
1561.583	3813.20833
1564.634	3818.20833
1567.684	3812.54167
1570.731	3858.20833
1573.776	3863.54167
1576.819	3958.875
1579.859	3993.875
1582.898	4023.20833
1585.934	4083.875
1588.968	4119.20833
1591.999	4072.875
1595.029	4095.54167
1598.056	4080.875
1601.081	4106.875
1604.104	4058.875
1607.125	4063.20833
1610.144	3935.20833
1613.16	3855.20833
1616.174	3757.875
1619.186	3645.20833
1622.196	3500.875
1625.203	3433.875
1628.209	3352.54167
1631.212	3269.54167
1634.213	3236.20833
1637.212	3176.875
1640.209	3107.875
1643.203	3006.875
1646.196	2916.875
1649.186	2814.20833
1652.174	2726.54167
1655.16	2622.20833
1658.144	2543.20833
1661.125	2402.875
1664.105	2299.875
1667.082	2204.54167
1670.057	2077.875
1673.03	1980.20833
1676.001	1839.875
1678.97	1742.875
1681.937	1634.54167
1684.901	1545.20833
1687.863	1492.20833
1690.824	1419.875
1693.782	1390.20833
1696.738	1341.875
1699.692	1304.54167
1702.643	1267.875
1705.593	1246.54167
1708.54	1241.20833
1711.486	1238.875
1714.429	1195.20833
1717.37	1201.875
1720.309	1166.20833
1723.246	1175.54167
1726.181	1130.20833
1729.113	1140.20833
1732.044	1120.875
1734.972	1121.875
1737.899	1112.20833
1740.823	1101.54167
1743.745	1113.20833
1746.665	1065.875
1749.583	1048.20833
1752.499	1020.875
1755.413	1032.20833
1758.325	997.20833
1761.235	997.875
1764.142	978.54167
1767.048	961.54167
1769.951	961.875
1772.852	976.20833
1775.752	1027.54167
1778.649	1080.875
1781.544	988.875
1784.437	925.54167
1787.328	925.20833
1790.217	908.20833
1793.104	901.54167
1795.989	897.54167
1798.872	890.875
1801.753	899.20833
1804.631	889.875
1807.508	890.875
1810.383	873.54167
1813.255	877.20833
1816.126	867.54167
1818.994	877.54167
1821.861	862.20833
1824.725	875.875
1827.587	870.875
1830.448	855.54167
1833.306	839.20833
1836.162	835.875
1839.017	837.20833
1841.869	836.875
1844.719	828.54167
1847.567	820.875
1850.414	820.20833
1853.258	815.20833
1856.1	835.20833
1858.94	835.54167
1861.778	817.875
1864.614	815.20833
1867.448	817.20833
1870.28	801.875
1873.111	822.20833
1875.939	817.875
1878.765	822.875
1881.589	807.875
1884.411	806.875
1887.231	814.20833
1890.049	807.20833
1892.865	819.20833
1895.68	800.20833
1898.492	817.875
1901.302	803.54167
1904.11	792.875
1906.916	783.54167
1909.721	761.54167
1912.523	775.20833
1915.323	756.875
1918.122	752.20833
1920.918	781.875
1923.712	751.20833
1926.505	751.54167
1929.295	749.54167
1932.084	757.54167
1934.87	761.20833
1937.655	751.20833
1940.438	750.20833
1943.218	758.20833
1945.997	760.875
1948.774	752.20833
1951.549	762.20833
1954.322	739.20833
1957.093	746.54167
1959.862	744.875
1962.629	747.875
1965.394	733.875
1968.157	720.54167
1970.918	722.20833
1973.678	704.875
1976.435	732.20833
1979.19	722.54167
1981.944	716.875
1984.696	709.20833
1987.445	689.875
1990.193	710.54167
1992.939	721.875
1995.683	708.20833
1998.425	685.875
2001.165	719.20833
2003.903	688.54167
2006.639	700.875
2009.374	705.20833
2012.106	700.875
2014.837	685.54167
2017.566	700.54167
2020.292	694.54167
2023.017	692.20833
2025.74	675.54167
2028.461	675.20833
2031.18	682.20833
2033.898	668.54167
2036.613	694.875
2039.327	690.20833
2042.038	664.875
2044.748	656.54167
2047.456	689.54167
2050.162	670.875
2052.866	661.20833
2055.568	682.875
2058.268	663.20833
2060.967	659.54167
2063.663	641.54167
2066.358	657.54167
2069.051	658.875
2071.742	659.875
2074.431	655.875
2077.118	664.20833
2079.804	647.875
2082.487	658.54167
2085.169	661.54167
2087.849	671.875
2090.527	653.54167
2093.203	661.20833
2095.877	663.54167
2098.55	665.54167
2101.22	683.875
2103.889	675.54167
2106.556	676.20833
2109.221	696.875
2111.884	711.20833
2114.546	753.875
2117.205	812.20833
2119.863	870.875
2122.519	899.20833
2125.173	970.20833
2127.825	1019.875
2130.475	1026.54167
2133.124	995.875
2135.771	940.20833
2138.416	924.54167
2141.059	858.875
2143.7	814.20833
2146.339	765.20833
2148.977	726.54167
2151.613	722.875
2154.247	709.875
2156.879	685.54167
2159.51	682.20833
2162.138	663.54167
2164.765	661.20833
2167.39	643.20833
2170.013	664.875
2172.634	654.54167
2175.254	638.54167
2177.872	664.20833
2180.488	625.875
2183.102	633.875
2185.714	623.20833
2188.325	599.20833
2190.934	625.20833
2193.541	618.54167
2196.146	597.20833
2198.75	596.54167
2201.351	599.54167
2203.951	583.20833
2206.549	605.54167
2209.146	596.875
2211.74	591.20833
2214.333	591.54167
2216.924	577.875
2219.514	583.20833
2222.101	572.54167
2224.687	585.20833
2227.271	582.54167
2229.853	558.54167
2232.433	551.875
2235.012	558.875
2237.589	560.20833
2240.164	573.54167
2242.738	556.875
2245.309	551.20833
2247.879	561.20833
2250.448	554.54167
2253.014	531.54167
2255.579	514.875
2258.142	534.54167
2260.703	514.20833
2263.262	523.875
2265.82	514.20833
2268.376	520.20833
2270.93	502.20833
2273.483	508.20833
2276.033	501.20833
2278.583	505.54167
2281.13	499.20833
2283.675	493.875
2286.219	501.875
2288.761	500.54167
2291.302	499.875
2293.841	512.54167
2296.377	495.875
2298.913	486.54167
2301.446	512.875
2303.978	504.875
2306.508	486.875
2309.037	496.875
2311.563	478.875
2314.088	504.875
2316.612	477.20833
2319.133	476.875
2321.653	481.20833
2324.171	477.20833
2326.688	486.54167
2329.202	471.875
2331.715	479.20833
2334.227	475.20833
2336.736	478.875
2339.244	482.875
2341.751	458.875
2344.255	471.54167
2346.758	473.54167
2349.259	460.875
2351.759	471.875
2354.257	451.875
2356.753	458.20833
2359.247	463.20833
2361.74	472.20833
2364.231	469.20833
2366.721	466.875
2369.209	455.20833
2371.695	464.875
2374.179	458.54167
2376.662	448.875
2379.143	466.875
2381.622	471.20833
2384.1	474.54167
2386.576	470.875
2389.051	473.875
2391.524	467.20833
2393.995	465.54167
2396.464	454.20833
2398.932	448.54167
2401.398	448.54167
2403.863	446.54167
2406.325	442.875
2408.787	447.20833
2411.246	451.875
2413.704	447.20833
2416.16	437.875
2418.615	442.875
2421.068	446.54167
2423.519	447.20833
2425.969	444.875
2428.417	442.54167
2430.863	469.875
2433.308	448.20833
2435.751	447.20833
2438.193	438.875
2440.633	449.20833
2443.071	444.54167
2445.508	440.54167
2447.943	437.54167
2450.376	435.54167
2452.808	437.54167
2455.238	432.20833
2457.667	476.20833
2460.093	442.875
2462.519	426.875
2464.942	433.20833
2467.365	431.875
2469.785	431.54167
2472.204	437.54167
2474.621	421.20833
2477.037	451.875
2479.451	420.20833
2481.863	423.875
2484.274	424.875
2486.683	429.875
2489.091	434.20833
2491.497	432.875
2493.901	434.875
2496.304	425.20833
2498.705	434.875
2501.105	425.875
2503.503	452.875
2505.899	415.54167
2508.294	440.54167
2510.687	419.875
2513.079	425.54167
2515.469	417.875
2517.858	430.54167
2520.245	435.875
2522.63	420.20833
2525.014	413.875
2527.396	418.54167
2529.776	412.875
2532.156	421.875
2534.533	409.875
2536.909	408.875
2539.283	395.20833
2541.656	406.875
2544.027	431.20833
2546.397	413.20833
2548.765	404.875
2551.131	415.875
2553.496	417.875
2555.86	420.54167
2558.221	419.20833
2560.582	410.20833
2562.94	395.54167
2565.298	412.20833
2567.653	428.875
2570.007	401.875
2572.36	418.20833
2574.711	404.54167
2577.06	429.54167
2579.408	415.875
2581.754	410.20833
2584.099	414.875
2586.442	410.54167
2588.784	411.20833
2591.124	408.20833
2593.463	410.875
2595.8	416.875
2598.135	405.54167
2600.469	407.54167
2602.802	420.875
2605.133	419.20833
2607.462	401.54167
2609.79	395.875
2612.116	405.20833
2614.441	416.875
2616.764	405.54167
2619.086	415.54167
2621.406	396.875
2623.725	425.54167
2626.042	421.875
2628.358	403.20833
2630.672	402.20833
2632.985	422.20833
2635.296	414.54167
2637.606	413.54167
2639.914	405.20833
2642.22	412.20833
2644.525	411.20833
2646.829	421.54167
2649.131	424.20833
2651.432	435.875
2653.731	415.20833
2656.028	429.54167
2658.324	433.54167
2660.619	418.20833
2662.912	432.875
2665.204	407.20833
2667.494	426.20833
2669.782	409.54167
2672.07	426.20833
2674.355	433.54167
2676.639	418.54167
2678.922	417.54167
2681.203	429.20833
2683.483	417.20833
2685.761	423.875
2688.038	426.20833
2690.313	446.54167
2692.587	430.54167
2694.859	421.54167
2697.13	431.54167
2699.399	436.54167
2701.667	444.20833
2703.933	440.54167
2706.198	440.20833
2708.461	452.54167
2710.723	451.875
2712.984	445.875
2715.243	452.875
2717.5	444.20833
2719.757	462.875
2722.011	450.20833
2724.264	466.20833
2726.516	468.20833
2728.766	460.54167
2731.015	465.20833
2733.262	478.20833
2735.508	452.875
2737.753	457.54167
2739.996	453.20833
2742.237	446.20833
2744.477	459.875
2746.716	460.875
2748.953	442.20833
2751.189	455.54167
2753.423	439.54167
2755.656	435.875
2757.887	433.875
2760.117	435.20833
2762.346	429.20833
2764.573	432.875
2766.798	433.20833
2769.022	435.875
2771.245	445.875
2773.467	451.875
2775.686	443.20833
2777.905	441.54167
2780.122	459.54167
2782.337	461.875
2784.552	458.875
2786.764	453.875
2788.976	469.20833
2791.186	463.54167
2793.394	467.54167
2795.601	472.20833
2797.807	492.20833
2800.011	490.54167
2802.214	494.875
2804.415	495.54167
2806.615	492.54167
2808.814	501.54167
2811.011	507.20833
2813.206	508.20833
2815.401	521.20833
2817.594	523.875
2819.785	536.20833
2821.975	531.20833
2824.164	522.875
2826.351	551.54167
2828.537	566.54167
2830.722	562.875
2832.905	573.54167
2835.086	598.20833
2837.267	634.20833
2839.445	635.54167
2841.623	656.875
2843.799	676.875
2845.974	729.875
2848.147	736.875
2850.319	762.875
2852.489	797.875
2854.659	804.20833
2856.826	811.54167
2858.993	843.875
2861.158	825.20833
2863.321	827.54167
2865.483	859.875
2867.644	848.54167
2869.804	848.875
2871.962	844.875
2874.118	859.20833
2876.274	886.20833
2878.428	884.20833
2880.58	865.20833
2882.731	847.54167
2884.881	846.875
2887.03	853.54167
2889.177	848.54167
2891.322	859.20833
2893.467	852.20833
2895.61	853.54167
2897.751	879.875
2899.892	873.20833
2902.03	865.875
2904.168	889.875
2906.304	879.875
2908.439	897.875
2910.572	879.875
2912.704	904.875
2914.835	896.54167
2916.965	893.875
2919.093	906.20833
2921.219	878.20833
2923.345	910.875
2925.469	880.54167
2927.591	870.875
2929.712	849.20833
2931.832	847.54167
2933.951	823.20833
2936.068	828.54167
2938.184	793.875
2940.299	786.20833
2942.412	769.875
2944.524	730.54167
2946.634	730.875
2948.744	678.20833
2950.851	695.54167
2952.958	666.20833
2955.063	664.875
2957.167	644.54167
2959.269	616.20833
2961.371	641.875
2963.471	602.875
2965.569	604.875
2967.666	575.54167
2969.762	563.20833
2971.857	555.875
2973.95	534.54167
2976.042	536.875
2978.133	531.54167
2980.222	512.54167
2982.31	501.20833
2984.396	481.20833
2986.482	484.20833
2988.566	482.875
2990.648	470.875
2992.73	462.20833
2994.81	456.875
2996.889	463.20833
2998.966	461.54167
3001.042	462.875
3003.117	451.20833
3005.191	461.54167
3007.263	447.875
3009.334	443.20833
3011.403	447.20833
3013.472	433.875
3015.539	439.875
3017.604	439.875
3019.669	401.54167
3021.732	411.875
3023.794	413.20833
3025.854	407.875
3027.914	401.54167
3029.971	418.20833
3032.028	408.20833
3034.083	403.875
3036.137	406.54167
3038.19	388.20833
3040.242	366.875
3042.292	371.875
3044.341	366.875
3046.388	375.875
3048.435	356.875
3050.48	380.20833
3052.524	366.875
3054.566	354.20833
3056.607	347.54167
3058.647	348.20833
3060.686	336.54167
3062.723	328.20833
3064.759	306.20833
3066.794	0.54167
3068.828	2.875
3070.86	1.54167
