-0.839	458.25
3.438	535.91667
7.711	167.25
11.981	60.91667
16.247	46.25
20.509	52.25
24.768	45.58333
29.024	59.25
33.276	48.25
37.524	49.58333
41.769	45.91667
46.01	36.25
50.247	48.58333
54.481	62.58333
58.712	62.58333
62.939	50.58333
67.162	65.25
71.382	59.25
75.599	49.25
79.812	63.91667
84.021	82.25
88.227	65.91667
92.429	66.25
96.628	53.91667
100.823	74.58333
105.015	79.58333
109.204	71.91667
113.388	81.58333
117.57	81.58333
121.748	93.25
125.922	84.91667
130.093	109.58333
134.261	108.58333
138.425	108.58333
142.585	154.25
146.742	145.91667
150.896	187.25
155.046	233.25
159.193	374.25
163.336	653.25
167.476	1222.91667
171.613	2200.91667
175.746	3622.58333
179.875	5284.91667
184.002	6773.58333
188.124	7731.58333
192.244	8045.25
196.36	7912.25
200.472	7622.25
204.581	7333.25
208.687	7117.91667
212.79	6964.91667
216.889	6908.58333
220.984	6859.25
225.077	6867.91667
229.165	6838.58333
233.251	6807.25
237.333	6767.25
241.412	6666.91667
245.487	6586.91667
249.559	6479.58333
253.628	6452.91667
257.694	6371.91667
261.756	6319.58333
265.814	6142.25
269.87	5964.91667
273.922	5741.91667
277.97	5608.58333
282.016	5512.58333
286.058	5503.58333
290.097	5591.91667
294.132	5634.58333
298.164	5574.58333
302.193	5347.91667
306.219	4986.58333
310.241	4608.58333
314.26	4223.91667
318.276	3999.58333
322.288	3830.91667
326.297	3661.58333
330.303	3539.91667
334.305	3463.91667
338.305	3431.25
342.301	3368.25
346.294	3347.58333
350.283	3317.25
354.269	3279.58333
358.252	3258.25
362.232	3250.58333
366.209	3206.91667
370.182	3176.91667
374.152	3162.91667
378.119	3182.25
382.083	3180.58333
386.043	3160.25
390	3161.91667
393.954	3184.91667
397.905	3165.58333
401.852	3169.91667
405.797	3138.25
409.738	3190.91667
413.676	3253.91667
417.61	3275.58333
421.542	3125.25
425.47	3023.91667
429.396	2990.91667
433.318	2993.91667
437.236	2986.91667
441.152	3003.58333
445.065	2945.91667
448.974	2951.91667
452.88	2891.58333
456.783	2907.25
460.683	2887.91667
464.58	2879.58333
468.473	2882.58333
472.364	2895.58333
476.251	2908.91667
480.135	2920.91667
484.016	2948.25
487.894	2961.25
491.769	2985.91667
495.641	2973.58333
499.509	2975.58333
503.375	2971.91667
507.237	2978.58333
511.096	2980.25
514.952	3014.58333
518.805	3062.25
522.655	3056.58333
526.502	2982.91667
530.346	2978.58333
534.187	2981.25
538.024	2990.25
541.859	3024.25
545.69	3053.25
549.519	3031.58333
553.344	2990.25
557.166	2946.58333
560.985	2908.91667
564.802	2898.91667
568.615	2849.25
572.425	2792.91667
576.232	2813.25
580.036	2774.58333
583.836	2784.25
587.634	2813.58333
591.429	2796.58333
595.221	2865.25
599.01	2875.58333
602.796	2912.91667
606.578	2925.25
610.358	2940.25
614.135	2906.58333
617.909	2900.91667
621.679	2884.25
625.447	2846.25
629.212	2863.25
632.973	2863.58333
636.732	2866.25
640.488	2856.25
644.241	2813.25
647.991	2839.58333
651.737	2844.25
655.481	2840.25
659.222	2813.58333
662.96	2815.25
666.695	2853.25
670.427	2865.25
674.156	2842.25
677.882	2875.58333
681.605	2820.25
685.325	2807.91667
689.043	2804.91667
692.757	2779.58333
696.468	2780.91667
700.177	2787.25
703.882	2761.58333
707.585	2742.25
711.284	2765.25
714.981	2744.91667
718.675	2764.91667
722.366	2756.25
726.054	2732.58333
729.739	2753.58333
733.421	2772.25
737.1	2746.25
740.777	2777.91667
744.45	2775.91667
748.121	2810.91667
751.789	2839.25
755.453	2851.91667
759.115	2859.58333
762.774	2880.91667
766.431	2892.91667
770.084	2914.91667
773.734	2924.25
777.382	2987.58333
781.027	3011.25
784.669	3030.91667
788.308	3032.58333
791.944	3057.58333
795.577	3047.91667
799.208	3079.58333
802.835	3123.25
806.46	3114.91667
810.082	3144.91667
813.701	3149.25
817.317	3164.58333
820.931	3176.25
824.542	3180.58333
828.149	3153.91667
831.754	3118.25
835.357	3081.58333
838.956	3139.91667
842.553	3141.25
846.146	3123.91667
849.737	3087.25
853.326	3081.91667
856.911	3057.58333
860.493	3111.91667
864.073	3180.25
867.65	3250.58333
871.225	3253.91667
874.796	3218.58333
878.365	3220.58333
881.931	3239.25
885.494	3250.91667
889.054	3248.58333
892.612	3260.58333
896.166	3232.25
899.719	3192.25
903.268	3159.58333
906.814	3150.58333
910.358	3140.91667
913.899	3133.91667
917.438	3121.91667
920.973	3098.58333
924.506	3129.58333
928.036	3205.91667
931.564	3231.91667
935.088	3272.91667
938.61	3265.91667
942.129	3272.91667
945.646	3361.91667
949.16	3402.91667
952.671	3460.91667
956.179	3490.91667
959.685	3464.91667
963.188	3456.91667
966.688	3411.91667
970.185	3323.25
973.68	3260.91667
977.173	3203.91667
980.662	3163.25
984.149	3147.91667
987.633	3136.25
991.114	3180.25
994.593	3230.58333
998.069	3322.91667
1001.542	3410.58333
1005.013	3356.25
1008.481	3189.58333
1011.947	3118.25
1015.409	3126.58333
1018.869	3109.25
1022.327	3095.25
1025.782	3079.91667
1029.234	3037.58333
1032.683	3012.91667
1036.13	2929.58333
1039.574	2830.25
1043.016	2751.58333
1046.455	2716.25
1049.891	2668.58333
1053.325	2690.25
1056.756	2711.25
1060.184	2724.25
1063.61	2708.91667
1067.033	2739.58333
1070.454	2746.58333
1073.872	2750.58333
1077.287	2758.25
1080.7	2776.25
1084.11	2762.91667
1087.517	2739.25
1090.922	2689.91667
1094.325	2688.91667
1097.724	2639.58333
1101.122	2656.58333
1104.516	2671.58333
1107.908	2636.91667
1111.298	2689.25
1114.684	2717.25
1118.069	2777.91667
1121.45	2785.91667
1124.83	2806.25
1128.206	2801.25
1131.58	2856.58333
1134.951	2932.58333
1138.32	3012.25
1141.687	3120.58333
1145.05	3199.58333
1148.412	3204.58333
1151.77	3209.58333
1155.126	3201.58333
1158.48	3189.58333
1161.831	3230.58333
1165.18	3223.58333
1168.525	3287.25
1171.869	3335.91667
1175.21	3345.58333
1178.548	3355.91667
1181.884	3408.91667
1185.217	3445.25
1188.548	3514.91667
1191.877	3555.91667
1195.202	3710.91667
1198.526	3736.25
1201.846	3765.91667
1205.165	3745.91667
1208.48	3735.91667
1211.794	3711.91667
1215.104	3717.58333
1218.413	3689.91667
1221.719	3671.25
1225.022	3632.91667
1228.323	3606.58333
1231.621	3590.58333
1234.917	3528.25
1238.21	3558.91667
1241.501	3545.58333
1244.79	3525.58333
1248.076	3520.91667
1251.359	3573.25
1254.64	3635.58333
1257.919	3629.91667
1261.195	3707.91667
1264.468	3776.58333
1267.74	3804.91667
1271.008	3829.91667
1274.275	3811.25
1277.538	3772.25
1280.8	3756.58333
1284.059	3800.58333
1287.315	3819.25
1290.569	3847.25
1293.821	3865.25
1297.07	3897.91667
1300.317	3895.25
1303.562	3878.25
1306.803	3858.58333
1310.043	3835.58333
1313.28	3797.91667
1316.515	3772.58333
1319.747	3770.58333
1322.977	3702.25
1326.204	3638.58333
1329.429	3642.25
1332.652	3592.25
1335.872	3579.91667
1339.09	3512.91667
1342.306	3503.25
1345.519	3488.91667
1348.729	3453.91667
1351.938	3460.58333
1355.144	3409.25
1358.347	3347.91667
1361.548	3315.25
1364.747	3339.58333
1367.944	3303.58333
1371.138	3310.58333
1374.329	3312.25
1377.518	3360.25
1380.705	3365.25
1383.89	3353.58333
1387.072	3239.25
1390.252	3119.91667
1393.429	3031.25
1396.605	2920.58333
1399.777	2840.25
1402.948	2810.91667
1406.116	2786.25
1409.282	2761.58333
1412.445	2768.58333
1415.606	2823.91667
1418.765	2856.25
1421.921	2897.58333
1425.075	2970.58333
1428.227	3062.25
1431.376	3188.25
1434.524	3297.58333
1437.668	3375.91667
1440.811	3409.58333
1443.951	3449.58333
1447.089	3467.58333
1450.224	3482.25
1453.357	3456.25
1456.488	3431.58333
1459.617	3385.25
1462.743	3322.91667
1465.867	3253.91667
1468.989	3215.91667
1472.108	3182.58333
1475.225	3121.91667
1478.34	3087.58333
1481.453	3103.58333
1484.563	3101.25
1487.671	3133.25
1490.776	3186.91667
1493.88	3234.58333
1496.981	3295.91667
1500.08	3355.25
1503.176	3405.91667
1506.271	3445.91667
1509.363	3508.58333
1512.452	3521.25
1515.54	3562.25
1518.625	3631.25
1521.708	3712.58333
1524.789	3826.25
1527.867	3946.91667
1530.944	4160.58333
1534.018	4304.58333
1537.089	4502.58333
1540.159	4525.91667
1543.226	4504.58333
1546.291	4426.25
1549.354	4317.91667
1552.415	4219.91667
1555.473	4126.91667
1558.529	4065.91667
1561.583	4016.91667
1564.634	4036.25
1567.684	4035.58333
1570.731	4060.25
1573.776	4110.58333
1576.819	4166.25
1579.859	4217.91667
1582.898	4272.91667
1585.934	4319.58333
1588.968	4342.58333
1591.999	4325.25
1595.029	4320.91667
1598.056	4356.58333
1601.081	4387.58333
1604.104	4340.91667
1607.125	4319.25
1610.144	4225.91667
1613.16	4095.91667
1616.174	4008.91667
1619.186	3901.58333
1622.196	3796.25
1625.203	3716.25
1628.209	3661.25
1631.212	3592.58333
1634.213	3551.25
1637.212	3587.58333
1640.209	3510.58333
1643.203	3435.91667
1646.196	3329.91667
1649.186	3180.58333
1652.174	3055.91667
1655.16	2923.58333
1658.144	2884.58333
1661.125	2723.25
1664.105	2607.91667
1667.082	2458.25
1670.057	2348.91667
1673.03	2232.91667
1676.001	2101.91667
1678.97	1959.25
1681.937	1845.91667
1684.901	1745.91667
1687.863	1680.58333
1690.824	1609.91667
1693.782	1582.91667
1696.738	1512.25
1699.692	1482.91667
1702.643	1430.91667
1705.593	1423.25
1708.54	1416.25
1711.486	1412.91667
1714.429	1361.58333
1717.37	1355.25
1720.309	1329.58333
1723.246	1340.25
1726.181	1323.58333
1729.113	1322.91667
1732.044	1289.25
1734.972	1284.25
1737.899	1287.58333
1740.823	1271.25
1743.745	1278.25
1746.665	1239.91667
1749.583	1216.91667
1752.499	1192.25
1755.413	1174.58333
1758.325	1144.25
1761.235	1159.25
1764.142	1132.25
1767.048	1112.91667
1769.951	1127.25
1772.852	1127.58333
1775.752	1147.58333
1778.649	1184.58333
1781.544	1127.58333
1784.437	1082.58333
1787.328	1082.58333
1790.217	1080.25
1793.104	1061.25
1795.989	1040.25
1798.872	1030.58333
1801.753	1052.91667
1804.631	1059.25
1807.508	1050.58333
1810.383	1043.25
1813.255	1038.91667
1816.126	1023.91667
1818.994	1035.25
1821.861	1009.25
1824.725	1018.25
1827.587	1006.91667
1830.448	999.58333
1833.306	982.25
1836.162	1002.58333
1839.017	983.25
1841.869	989.58333
1844.719	986.25
1847.567	968.25
1850.414	959.91667
1853.258	970.91667
1856.1	966.25
1858.94	976.58333
1861.778	968.25
1864.614	962.25
1867.448	961.91667
1870.28	958.25
1873.111	964.25
1875.939	972.58333
1878.765	956.58333
1881.589	942.58333
1884.411	952.25
1887.231	960.25
1890.049	946.91667
1892.865	959.25
1895.68	935.91667
1898.492	949.58333
1901.302	933.91667
1904.11	919.58333
1906.916	899.25
1909.721	917.25
1912.523	923.91667
1915.323	899.91667
1918.122	908.25
1920.918	906.58333
1923.712	883.91667
1926.505	893.58333
1929.295	887.58333
1932.084	891.58333
1934.87	899.58333
1937.655	884.58333
1940.438	888.91667
1943.218	876.91667
1945.997	902.58333
1948.774	892.91667
1951.549	897.25
1954.322	879.25
1957.093	888.58333
1959.862	864.91667
1962.629	858.91667
1965.394	860.91667
1968.157	860.25
1970.918	847.25
1973.678	839.91667
1976.435	869.25
1979.19	853.58333
1981.944	848.58333
1984.696	838.25
1987.445	826.25
1990.193	826.25
1992.939	845.25
1995.683	831.91667
1998.425	807.58333
2001.165	845.91667
2003.903	813.25
2006.639	819.91667
2009.374	821.25
2012.106	836.91667
2014.837	798.58333
2017.566	820.58333
2020.292	825.91667
2023.017	824.91667
2025.74	812.25
2028.461	799.25
2031.18	807.91667
2033.898	797.91667
2036.613	802.25
2039.327	800.25
2042.038	787.25
2044.748	796.25
2047.456	797.58333
2050.162	784.91667
2052.866	773.91667
2055.568	788.91667
2058.268	766.91667
2060.967	775.58333
2063.663	779.91667
2066.358	765.25
2069.051	760.58333
2071.742	780.25
2074.431	786.91667
2077.118	781.58333
2079.804	763.25
2082.487	769.58333
2085.169	775.58333
2087.849	800.25
2090.527	776.91667
2093.203	782.25
2095.877	789.58333
2098.55	781.25
2101.22	797.25
2103.889	807.25
2106.556	798.91667
2109.221	824.58333
2111.884	847.25
2114.546	900.58333
2117.205	945.25
2119.863	1030.58333
2122.519	1088.25
2125.173	1147.91667
2127.825	1228.25
2130.475	1234.91667
2133.124	1204.91667
2135.771	1151.58333
2138.416	1107.58333
2141.059	1037.58333
2143.7	990.58333
2146.339	924.91667
2148.977	881.25
2151.613	873.91667
2154.247	830.91667
2156.879	812.25
2159.51	794.25
2162.138	777.58333
2164.765	772.91667
2167.39	768.25
2170.013	768.58333
2172.634	761.91667
2175.254	748.58333
2177.872	771.91667
2180.488	735.91667
2183.102	730.58333
2185.714	708.58333
2188.325	695.58333
2190.934	717.91667
2193.541	711.58333
2196.146	697.91667
2198.75	686.25
2201.351	699.58333
2203.951	685.58333
2206.549	694.58333
2209.146	670.58333
2211.74	678.58333
2214.333	677.91667
2216.924	657.91667
2219.514	676.25
2222.101	658.58333
2224.687	679.25
2227.271	655.25
2229.853	645.91667
2232.433	636.58333
2235.012	669.91667
2237.589	655.25
2240.164	654.91667
2242.738	648.91667
2245.309	632.91667
2247.879	645.25
2250.448	657.25
2253.014	623.91667
2255.579	609.25
2258.142	605.58333
2260.703	601.58333
2263.262	606.58333
2265.82	597.91667
2268.376	601.25
2270.93	587.91667
2273.483	592.91667
2276.033	593.58333
2278.583	588.91667
2281.13	585.58333
2283.675	582.91667
2286.219	583.25
2288.761	576.58333
2291.302	580.58333
2293.841	594.25
2296.377	567.58333
2298.913	569.58333
2301.446	582.25
2303.978	581.25
2306.508	558.58333
2309.037	567.58333
2311.563	568.25
2314.088	576.58333
2316.612	540.25
2319.133	560.25
2321.653	564.58333
2324.171	555.91667
2326.688	573.91667
2329.202	547.58333
2331.715	545.58333
2334.227	557.91667
2336.736	549.58333
2339.244	546.25
2341.751	533.25
2344.255	546.25
2346.758	543.91667
2349.259	532.58333
2351.759	534.91667
2354.257	524.91667
2356.753	519.25
2359.247	541.91667
2361.74	536.25
2364.231	536.25
2366.721	536.58333
2369.209	529.91667
2371.695	527.58333
2374.179	525.25
2376.662	514.91667
2379.143	531.58333
2381.622	523.91667
2384.1	538.25
2386.576	523.91667
2389.051	542.25
2391.524	538.58333
2393.995	528.25
2396.464	510.25
2398.932	514.25
2401.398	511.91667
2403.863	510.91667
2406.325	514.25
2408.787	509.58333
2411.246	517.58333
2413.704	510.91667
2416.16	504.91667
2418.615	504.91667
2421.068	519.58333
2423.519	509.91667
2425.969	504.58333
2428.417	514.58333
2430.863	538.58333
2433.308	516.58333
2435.751	512.58333
2438.193	508.25
2440.633	509.25
2443.071	503.58333
2445.508	498.91667
2447.943	497.25
2450.376	504.58333
2452.808	498.58333
2455.238	484.91667
2457.667	517.58333
2460.093	500.91667
2462.519	478.58333
2464.942	495.25
2467.365	498.58333
2469.785	500.91667
2472.204	485.25
2474.621	478.25
2477.037	495.58333
2479.451	470.91667
2481.863	474.25
2484.274	482.25
2486.683	490.58333
2489.091	490.58333
2491.497	481.91667
2493.901	481.25
2496.304	476.91667
2498.705	488.91667
2501.105	475.91667
2503.503	500.91667
2505.899	464.25
2508.294	489.91667
2510.687	478.25
2513.079	480.25
2515.469	467.91667
2517.858	478.91667
2520.245	489.91667
2522.63	469.58333
2525.014	466.25
2527.396	458.58333
2529.776	452.25
2532.156	476.25
2534.533	463.58333
2536.909	459.58333
2539.283	443.25
2541.656	447.58333
2544.027	482.91667
2546.397	467.25
2548.765	457.58333
2551.131	464.91667
2553.496	465.91667
2555.86	465.25
2558.221	459.91667
2560.582	455.91667
2562.94	450.91667
2565.298	455.91667
2567.653	473.25
2570.007	444.91667
2572.36	466.25
2574.711	449.91667
2577.06	471.91667
2579.408	465.58333
2581.754	458.58333
2584.099	467.58333
2586.442	457.25
2588.784	457.25
2591.124	459.25
2593.463	452.58333
2595.8	461.25
2598.135	437.91667
2600.469	444.91667
2602.802	463.91667
2605.133	464.25
2607.462	445.25
2609.79	441.58333
2612.116	462.25
2614.441	462.91667
2616.764	449.58333
2619.086	441.58333
2621.406	440.91667
2623.725	469.58333
2626.042	458.58333
2628.358	449.91667
2630.672	446.91667
2632.985	467.91667
2635.296	460.58333
2637.606	452.58333
2639.914	448.91667
2642.22	452.91667
2644.525	447.25
2646.829	461.25
2649.131	470.25
2651.432	482.25
2653.731	450.58333
2656.028	463.58333
2658.324	477.58333
2660.619	452.91667
2662.912	467.91667
2665.204	453.91667
2667.494	465.91667
2669.782	459.91667
2672.07	466.91667
2674.355	469.58333
2676.639	457.25
2678.922	452.58333
2681.203	467.25
2683.483	444.25
2685.761	454.91667
2688.038	470.58333
2690.313	481.25
2692.587	476.58333
2694.859	456.25
2697.13	469.91667
2699.399	479.91667
2701.667	480.91667
2703.933	476.25
2706.198	480.91667
2708.461	490.91667
2710.723	487.25
2712.984	491.25
2715.243	496.25
2717.5	485.25
2719.757	501.58333
2722.011	493.25
2724.264	511.25
2726.516	507.25
2728.766	497.58333
2731.015	510.25
2733.262	507.25
2735.508	503.58333
2737.753	507.58333
2739.996	489.58333
2742.237	487.58333
2744.477	500.91667
2746.716	492.91667
2748.953	487.91667
2751.189	483.91667
2753.423	481.25
2755.656	476.91667
2757.887	467.25
2760.117	480.91667
2762.346	468.91667
2764.573	461.58333
2766.798	471.58333
2769.022	469.58333
2771.245	479.25
2773.467	477.58333
2775.686	483.25
2777.905	485.91667
2780.122	486.58333
2782.337	489.91667
2784.552	488.58333
2786.764	503.25
2788.976	494.25
2791.186	496.58333
2793.394	509.58333
2795.601	512.58333
2797.807	530.58333
2800.011	526.25
2802.214	534.58333
2804.415	524.58333
2806.615	537.91667
2808.814	537.91667
2811.011	551.91667
2813.206	552.91667
2815.401	564.25
2817.594	571.25
2819.785	580.58333
2821.975	580.25
2824.164	566.91667
2826.351	596.25
2828.537	613.25
2830.722	616.58333
2832.905	623.25
2835.086	652.25
2837.267	683.25
2839.445	695.58333
2841.623	727.91667
2843.799	744.25
2845.974	784.25
2848.147	813.91667
2850.319	841.25
2852.489	870.25
2854.659	881.25
2856.826	904.91667
2858.993	921.25
2861.158	913.91667
2863.321	908.58333
2865.483	934.91667
2867.644	931.25
2869.804	927.58333
2871.962	925.25
2874.118	940.91667
2876.274	969.91667
2878.428	966.25
2880.58	940.91667
2882.731	935.91667
2884.881	919.25
2887.03	922.58333
2889.177	921.25
2891.322	945.25
2893.467	940.58333
2895.61	921.58333
2897.751	955.91667
2899.892	935.25
2902.03	951.25
2904.168	951.91667
2906.304	965.25
2908.439	981.25
2910.572	957.91667
2912.704	975.58333
2914.835	983.58333
2916.965	971.91667
2919.093	982.91667
2921.219	953.91667
2923.345	984.25
2925.469	948.58333
2927.591	958.91667
2929.712	911.25
2931.832	911.25
2933.951	894.25
2936.068	874.91667
2938.184	874.91667
2940.299	829.91667
2942.412	805.58333
2944.524	782.25
2946.634	765.58333
2948.744	724.25
2950.851	741.25
2952.958	701.91667
2955.063	706.91667
2957.167	677.25
2959.269	646.25
2961.371	677.58333
2963.471	637.58333
2965.569	633.25
2967.666	599.25
2969.762	602.25
2971.857	582.91667
2973.95	564.58333
2976.042	568.91667
2978.133	548.25
2980.222	543.91667
2982.31	514.58333
2984.396	500.25
2986.482	501.58333
2988.566	499.25
2990.648	493.58333
2992.73	476.58333
2994.81	479.25
2996.889	479.25
2998.966	470.25
3001.042	485.25
3003.117	464.25
3005.191	460.91667
3007.263	464.91667
3009.334	454.91667
3011.403	450.25
3013.472	439.58333
3015.539	437.91667
3017.604	442.58333
3019.669	417.25
3021.732	422.91667
3023.794	419.25
3025.854	404.91667
3027.914	406.58333
3029.971	408.91667
3032.028	412.58333
3034.083	408.58333
3036.137	401.91667
3038.19	390.58333
3040.242	380.91667
3042.292	371.58333
3044.341	378.25
3046.388	385.58333
3048.435	359.58333
3050.48	381.25
3052.524	365.58333
3054.566	347.25
3056.607	357.25
3058.647	354.58333
3060.686	337.58333
3062.723	329.25
3064.759	312.25
3066.794	-1.08333
3068.828	2.58333
3070.86	2.91667
