-0.839	422.29167
3.438	468.95833
7.711	136.29167
11.981	56.625
16.247	49.95833
20.509	46.95833
24.768	45.29167
29.024	46.625
33.276	48.29167
37.524	54.95833
41.769	45.29167
46.01	38.95833
50.247	53.29167
54.481	65.625
58.712	69.95833
62.939	49.95833
67.162	63.95833
71.382	62.29167
75.599	54.29167
79.812	66.95833
84.021	86.95833
88.227	64.95833
92.429	68.29167
96.628	53.29167
100.823	71.29167
105.015	82.95833
109.204	80.29167
113.388	82.625
117.57	83.625
121.748	96.95833
125.922	94.95833
130.093	112.625
134.261	117.625
138.425	119.29167
142.585	164.29167
146.742	163.625
150.896	192.29167
155.046	252.95833
159.193	408.95833
163.336	706.29167
167.476	1297.95833
171.613	2350.95833
175.746	3921.625
179.875	5784.29167
184.002	7518.29167
188.124	8719.95833
192.244	9154.29167
196.36	9088.95833
200.472	8936.95833
204.581	8769.29167
208.687	8627.625
212.79	8586.29167
216.889	8689.29167
220.984	8810.29167
225.077	8910.95833
229.165	9068.625
233.251	9210.625
237.333	9367.29167
241.412	9397.625
245.487	9383.625
249.559	9313.29167
253.628	9251.95833
257.694	9095.29167
261.756	9019.625
265.814	8735.95833
269.87	8455.95833
273.922	8156.29167
277.97	7805.625
282.016	7446.95833
286.058	7158.29167
290.097	6970.95833
294.132	6797.625
298.164	6731.95833
302.193	6444.625
306.219	6087.95833
310.241	5548.95833
314.26	5034.625
318.276	4594.95833
322.288	4265.29167
326.297	4010.95833
330.303	3845.29167
334.305	3741.29167
338.305	3636.625
342.301	3582.95833
346.294	3520.29167
350.283	3505.29167
354.269	3490.625
358.252	3479.29167
362.232	3463.95833
366.209	3424.625
370.182	3398.29167
374.152	3382.29167
378.119	3400.29167
382.083	3398.95833
386.043	3427.625
390	3378.625
393.954	3355.95833
397.905	3322.95833
401.852	3282.29167
405.797	3210.29167
409.738	3130.95833
413.676	3119.95833
417.61	3061.95833
421.542	2996.625
425.47	2948.95833
429.396	2918.29167
433.318	2899.625
437.236	2871.29167
441.152	2865.625
445.065	2822.625
448.974	2787.625
452.88	2774.625
456.783	2763.95833
460.683	2738.95833
464.58	2764.625
468.473	2743.29167
472.364	2746.625
476.251	2734.625
480.135	2770.95833
484.016	2795.95833
487.894	2786.625
491.769	2815.95833
495.641	2793.29167
499.509	2781.29167
503.375	2794.625
507.237	2803.625
511.096	2775.29167
514.952	2772.625
518.805	2765.625
522.655	2744.625
526.502	2740.95833
530.346	2756.625
534.187	2786.95833
538.024	2757.29167
541.859	2754.29167
545.69	2780.29167
549.519	2777.625
553.344	2745.95833
557.166	2713.95833
560.985	2679.625
564.802	2645.95833
568.615	2633.29167
572.425	2577.29167
576.232	2579.625
580.036	2558.29167
583.836	2579.95833
587.634	2564.95833
591.429	2573.29167
595.221	2610.95833
599.01	2648.95833
602.796	2677.95833
606.578	2711.95833
610.358	2716.95833
614.135	2684.29167
617.909	2699.29167
621.679	2691.95833
625.447	2669.29167
629.212	2701.95833
632.973	2690.29167
636.732	2665.95833
640.488	2671.95833
644.241	2636.95833
647.991	2632.29167
651.737	2673.625
655.481	2665.29167
659.222	2686.29167
662.96	2682.625
666.695	2682.95833
670.427	2683.95833
674.156	2705.625
677.882	2686.625
681.605	2676.625
685.325	2633.29167
689.043	2650.625
692.757	2645.29167
696.468	2670.95833
700.177	2659.29167
703.882	2644.29167
707.585	2664.95833
711.284	2637.625
714.981	2646.29167
718.675	2657.625
722.366	2661.95833
726.054	2633.95833
729.739	2640.29167
733.421	2659.29167
737.1	2641.625
740.777	2646.29167
744.45	2685.95833
748.121	2700.625
751.789	2744.95833
755.453	2737.95833
759.115	2750.625
762.774	2798.29167
766.431	2817.95833
770.084	2836.625
773.734	2876.95833
777.382	2924.29167
781.027	2931.625
784.669	2969.95833
788.308	2979.625
791.944	3001.95833
795.577	3051.29167
799.208	3057.95833
802.835	3094.29167
806.46	3129.625
810.082	3175.95833
813.701	3204.95833
817.317	3243.95833
820.931	3246.625
824.542	3209.29167
828.149	3192.625
831.754	3151.625
835.357	3148.29167
838.956	3115.95833
842.553	3085.95833
846.146	3069.625
849.737	3074.625
853.326	3084.95833
856.911	3066.95833
860.493	3135.95833
864.073	3137.95833
867.65	3180.95833
871.225	3223.95833
874.796	3236.95833
878.365	3271.29167
881.931	3269.29167
885.494	3322.29167
889.054	3299.29167
892.612	3307.29167
896.166	3286.625
899.719	3251.29167
903.268	3250.95833
906.814	3206.29167
910.358	3204.29167
913.899	3201.95833
917.438	3211.625
920.973	3204.95833
924.506	3237.29167
928.036	3271.95833
931.564	3314.29167
935.088	3342.625
938.61	3363.29167
942.129	3380.625
945.646	3449.95833
949.16	3553.29167
952.671	3608.29167
956.179	3669.29167
959.685	3657.29167
963.188	3637.95833
966.688	3627.29167
970.185	3536.29167
973.68	3431.95833
977.173	3395.29167
980.662	3376.625
984.149	3398.29167
987.633	3400.29167
991.114	3477.29167
994.593	3568.625
998.069	3685.29167
1001.542	3795.95833
1005.013	3731.29167
1008.481	3542.625
1011.947	3477.95833
1015.409	3471.29167
1018.869	3464.625
1022.327	3444.95833
1025.782	3413.625
1029.234	3420.95833
1032.683	3407.95833
1036.13	3285.95833
1039.574	3147.95833
1043.016	3069.95833
1046.455	3005.625
1049.891	2965.625
1053.325	2969.625
1056.756	2966.95833
1060.184	2977.29167
1063.61	2981.95833
1067.033	3016.625
1070.454	3013.625
1073.872	3031.95833
1077.287	3026.95833
1080.7	3060.95833
1084.11	3054.29167
1087.517	3021.95833
1090.922	2941.95833
1094.325	2946.625
1097.724	2909.625
1101.122	2915.95833
1104.516	2929.625
1107.908	2933.95833
1111.298	2991.95833
1114.684	3014.625
1118.069	3038.29167
1121.45	3072.29167
1124.83	3052.95833
1128.206	3062.95833
1131.58	3084.29167
1134.951	3191.625
1138.32	3256.29167
1141.687	3379.625
1145.05	3513.29167
1148.412	3535.625
1151.77	3550.29167
1155.126	3543.95833
1158.48	3545.29167
1161.831	3557.95833
1165.18	3578.95833
1168.525	3663.29167
1171.869	3681.29167
1175.21	3748.29167
1178.548	3795.29167
1181.884	3837.625
1185.217	3866.29167
1188.548	3941.625
1191.877	3986.625
1195.202	4071.625
1198.526	4115.95833
1201.846	4122.95833
1205.165	4112.625
1208.48	4090.625
1211.794	4102.95833
1215.104	4058.625
1218.413	4053.29167
1221.719	4034.625
1225.022	3987.29167
1228.323	3935.29167
1231.621	3970.95833
1234.917	3968.625
1238.21	3984.95833
1241.501	3959.29167
1244.79	3943.95833
1248.076	3960.95833
1251.359	4013.95833
1254.64	4062.29167
1257.919	4109.95833
1261.195	4138.625
1264.468	4209.95833
1267.74	4258.625
1271.008	4302.29167
1274.275	4267.625
1277.538	4251.29167
1280.8	4253.29167
1284.059	4263.625
1287.315	4305.95833
1290.569	4285.95833
1293.821	4352.625
1297.07	4359.625
1300.317	4366.625
1303.562	4374.29167
1306.803	4343.625
1310.043	4304.29167
1313.28	4259.29167
1316.515	4217.625
1319.747	4171.95833
1322.977	4158.625
1326.204	4111.95833
1329.429	4033.95833
1332.652	4006.95833
1335.872	3996.95833
1339.09	3986.625
1342.306	3988.95833
1345.519	3963.95833
1348.729	3958.625
1351.938	3936.29167
1355.144	3874.29167
1358.347	3783.625
1361.548	3786.625
1364.747	3814.29167
1367.944	3797.625
1371.138	3829.95833
1374.329	3851.29167
1377.518	3873.625
1380.705	3911.625
1383.89	3867.95833
1387.072	3778.95833
1390.252	3657.29167
1393.429	3530.29167
1396.605	3431.625
1399.777	3323.625
1402.948	3294.625
1406.116	3275.29167
1409.282	3258.625
1412.445	3248.625
1415.606	3280.625
1418.765	3334.29167
1421.921	3393.625
1425.075	3469.29167
1428.227	3558.95833
1431.376	3762.625
1434.524	3927.95833
1437.668	4000.29167
1440.811	4059.29167
1443.951	4078.29167
1447.089	4076.95833
1450.224	4051.95833
1453.357	4026.95833
1456.488	4003.625
1459.617	3947.29167
1462.743	3880.95833
1465.867	3798.625
1468.989	3780.95833
1472.108	3718.29167
1475.225	3643.95833
1478.34	3631.29167
1481.453	3612.625
1484.563	3604.625
1487.671	3690.95833
1490.776	3732.29167
1493.88	3804.29167
1496.981	3891.95833
1500.08	3985.29167
1503.176	4066.95833
1506.271	4097.625
1509.363	4183.95833
1512.452	4266.29167
1515.54	4343.29167
1518.625	4481.29167
1521.708	4675.29167
1524.789	4957.29167
1527.867	5265.95833
1530.944	5624.95833
1534.018	5825.29167
1537.089	5839.29167
1540.159	5739.625
1543.226	5537.95833
1546.291	5296.625
1549.354	5123.95833
1552.415	4959.95833
1555.473	4877.29167
1558.529	4775.625
1561.583	4753.625
1564.634	4747.29167
1567.684	4754.95833
1570.731	4776.625
1573.776	4812.29167
1576.819	4912.29167
1579.859	4994.95833
1582.898	5056.29167
1585.934	5095.29167
1588.968	5094.29167
1591.999	5089.625
1595.029	5079.95833
1598.056	5106.29167
1601.081	5129.95833
1604.104	5114.29167
1607.125	5066.95833
1610.144	4940.625
1613.16	4856.625
1616.174	4745.95833
1619.186	4653.29167
1622.196	4549.29167
1625.203	4458.625
1628.209	4407.625
1631.212	4334.625
1634.213	4326.625
1637.212	4302.95833
1640.209	4236.29167
1643.203	4103.29167
1646.196	4004.95833
1649.186	3868.95833
1652.174	3717.95833
1655.16	3607.95833
1658.144	3520.625
1661.125	3315.95833
1664.105	3124.95833
1667.082	3012.625
1670.057	2810.29167
1673.03	2652.95833
1676.001	2480.29167
1678.97	2325.625
1681.937	2196.29167
1684.901	2081.95833
1687.863	2003.95833
1690.824	1902.95833
1693.782	1865.29167
1696.738	1796.29167
1699.692	1739.29167
1702.643	1718.95833
1705.593	1691.29167
1708.54	1675.95833
1711.486	1665.625
1714.429	1644.625
1717.37	1624.29167
1720.309	1580.29167
1723.246	1588.625
1726.181	1544.95833
1729.113	1548.29167
1732.044	1515.625
1734.972	1515.625
1737.899	1509.29167
1740.823	1500.95833
1743.745	1462.625
1746.665	1439.29167
1749.583	1421.625
1752.499	1402.625
1755.413	1376.29167
1758.325	1363.29167
1761.235	1372.625
1764.142	1322.95833
1767.048	1319.95833
1769.951	1323.95833
1772.852	1296.95833
1775.752	1282.625
1778.649	1269.95833
1781.544	1275.95833
1784.437	1261.29167
1787.328	1270.29167
1790.217	1245.625
1793.104	1248.29167
1795.989	1222.95833
1798.872	1204.29167
1801.753	1236.625
1804.631	1226.29167
1807.508	1230.625
1810.383	1227.29167
1813.255	1207.95833
1816.126	1204.625
1818.994	1190.625
1821.861	1197.625
1824.725	1188.95833
1827.587	1186.95833
1830.448	1178.95833
1833.306	1149.95833
1836.162	1170.29167
1839.017	1142.625
1841.869	1145.625
1844.719	1137.625
1847.567	1122.95833
1850.414	1128.625
1853.258	1132.95833
1856.1	1141.625
1858.94	1150.29167
1861.778	1132.29167
1864.614	1110.95833
1867.448	1125.95833
1870.28	1114.29167
1873.111	1134.625
1875.939	1129.625
1878.765	1145.29167
1881.589	1109.29167
1884.411	1109.625
1887.231	1114.625
1890.049	1114.29167
1892.865	1114.625
1895.68	1106.625
1898.492	1091.625
1901.302	1079.625
1904.11	1080.29167
1906.916	1079.625
1909.721	1075.625
1912.523	1083.29167
1915.323	1046.95833
1918.122	1061.95833
1920.918	1065.29167
1923.712	1064.625
1926.505	1063.95833
1929.295	1040.29167
1932.084	1065.625
1934.87	1054.625
1937.655	1045.29167
1940.438	1046.29167
1943.218	1035.95833
1945.997	1052.95833
1948.774	1050.625
1951.549	1046.29167
1954.322	1038.95833
1957.093	1034.625
1959.862	1027.625
1962.629	1028.625
1965.394	1027.29167
1968.157	1018.95833
1970.918	1011.95833
1973.678	1009.625
1976.435	1011.625
1979.19	1005.95833
1981.944	1002.625
1984.696	990.625
1987.445	994.29167
1990.193	1001.29167
1992.939	1004.29167
1995.683	1002.625
1998.425	967.95833
2001.165	1010.29167
2003.903	988.625
2006.639	977.95833
2009.374	988.29167
2012.106	992.625
2014.837	962.29167
2017.566	996.95833
2020.292	981.625
2023.017	981.29167
2025.74	974.95833
2028.461	965.95833
2031.18	973.95833
2033.898	970.95833
2036.613	972.95833
2039.327	964.95833
2042.038	942.95833
2044.748	954.95833
2047.456	956.29167
2050.162	937.625
2052.866	946.29167
2055.568	946.625
2058.268	927.625
2060.967	958.95833
2063.663	928.625
2066.358	937.625
2069.051	933.29167
2071.742	944.625
2074.431	942.95833
2077.118	932.29167
2079.804	924.625
2082.487	939.625
2085.169	936.29167
2087.849	956.95833
2090.527	937.625
2093.203	950.95833
2095.877	937.95833
2098.55	948.625
2101.22	956.29167
2103.889	962.625
2106.556	951.29167
2109.221	985.29167
2111.884	995.95833
2114.546	1055.95833
2117.205	1078.29167
2119.863	1168.625
2122.519	1235.29167
2125.173	1345.95833
2127.825	1441.95833
2130.475	1481.95833
2133.124	1484.29167
2135.771	1462.95833
2138.416	1432.29167
2141.059	1348.625
2143.7	1303.95833
2146.339	1218.29167
2148.977	1158.95833
2151.613	1132.625
2154.247	1112.625
2156.879	1092.625
2159.51	1061.95833
2162.138	1061.95833
2164.765	1071.625
2167.39	1055.625
2170.013	1081.29167
2172.634	1090.625
2175.254	1078.29167
2177.872	1121.625
2180.488	1064.95833
2183.102	1073.625
2185.714	1050.625
2188.325	1027.95833
2190.934	1018.95833
2193.541	997.95833
2196.146	977.95833
2198.75	955.625
2201.351	948.29167
2203.951	899.95833
2206.549	922.625
2209.146	899.95833
2211.74	879.95833
2214.333	887.29167
2216.924	858.29167
2219.514	860.625
2222.101	849.625
2224.687	867.95833
2227.271	857.29167
2229.853	843.95833
2232.433	833.625
2235.012	851.625
2237.589	843.95833
2240.164	851.625
2242.738	835.29167
2245.309	809.95833
2247.879	815.29167
2250.448	819.95833
2253.014	792.95833
2255.579	780.29167
2258.142	777.625
2260.703	763.95833
2263.262	751.625
2265.82	760.625
2268.376	776.95833
2270.93	757.625
2273.483	748.625
2276.033	743.625
2278.583	725.95833
2281.13	720.95833
2283.675	726.95833
2286.219	718.29167
2288.761	724.95833
2291.302	731.29167
2293.841	732.95833
2296.377	701.29167
2298.913	710.625
2301.446	729.95833
2303.978	708.625
2306.508	702.29167
2309.037	712.95833
2311.563	700.95833
2314.088	713.95833
2316.612	694.29167
2319.133	702.95833
2321.653	688.95833
2324.171	690.625
2326.688	695.625
2329.202	672.625
2331.715	690.625
2334.227	673.625
2336.736	674.95833
2339.244	670.29167
2341.751	660.95833
2344.255	677.29167
2346.758	673.625
2349.259	654.625
2351.759	659.29167
2354.257	661.29167
2356.753	661.29167
2359.247	652.29167
2361.74	656.29167
2364.231	648.625
2366.721	655.95833
2369.209	649.29167
2371.695	654.95833
2374.179	643.29167
2376.662	648.625
2379.143	649.625
2381.622	636.625
2384.1	646.29167
2386.576	637.29167
2389.051	650.29167
2391.524	658.625
2393.995	661.29167
2396.464	619.95833
2398.932	631.625
2401.398	639.95833
2403.863	629.29167
2406.325	628.29167
2408.787	631.29167
2411.246	626.29167
2413.704	614.29167
2416.16	615.95833
2418.615	630.95833
2421.068	625.29167
2423.519	621.95833
2425.969	611.29167
2428.417	629.29167
2430.863	641.95833
2433.308	622.625
2435.751	610.95833
2438.193	617.625
2440.633	617.625
2443.071	619.95833
2445.508	598.625
2447.943	592.625
2450.376	591.95833
2452.808	603.29167
2455.238	592.29167
2457.667	632.95833
2460.093	601.29167
2462.519	577.95833
2464.942	589.95833
2467.365	606.29167
2469.785	585.29167
2472.204	596.625
2474.621	592.29167
2477.037	603.95833
2479.451	577.29167
2481.863	572.95833
2484.274	572.625
2486.683	574.95833
2489.091	584.625
2491.497	576.95833
2493.901	572.29167
2496.304	574.29167
2498.705	588.95833
2501.105	579.625
2503.503	594.95833
2505.899	571.29167
2508.294	581.95833
2510.687	558.29167
2513.079	569.95833
2515.469	558.95833
2517.858	541.95833
2520.245	575.95833
2522.63	559.625
2525.014	549.95833
2527.396	559.625
2529.776	556.625
2532.156	568.625
2534.533	549.625
2536.909	548.625
2539.283	531.95833
2541.656	544.29167
2544.027	560.29167
2546.397	549.95833
2548.765	542.29167
2551.131	554.95833
2553.496	549.95833
2555.86	545.29167
2558.221	540.625
2560.582	548.29167
2562.94	530.95833
2565.298	546.625
2567.653	563.29167
2570.007	525.95833
2572.36	549.29167
2574.711	527.29167
2577.06	542.625
2579.408	536.29167
2581.754	528.95833
2584.099	529.95833
2586.442	534.95833
2588.784	538.29167
2591.124	546.29167
2593.463	527.625
2595.8	523.29167
2598.135	520.95833
2600.469	525.625
2602.802	544.625
2605.133	544.625
2607.462	524.29167
2609.79	512.95833
2612.116	531.29167
2614.441	526.625
2616.764	529.625
2619.086	522.29167
2621.406	521.625
2623.725	541.29167
2626.042	529.29167
2628.358	523.95833
2630.672	514.95833
2632.985	529.29167
2635.296	531.95833
2637.606	528.29167
2639.914	522.95833
2642.22	516.29167
2644.525	528.95833
2646.829	535.29167
2649.131	532.29167
2651.432	540.625
2653.731	519.29167
2656.028	534.625
2658.324	528.95833
2660.619	520.625
2662.912	537.29167
2665.204	526.95833
2667.494	536.625
2669.782	523.95833
2672.07	528.29167
2674.355	538.625
2676.639	525.29167
2678.922	523.95833
2681.203	534.625
2683.483	516.625
2685.761	520.625
2688.038	535.625
2690.313	543.625
2692.587	534.95833
2694.859	521.625
2697.13	531.95833
2699.399	538.29167
2701.667	544.625
2703.933	554.95833
2706.198	548.29167
2708.461	556.29167
2710.723	558.625
2712.984	555.625
2715.243	572.29167
2717.5	560.625
2719.757	583.29167
2722.011	570.29167
2724.264	572.625
2726.516	582.95833
2728.766	566.29167
2731.015	575.29167
2733.262	581.625
2735.508	574.95833
2737.753	567.95833
2739.996	544.625
2742.237	548.625
2744.477	560.95833
2746.716	563.29167
2748.953	549.29167
2751.189	567.29167
2753.423	533.29167
2755.656	524.29167
2757.887	519.95833
2760.117	534.29167
2762.346	528.29167
2764.573	519.625
2766.798	520.625
2769.022	527.625
2771.245	523.29167
2773.467	521.625
2775.686	533.29167
2777.905	532.625
2780.122	541.625
2782.337	539.29167
2784.552	531.625
2786.764	547.95833
2788.976	546.625
2791.186	556.29167
2793.394	557.29167
2795.601	560.95833
2797.807	568.625
2800.011	570.95833
2802.214	585.625
2804.415	584.95833
2806.615	590.29167
2808.814	594.29167
2811.011	605.95833
2813.206	604.95833
2815.401	625.29167
2817.594	644.625
2819.785	645.95833
2821.975	639.95833
2824.164	655.29167
2826.351	670.29167
2828.537	695.29167
2830.722	708.625
2832.905	728.625
2835.086	766.95833
2837.267	807.29167
2839.445	850.29167
2841.623	880.625
2843.799	908.625
2845.974	969.95833
2848.147	1024.29167
2850.319	1045.95833
2852.489	1075.625
2854.659	1105.29167
2856.826	1116.29167
2858.993	1129.95833
2861.158	1149.29167
2863.321	1139.29167
2865.483	1181.29167
2867.644	1165.29167
2869.804	1170.625
2871.962	1152.29167
2874.118	1162.625
2876.274	1149.625
2878.428	1155.29167
2880.58	1156.625
2882.731	1153.625
2884.881	1148.29167
2887.03	1149.625
2889.177	1140.95833
2891.322	1182.625
2893.467	1169.95833
2895.61	1174.625
2897.751	1199.95833
2899.892	1201.95833
2902.03	1210.625
2904.168	1214.95833
2906.304	1216.29167
2908.439	1241.625
2910.572	1236.29167
2912.704	1256.95833
2914.835	1250.625
2916.965	1243.625
2919.093	1266.625
2921.219	1217.95833
2923.345	1220.625
2925.469	1194.95833
2927.591	1215.625
2929.712	1167.29167
2931.832	1158.29167
2933.951	1125.29167
2936.068	1098.625
2938.184	1061.29167
2940.299	1027.29167
2942.412	1005.625
2944.524	947.625
2946.634	929.625
2948.744	878.95833
2950.851	875.95833
2952.958	837.29167
2955.063	819.29167
2957.167	799.95833
2959.269	749.625
2961.371	768.95833
2963.471	720.95833
2965.569	730.625
2967.666	682.29167
2969.762	670.29167
2971.857	642.625
2973.95	626.625
2976.042	622.95833
2978.133	595.29167
2980.222	577.95833
2982.31	556.95833
2984.396	540.29167
2986.482	536.625
2988.566	525.29167
2990.648	512.29167
2992.73	520.29167
2994.81	489.29167
2996.889	497.29167
2998.966	484.95833
3001.042	488.625
3003.117	477.29167
3005.191	477.29167
3007.263	476.625
3009.334	463.625
3011.403	458.29167
3013.472	432.95833
3015.539	450.29167
3017.604	454.95833
3019.669	410.625
3021.732	428.625
3023.794	425.95833
3025.854	396.95833
3027.914	396.29167
3029.971	402.95833
3032.028	397.29167
3034.083	396.625
3036.137	401.95833
3038.19	381.625
3040.242	365.29167
3042.292	357.29167
3044.341	363.29167
3046.388	371.29167
3048.435	352.29167
3050.48	366.95833
3052.524	356.95833
3054.566	337.95833
3056.607	348.29167
3058.647	344.29167
3060.686	324.29167
3062.723	318.29167
3064.759	305.29167
3066.794	-0.70833
3068.828	-0.375
3070.86	-1.375
