-0.839	483.16667
3.438	537.83333
7.711	145.16667
11.981	55.16667
16.247	47.5
20.509	45.16667
24.768	46.5
29.024	46.83333
33.276	46.83333
37.524	49.83333
41.769	43.16667
46.01	40.16667
50.247	56.16667
54.481	66.5
58.712	68.83333
62.939	50.5
67.162	61.5
71.382	61.5
75.599	45.5
79.812	70.5
84.021	83.5
88.227	57.5
92.429	63.16667
96.628	53.83333
100.823	71.5
105.015	80.16667
109.204	82.5
113.388	83.16667
117.57	80.5
121.748	95.16667
125.922	92.83333
130.093	109.5
134.261	116.83333
138.425	112.16667
142.585	157.16667
146.742	158.83333
150.896	186.5
155.046	235.16667
159.193	379.5
163.336	650.5
167.476	1199.16667
171.613	2204.83333
175.746	3675.16667
179.875	5429.16667
184.002	7002.5
188.124	8090.16667
192.244	8440.5
196.36	8418.83333
200.472	8221.16667
204.581	8015.5
208.687	7879.5
212.79	7843.83333
216.889	7893.83333
220.984	7977.16667
225.077	8116.16667
229.165	8274.5
233.251	8406.83333
237.333	8458.83333
241.412	8515.5
245.487	8523.5
249.559	8481.16667
253.628	8394.5
257.694	8265.16667
261.756	8188.16667
265.814	7990.83333
269.87	7760.16667
273.922	7435.5
277.97	7138.5
282.016	6920.5
286.058	6698.16667
290.097	6604.83333
294.132	6473.16667
298.164	6391.83333
302.193	6106.83333
306.219	5671.5
310.241	5168.16667
314.26	4679.83333
318.276	4292.83333
322.288	3999.83333
326.297	3775.16667
330.303	3649.83333
334.305	3524.83333
338.305	3439.16667
342.301	3402.5
346.294	3334.5
350.283	3307.83333
354.269	3289.16667
358.252	3278.5
362.232	3231.5
366.209	3213.83333
370.182	3181.16667
374.152	3171.16667
378.119	3166.83333
382.083	3165.83333
386.043	3147.83333
390	3125.83333
393.954	3107.83333
397.905	3090.16667
401.852	3066.83333
405.797	2989.5
409.738	2974.5
413.676	2954.83333
417.61	2910.5
421.542	2891.5
425.47	2835.16667
429.396	2802.5
433.318	2813.5
437.236	2778.83333
441.152	2781.5
445.065	2758.16667
448.974	2739.5
452.88	2696.5
456.783	2670.5
460.683	2665.16667
464.58	2689.83333
468.473	2680.16667
472.364	2654.83333
476.251	2668.83333
480.135	2684.83333
484.016	2700.83333
487.894	2774.5
491.769	2739.16667
495.641	2724.16667
499.509	2726.16667
503.375	2748.83333
507.237	2714.83333
511.096	2696.5
514.952	2723.16667
518.805	2744.83333
522.655	2746.83333
526.502	2721.5
530.346	2685.83333
534.187	2697.5
538.024	2732.83333
541.859	2710.83333
545.69	2722.16667
549.519	2718.16667
553.344	2686.83333
557.166	2646.5
560.985	2631.16667
564.802	2606.16667
568.615	2575.5
572.425	2525.83333
576.232	2513.83333
580.036	2508.83333
583.836	2526.83333
587.634	2526.16667
591.429	2518.16667
595.221	2575.16667
599.01	2598.83333
602.796	2629.16667
606.578	2628.83333
610.358	2638.83333
614.135	2622.5
617.909	2624.16667
621.679	2612.5
625.447	2605.16667
629.212	2615.5
632.973	2616.5
636.732	2611.83333
640.488	2623.5
644.241	2552.5
647.991	2591.83333
651.737	2601.5
655.481	2584.5
659.222	2569.5
662.96	2575.5
666.695	2604.5
670.427	2595.83333
674.156	2607.16667
677.882	2596.16667
681.605	2603.83333
685.325	2563.83333
689.043	2585.83333
692.757	2572.5
696.468	2599.83333
700.177	2595.83333
703.882	2563.5
707.585	2578.5
711.284	2584.83333
714.981	2572.16667
718.675	2566.5
722.366	2606.83333
726.054	2545.5
729.739	2552.16667
733.421	2578.16667
737.1	2567.83333
740.777	2609.16667
744.45	2623.16667
748.121	2637.83333
751.789	2683.16667
755.453	2665.5
759.115	2704.5
762.774	2710.83333
766.431	2737.16667
770.084	2759.16667
773.734	2794.83333
777.382	2864.83333
781.027	2880.5
784.669	2887.16667
788.308	2907.83333
791.944	2926.16667
795.577	2945.5
799.208	2965.16667
802.835	3012.5
806.46	3024.5
810.082	3074.5
813.701	3072.5
817.317	3123.5
820.931	3103.16667
824.542	3105.16667
828.149	3088.16667
831.754	3059.83333
835.357	3033.16667
838.956	3042.16667
842.553	3020.16667
846.146	2984.5
849.737	2964.5
853.326	2979.5
856.911	3001.16667
860.493	3071.5
864.073	3077.16667
867.65	3119.5
871.225	3144.16667
874.796	3158.83333
878.365	3177.5
881.931	3186.83333
885.494	3209.83333
889.054	3212.5
892.612	3209.5
896.166	3148.5
899.719	3117.16667
903.268	3140.16667
906.814	3108.83333
910.358	3080.16667
913.899	3061.5
917.438	3081.83333
920.973	3038.16667
924.506	3115.16667
928.036	3149.16667
931.564	3163.5
935.088	3220.83333
938.61	3228.83333
942.129	3246.16667
945.646	3318.83333
949.16	3372.16667
952.671	3479.5
956.179	3543.16667
959.685	3482.5
963.188	3506.16667
966.688	3451.5
970.185	3346.5
973.68	3289.16667
977.173	3263.16667
980.662	3243.5
984.149	3263.83333
987.633	3260.83333
991.114	3322.83333
994.593	3414.83333
998.069	3531.83333
1001.542	3654.83333
1005.013	3559.5
1008.481	3380.5
1011.947	3302.16667
1015.409	3326.83333
1018.869	3302.83333
1022.327	3316.5
1025.782	3261.5
1029.234	3266.83333
1032.683	3242.5
1036.13	3125.83333
1039.574	3001.5
1043.016	2924.16667
1046.455	2890.83333
1049.891	2854.5
1053.325	2850.83333
1056.756	2858.83333
1060.184	2871.5
1063.61	2890.83333
1067.033	2871.83333
1070.454	2897.16667
1073.872	2915.83333
1077.287	2917.5
1080.7	2938.83333
1084.11	2921.83333
1087.517	2897.16667
1090.922	2862.83333
1094.325	2844.16667
1097.724	2829.5
1101.122	2806.16667
1104.516	2798.83333
1107.908	2820.83333
1111.298	2886.83333
1114.684	2912.83333
1118.069	2945.83333
1121.45	2947.83333
1124.83	2962.16667
1128.206	2961.5
1131.58	3012.5
1134.951	3091.16667
1138.32	3193.83333
1141.687	3315.16667
1145.05	3428.5
1148.412	3460.83333
1151.77	3441.83333
1155.126	3425.83333
1158.48	3442.16667
1161.831	3441.83333
1165.18	3501.83333
1168.525	3542.5
1171.869	3581.16667
1175.21	3621.83333
1178.548	3664.16667
1181.884	3685.83333
1185.217	3725.16667
1188.548	3801.5
1191.877	3848.5
1195.202	3917.5
1198.526	3961.16667
1201.846	3975.83333
1205.165	3969.5
1208.48	3926.5
1211.794	3908.16667
1215.104	3895.83333
1218.413	3903.5
1221.719	3875.5
1225.022	3894.83333
1228.323	3825.83333
1231.621	3829.5
1234.917	3810.5
1238.21	3831.83333
1241.501	3825.83333
1244.79	3841.5
1248.076	3818.5
1251.359	3867.16667
1254.64	3948.16667
1257.919	3945.83333
1261.195	4030.83333
1264.468	4091.83333
1267.74	4166.5
1271.008	4150.83333
1274.275	4146.5
1277.538	4106.16667
1280.8	4103.5
1284.059	4085.5
1287.315	4129.16667
1290.569	4163.5
1293.821	4164.83333
1297.07	4184.5
1300.317	4204.5
1303.562	4206.83333
1306.803	4181.83333
1310.043	4142.16667
1313.28	4074.83333
1316.515	4063.5
1319.747	3996.5
1322.977	3939.5
1326.204	3871.16667
1329.429	3835.5
1332.652	3802.83333
1335.872	3786.83333
1339.09	3775.16667
1342.306	3781.83333
1345.519	3749.5
1348.729	3756.83333
1351.938	3710.16667
1355.144	3640.83333
1358.347	3605.16667
1361.548	3597.16667
1364.747	3603.5
1367.944	3593.5
1371.138	3575.5
1374.329	3613.16667
1377.518	3675.83333
1380.705	3703.83333
1383.89	3700.83333
1387.072	3602.83333
1390.252	3447.16667
1393.429	3354.16667
1396.605	3266.83333
1399.777	3177.5
1402.948	3142.83333
1406.116	3106.83333
1409.282	3089.83333
1412.445	3109.5
1415.606	3148.16667
1418.765	3177.5
1421.921	3244.83333
1425.075	3301.16667
1428.227	3451.83333
1431.376	3584.83333
1434.524	3744.5
1437.668	3829.83333
1440.811	3866.16667
1443.951	3894.83333
1447.089	3878.16667
1450.224	3907.83333
1453.357	3887.16667
1456.488	3851.5
1459.617	3790.83333
1462.743	3728.16667
1465.867	3679.5
1468.989	3636.5
1472.108	3580.16667
1475.225	3505.83333
1478.34	3487.83333
1481.453	3466.83333
1484.563	3492.83333
1487.671	3516.83333
1490.776	3583.5
1493.88	3653.16667
1496.981	3750.83333
1500.08	3842.83333
1503.176	3904.16667
1506.271	3963.16667
1509.363	4029.5
1512.452	4066.16667
1515.54	4135.5
1518.625	4255.83333
1521.708	4440.5
1524.789	4696.83333
1527.867	5017.5
1530.944	5310.5
1534.018	5538.5
1537.089	5637.5
1540.159	5573.5
1543.226	5384.83333
1546.291	5211.5
1549.354	5010.16667
1552.415	4869.5
1555.473	4730.16667
1558.529	4618.16667
1561.583	4601.5
1564.634	4551.83333
1567.684	4562.5
1570.731	4580.5
1573.776	4654.16667
1576.819	4676.5
1579.859	4761.83333
1582.898	4811.83333
1585.934	4848.16667
1588.968	4877.83333
1591.999	4862.16667
1595.029	4842.83333
1598.056	4881.83333
1601.081	4863.16667
1604.104	4875.16667
1607.125	4834.83333
1610.144	4723.16667
1613.16	4614.5
1616.174	4498.5
1619.186	4430.5
1622.196	4288.5
1625.203	4219.83333
1628.209	4168.16667
1631.212	4114.5
1634.213	4079.5
1637.212	4042.83333
1640.209	3970.83333
1643.203	3856.16667
1646.196	3748.83333
1649.186	3606.5
1652.174	3487.5
1655.16	3375.5
1658.144	3276.16667
1661.125	3121.16667
1664.105	2971.83333
1667.082	2840.5
1670.057	2660.5
1673.03	2530.5
1676.001	2353.83333
1678.97	2205.5
1681.937	2090.5
1684.901	1967.16667
1687.863	1907.83333
1690.824	1832.83333
1693.782	1772.16667
1696.738	1723.5
1699.692	1689.5
1702.643	1646.16667
1705.593	1621.5
1708.54	1595.83333
1711.486	1601.16667
1714.429	1567.16667
1717.37	1537.83333
1720.309	1511.5
1723.246	1527.16667
1726.181	1501.16667
1729.113	1470.16667
1732.044	1471.83333
1734.972	1447.5
1737.899	1454.5
1740.823	1435.16667
1743.745	1415.83333
1746.665	1386.16667
1749.583	1359.83333
1752.499	1345.83333
1755.413	1321.83333
1758.325	1299.16667
1761.235	1309.16667
1764.142	1269.83333
1767.048	1253.83333
1769.951	1268.16667
1772.852	1237.5
1775.752	1235.16667
1778.649	1230.5
1781.544	1228.5
1784.437	1214.83333
1787.328	1212.5
1790.217	1193.16667
1793.104	1186.83333
1795.989	1167.16667
1798.872	1167.83333
1801.753	1188.5
1804.631	1161.83333
1807.508	1179.83333
1810.383	1169.83333
1813.255	1160.5
1816.126	1161.83333
1818.994	1161.83333
1821.861	1141.5
1824.725	1139.16667
1827.587	1129.5
1830.448	1136.5
1833.306	1089.5
1836.162	1112.16667
1839.017	1105.83333
1841.869	1103.83333
1844.719	1108.5
1847.567	1101.16667
1850.414	1085.16667
1853.258	1101.5
1856.1	1104.16667
1858.94	1105.83333
1861.778	1091.83333
1864.614	1083.5
1867.448	1077.5
1870.28	1079.5
1873.111	1090.16667
1875.939	1086.83333
1878.765	1087.16667
1881.589	1086.16667
1884.411	1075.5
1887.231	1094.16667
1890.049	1065.83333
1892.865	1070.83333
1895.68	1056.16667
1898.492	1053.83333
1901.302	1042.5
1904.11	1046.5
1906.916	1039.16667
1909.721	1026.5
1912.523	1046.16667
1915.323	1019.5
1918.122	1022.16667
1920.918	1035.16667
1923.712	1015.16667
1926.505	1028.83333
1929.295	1005.5
1932.084	1028.16667
1934.87	1024.16667
1937.655	1011.5
1940.438	998.16667
1943.218	1001.5
1945.997	1025.5
1948.774	1026.83333
1951.549	1024.5
1954.322	1002.83333
1957.093	1009.83333
1959.862	996.83333
1962.629	999.5
1965.394	971.5
1968.157	981.83333
1970.918	986.83333
1973.678	973.83333
1976.435	979.5
1979.19	966.83333
1981.944	969.16667
1984.696	959.5
1987.445	955.83333
1990.193	964.16667
1992.939	974.16667
1995.683	960.16667
1998.425	938.5
2001.165	971.16667
2003.903	950.83333
2006.639	938.5
2009.374	953.5
2012.106	950.83333
2014.837	926.83333
2017.566	955.83333
2020.292	937.5
2023.017	948.16667
2025.74	930.83333
2028.461	931.83333
2031.18	934.5
2033.898	920.5
2036.613	940.5
2039.327	927.16667
2042.038	916.16667
2044.748	922.83333
2047.456	926.16667
2050.162	900.16667
2052.866	902.83333
2055.568	916.16667
2058.268	912.16667
2060.967	930.83333
2063.663	904.83333
2066.358	912.5
2069.051	891.83333
2071.742	911.5
2074.431	904.16667
2077.118	899.16667
2079.804	890.5
2082.487	898.16667
2085.169	913.5
2087.849	935.16667
2090.527	899.16667
2093.203	916.83333
2095.877	923.5
2098.55	916.83333
2101.22	941.5
2103.889	926.5
2106.556	932.83333
2109.221	948.5
2111.884	978.5
2114.546	1027.16667
2117.205	1066.16667
2119.863	1159.16667
2122.519	1239.83333
2125.173	1308.16667
2127.825	1409.5
2130.475	1449.16667
2133.124	1426.83333
2135.771	1409.5
2138.416	1386.5
2141.059	1291.5
2143.7	1251.83333
2146.339	1179.5
2148.977	1108.5
2151.613	1093.16667
2154.247	1073.5
2156.879	1050.16667
2159.51	1039.5
2162.138	1025.83333
2164.765	1015.16667
2167.39	1006.16667
2170.013	1021.5
2172.634	1033.16667
2175.254	1018.83333
2177.872	1049.83333
2180.488	1001.16667
2183.102	998.83333
2185.714	975.5
2188.325	948.83333
2190.934	960.16667
2193.541	949.83333
2196.146	922.83333
2198.75	894.5
2201.351	887.5
2203.951	870.83333
2206.549	876.83333
2209.146	856.16667
2211.74	853.83333
2214.333	845.16667
2216.924	828.83333
2219.514	832.16667
2222.101	829.5
2224.687	849.16667
2227.271	817.5
2229.853	806.16667
2232.433	808.16667
2235.012	812.83333
2237.589	820.5
2240.164	825.16667
2242.738	813.83333
2245.309	791.83333
2247.879	785.5
2250.448	801.5
2253.014	773.83333
2255.579	757.83333
2258.142	765.16667
2260.703	742.83333
2263.262	757.16667
2265.82	752.16667
2268.376	738.5
2270.93	734.5
2273.483	721.5
2276.033	737.16667
2278.583	730.83333
2281.13	718.83333
2283.675	710.5
2286.219	719.5
2288.761	716.83333
2291.302	722.16667
2293.841	722.16667
2296.377	700.5
2298.913	695.5
2301.446	713.16667
2303.978	705.16667
2306.508	699.16667
2309.037	709.5
2311.563	703.16667
2314.088	701.83333
2316.612	690.16667
2319.133	704.83333
2321.653	679.83333
2324.171	671.83333
2326.688	683.16667
2329.202	669.83333
2331.715	684.5
2334.227	672.83333
2336.736	662.83333
2339.244	673.5
2341.751	653.83333
2344.255	675.83333
2346.758	664.16667
2349.259	652.5
2351.759	656.5
2354.257	645.83333
2356.753	652.5
2359.247	657.83333
2361.74	659.16667
2364.231	661.83333
2366.721	654.83333
2369.209	659.5
2371.695	651.5
2374.179	654.83333
2376.662	643.16667
2379.143	662.16667
2381.622	627.16667
2384.1	650.16667
2386.576	643.5
2389.051	646.16667
2391.524	656.5
2393.995	654.83333
2396.464	628.83333
2398.932	633.83333
2401.398	642.16667
2403.863	631.83333
2406.325	644.16667
2408.787	637.16667
2411.246	631.5
2413.704	634.16667
2416.16	635.83333
2418.615	634.83333
2421.068	633.83333
2423.519	633.83333
2425.969	630.83333
2428.417	631.16667
2430.863	653.83333
2433.308	642.83333
2435.751	631.83333
2438.193	617.83333
2440.633	635.5
2443.071	627.5
2445.508	614.83333
2447.943	615.5
2450.376	610.16667
2452.808	631.16667
2455.238	608.83333
2457.667	641.16667
2460.093	618.16667
2462.519	606.5
2464.942	609.83333
2467.365	610.5
2469.785	613.16667
2472.204	606.16667
2474.621	609.5
2477.037	626.16667
2479.451	590.16667
2481.863	598.16667
2484.274	596.83333
2486.683	600.16667
2489.091	612.83333
2491.497	600.83333
2493.901	597.5
2496.304	602.5
2498.705	607.16667
2501.105	599.83333
2503.503	621.16667
2505.899	601.16667
2508.294	607.5
2510.687	592.16667
2513.079	578.5
2515.469	589.16667
2517.858	588.5
2520.245	608.16667
2522.63	590.5
2525.014	591.83333
2527.396	586.83333
2529.776	583.83333
2532.156	595.83333
2534.533	579.83333
2536.909	583.83333
2539.283	570.16667
2541.656	575.83333
2544.027	605.83333
2546.397	589.5
2548.765	583.5
2551.131	584.83333
2553.496	581.83333
2555.86	589.83333
2558.221	576.16667
2560.582	569.16667
2562.94	556.83333
2565.298	577.5
2567.653	582.16667
2570.007	560.5
2572.36	573.16667
2574.711	579.16667
2577.06	591.5
2579.408	570.83333
2581.754	584.16667
2584.099	579.5
2586.442	573.16667
2588.784	573.83333
2591.124	577.16667
2593.463	574.83333
2595.8	576.83333
2598.135	560.83333
2600.469	569.83333
2602.802	582.16667
2605.133	587.16667
2607.462	571.5
2609.79	568.16667
2612.116	578.5
2614.441	568.83333
2616.764	575.16667
2619.086	575.5
2621.406	576.5
2623.725	581.83333
2626.042	571.83333
2628.358	574.16667
2630.672	575.83333
2632.985	587.16667
2635.296	579.83333
2637.606	577.16667
2639.914	570.16667
2642.22	578.16667
2644.525	577.16667
2646.829	579.5
2649.131	604.83333
2651.432	589.16667
2653.731	588.16667
2656.028	598.5
2658.324	590.16667
2660.619	571.83333
2662.912	593.16667
2665.204	579.5
2667.494	595.5
2669.782	576.83333
2672.07	590.5
2674.355	597.5
2676.639	579.83333
2678.922	578.83333
2681.203	600.5
2683.483	573.83333
2685.761	588.16667
2688.038	588.16667
2690.313	608.5
2692.587	594.5
2694.859	595.5
2697.13	594.5
2699.399	601.83333
2701.667	614.83333
2703.933	604.16667
2706.198	612.16667
2708.461	618.83333
2710.723	624.5
2712.984	622.16667
2715.243	626.83333
2717.5	633.5
2719.757	639.5
2722.011	643.83333
2724.264	645.5
2726.516	656.16667
2728.766	621.16667
2731.015	643.5
2733.262	634.83333
2735.508	634.5
2737.753	644.83333
2739.996	622.16667
2742.237	627.5
2744.477	632.83333
2746.716	637.83333
2748.953	627.5
2751.189	632.16667
2753.423	618.83333
2755.656	616.16667
2757.887	595.83333
2760.117	614.83333
2762.346	603.5
2764.573	602.83333
2766.798	598.16667
2769.022	609.16667
2771.245	608.5
2773.467	605.5
2775.686	611.83333
2777.905	617.16667
2780.122	622.5
2782.337	621.16667
2784.552	620.16667
2786.764	641.83333
2788.976	625.83333
2791.186	644.16667
2793.394	645.5
2795.601	659.83333
2797.807	676.16667
2800.011	668.83333
2802.214	680.83333
2804.415	667.5
2806.615	692.16667
2808.814	690.83333
2811.011	705.16667
2813.206	699.83333
2815.401	719.5
2817.594	728.83333
2819.785	736.83333
2821.975	728.16667
2824.164	753.83333
2826.351	775.16667
2828.537	788.16667
2830.722	809.83333
2832.905	818.83333
2835.086	849.16667
2837.267	894.83333
2839.445	935.5
2841.623	943.16667
2843.799	983.5
2845.974	1028.83333
2848.147	1075.5
2850.319	1097.5
2852.489	1146.16667
2854.659	1158.83333
2856.826	1201.83333
2858.993	1250.16667
2861.158	1196.83333
2863.321	1184.83333
2865.483	1220.83333
2867.644	1218.83333
2869.804	1201.16667
2871.962	1194.5
2874.118	1208.5
2876.274	1206.83333
2878.428	1211.5
2880.58	1181.5
2882.731	1186.16667
2884.881	1195.16667
2887.03	1194.83333
2889.177	1200.16667
2891.322	1202.16667
2893.467	1198.5
2895.61	1198.83333
2897.751	1246.83333
2899.892	1240.83333
2902.03	1239.16667
2904.168	1253.83333
2906.304	1260.5
2908.439	1265.5
2910.572	1255.83333
2912.704	1283.83333
2914.835	1288.5
2916.965	1287.5
2919.093	1296.5
2921.219	1264.5
2923.345	1275.5
2925.469	1231.83333
2927.591	1232.16667
2929.712	1191.16667
2931.832	1181.83333
2933.951	1168.5
2936.068	1137.5
2938.184	1101.5
2940.299	1073.5
2942.412	1042.5
2944.524	1009.16667
2946.634	993.83333
2948.744	932.83333
2950.851	962.16667
2952.958	890.83333
2955.063	903.16667
2957.167	864.16667
2959.269	836.83333
2961.371	846.83333
2963.471	810.83333
2965.569	801.16667
2967.666	774.16667
2969.762	754.83333
2971.857	736.16667
2973.95	718.83333
2976.042	723.83333
2978.133	691.83333
2980.222	678.83333
2982.31	656.5
2984.396	632.83333
2986.482	634.83333
2988.566	636.16667
2990.648	617.5
2992.73	607.5
2994.81	601.5
2996.889	600.83333
2998.966	585.83333
3001.042	599.5
3003.117	596.5
3005.191	590.16667
3007.263	574.16667
3009.334	573.16667
3011.403	565.5
3013.472	557.16667
3015.539	545.83333
3017.604	563.83333
3019.669	531.16667
3021.732	527.83333
3023.794	523.16667
3025.854	508.83333
3027.914	514.83333
3029.971	518.16667
3032.028	511.5
3034.083	512.16667
3036.137	503.83333
3038.19	478.5
3040.242	474.5
3042.292	464.83333
3044.341	459.83333
3046.388	469.83333
3048.435	453.16667
3050.48	473.5
3052.524	468.83333
3054.566	437.83333
3056.607	454.16667
3058.647	437.16667
3060.686	421.16667
3062.723	409.83333
3064.759	393.16667
3066.794	-1.5
3068.828	-2.16667
3070.86	-1.5
