-0.839	478.20833
3.438	516.875
7.711	146.875
11.981	54.875
16.247	48.54167
20.509	46.54167
24.768	48.54167
29.024	52.875
33.276	45.54167
37.524	49.20833
41.769	39.20833
46.01	39.54167
50.247	56.20833
54.481	64.54167
58.712	67.20833
62.939	56.54167
67.162	68.875
71.382	59.875
75.599	51.20833
79.812	69.54167
84.021	87.875
88.227	64.20833
92.429	67.20833
96.628	53.54167
100.823	72.875
105.015	82.20833
109.204	81.20833
113.388	86.20833
117.57	83.54167
121.748	92.875
125.922	93.54167
130.093	110.20833
134.261	117.54167
138.425	107.54167
142.585	154.54167
146.742	156.54167
150.896	189.875
155.046	238.20833
159.193	382.875
163.336	661.875
167.476	1202.54167
171.613	2210.54167
175.746	3675.20833
179.875	5469.20833
184.002	7110.54167
188.124	8223.875
192.244	8620.54167
196.36	8569.54167
200.472	8402.20833
204.581	8231.20833
208.687	8089.20833
212.79	8093.20833
216.889	8153.54167
220.984	8268.875
225.077	8381.875
229.165	8528.54167
233.251	8698.20833
237.333	8833.875
241.412	8837.20833
245.487	8857.54167
249.559	8813.875
253.628	8739.875
257.694	8648.875
261.756	8534.875
265.814	8365.875
269.87	8157.54167
273.922	7786.875
277.97	7478.20833
282.016	7226.20833
286.058	6934.20833
290.097	6785.875
294.132	6691.20833
298.164	6554.54167
302.193	6371.54167
306.219	5967.54167
310.241	5472.875
314.26	4984.875
318.276	4567.20833
322.288	4276.875
326.297	4030.20833
330.303	3878.54167
334.305	3771.20833
338.305	3682.875
342.301	3648.20833
346.294	3614.54167
350.283	3593.54167
354.269	3551.54167
358.252	3556.54167
362.232	3527.54167
366.209	3503.20833
370.182	3498.54167
374.152	3483.20833
378.119	3499.54167
382.083	3460.875
386.043	3506.20833
390	3485.20833
393.954	3423.875
397.905	3400.875
401.852	3378.875
405.797	3293.875
409.738	3256.54167
413.676	3258.875
417.61	3193.875
421.542	3156.54167
425.47	3132.54167
429.396	3097.54167
433.318	3078.875
437.236	3056.20833
441.152	3053.54167
445.065	3005.20833
448.974	2954.875
452.88	2944.54167
456.783	2930.875
460.683	2900.20833
464.58	2921.20833
468.473	2934.875
472.364	2906.54167
476.251	2939.875
480.135	2947.875
484.016	2966.20833
487.894	2987.875
491.769	2983.54167
495.641	2990.54167
499.509	2992.20833
503.375	2995.54167
507.237	2977.875
511.096	2970.20833
514.952	3005.20833
518.805	3010.20833
522.655	2992.54167
526.502	2933.20833
530.346	2936.20833
534.187	2951.54167
538.024	2961.875
541.859	2948.875
545.69	2980.54167
549.519	2971.875
553.344	2938.875
557.166	2907.20833
560.985	2854.875
564.802	2838.875
568.615	2796.54167
572.425	2753.20833
576.232	2754.20833
580.036	2725.20833
583.836	2752.54167
587.634	2744.20833
591.429	2752.54167
595.221	2786.54167
599.01	2803.875
602.796	2855.20833
606.578	2864.54167
610.358	2882.875
614.135	2877.20833
617.909	2871.54167
621.679	2857.875
625.447	2833.875
629.212	2830.875
632.973	2840.20833
636.732	2819.875
640.488	2811.875
644.241	2821.54167
647.991	2798.54167
651.737	2840.20833
655.481	2808.54167
659.222	2838.875
662.96	2839.875
666.695	2860.54167
670.427	2843.875
674.156	2866.20833
677.882	2840.875
681.605	2826.875
685.325	2817.54167
689.043	2810.20833
692.757	2810.54167
696.468	2824.54167
700.177	2798.20833
703.882	2793.54167
707.585	2805.875
711.284	2790.54167
714.981	2795.875
718.675	2821.54167
722.366	2822.54167
726.054	2781.20833
729.739	2804.54167
733.421	2814.54167
737.1	2794.875
740.777	2828.20833
744.45	2841.20833
748.121	2867.54167
751.789	2890.54167
755.453	2883.875
759.115	2908.20833
762.774	2938.20833
766.431	2972.875
770.084	2977.20833
773.734	3008.875
777.382	3056.20833
781.027	3060.20833
784.669	3095.20833
788.308	3097.20833
791.944	3124.20833
795.577	3172.875
799.208	3178.54167
802.835	3212.875
806.46	3258.875
810.082	3269.875
813.701	3301.20833
817.317	3331.20833
820.931	3337.20833
824.542	3318.54167
828.149	3282.54167
831.754	3239.875
835.357	3224.20833
838.956	3208.20833
842.553	3175.20833
846.146	3153.54167
849.737	3150.875
853.326	3127.54167
856.911	3162.20833
860.493	3229.20833
864.073	3220.54167
867.65	3274.20833
871.225	3305.20833
874.796	3272.54167
878.365	3333.20833
881.931	3324.875
885.494	3322.54167
889.054	3315.875
892.612	3352.875
896.166	3294.875
899.719	3257.20833
903.268	3255.20833
906.814	3259.875
910.358	3252.20833
913.899	3234.20833
917.438	3248.54167
920.973	3219.875
924.506	3247.20833
928.036	3283.20833
931.564	3339.20833
935.088	3355.20833
938.61	3380.54167
942.129	3424.20833
945.646	3469.20833
949.16	3552.54167
952.671	3626.875
956.179	3704.20833
959.685	3680.54167
963.188	3675.54167
966.688	3675.20833
970.185	3559.54167
973.68	3490.875
977.173	3465.54167
980.662	3444.54167
984.149	3461.20833
987.633	3473.875
991.114	3515.20833
994.593	3617.20833
998.069	3712.875
1001.542	3852.20833
1005.013	3739.20833
1008.481	3545.20833
1011.947	3497.20833
1015.409	3484.20833
1018.869	3488.54167
1022.327	3424.54167
1025.782	3467.54167
1029.234	3447.20833
1032.683	3437.54167
1036.13	3318.875
1039.574	3185.875
1043.016	3135.20833
1046.455	3063.20833
1049.891	3020.54167
1053.325	3019.875
1056.756	3009.875
1060.184	3052.54167
1063.61	3051.875
1067.033	3049.875
1070.454	3075.54167
1073.872	3088.875
1077.287	3109.54167
1080.7	3091.20833
1084.11	3126.875
1087.517	3084.875
1090.922	3033.20833
1094.325	3010.875
1097.724	2962.20833
1101.122	2981.875
1104.516	2952.54167
1107.908	2988.54167
1111.298	3015.875
1114.684	3056.875
1118.069	3078.875
1121.45	3101.54167
1124.83	3086.20833
1128.206	3109.875
1131.58	3130.20833
1134.951	3200.20833
1138.32	3303.875
1141.687	3421.875
1145.05	3508.54167
1148.412	3555.54167
1151.77	3543.20833
1155.126	3528.20833
1158.48	3543.875
1161.831	3549.20833
1165.18	3558.875
1168.525	3613.54167
1171.869	3638.54167
1175.21	3674.54167
1178.548	3751.54167
1181.884	3771.20833
1185.217	3823.20833
1188.548	3846.54167
1191.877	3926.54167
1195.202	3990.20833
1198.526	4060.20833
1201.846	4080.20833
1205.165	4080.54167
1208.48	4038.20833
1211.794	4032.54167
1215.104	4050.20833
1218.413	4039.20833
1221.719	3997.54167
1225.022	4003.54167
1228.323	3948.20833
1231.621	3930.875
1234.917	3908.54167
1238.21	3935.20833
1241.501	3929.20833
1244.79	3920.875
1248.076	3916.20833
1251.359	3983.20833
1254.64	4066.875
1257.919	4067.20833
1261.195	4125.875
1264.468	4180.875
1267.74	4271.54167
1271.008	4273.875
1274.275	4245.20833
1277.538	4218.54167
1280.8	4216.54167
1284.059	4211.20833
1287.315	4231.20833
1290.569	4275.54167
1293.821	4291.20833
1297.07	4325.54167
1300.317	4320.20833
1303.562	4303.20833
1306.803	4288.875
1310.043	4226.20833
1313.28	4173.875
1316.515	4169.875
1319.747	4132.20833
1322.977	4098.875
1326.204	4070.54167
1329.429	3983.20833
1332.652	3996.54167
1335.872	3988.875
1339.09	3981.875
1342.306	3990.875
1345.519	3935.54167
1348.729	3922.54167
1351.938	3917.54167
1355.144	3863.54167
1358.347	3795.54167
1361.548	3801.875
1364.747	3809.20833
1367.944	3806.20833
1371.138	3827.875
1374.329	3848.20833
1377.518	3868.54167
1380.705	3916.54167
1383.89	3873.20833
1387.072	3806.54167
1390.252	3672.875
1393.429	3530.54167
1396.605	3392.875
1399.777	3317.875
1402.948	3304.20833
1406.116	3266.20833
1409.282	3265.875
1412.445	3227.54167
1415.606	3283.20833
1418.765	3340.54167
1421.921	3356.54167
1425.075	3465.875
1428.227	3555.20833
1431.376	3735.20833
1434.524	3901.875
1437.668	3981.54167
1440.811	4018.875
1443.951	4043.54167
1447.089	4050.54167
1450.224	4056.20833
1453.357	4022.54167
1456.488	3983.875
1459.617	3919.54167
1462.743	3864.20833
1465.867	3767.54167
1468.989	3741.875
1472.108	3672.875
1475.225	3624.20833
1478.34	3589.875
1481.453	3577.20833
1484.563	3601.875
1487.671	3625.54167
1490.776	3642.54167
1493.88	3744.20833
1496.981	3818.20833
1500.08	3898.20833
1503.176	3930.875
1506.271	4021.20833
1509.363	4098.20833
1512.452	4110.54167
1515.54	4199.875
1518.625	4316.20833
1521.708	4489.875
1524.789	4740.54167
1527.867	5067.20833
1530.944	5400.20833
1534.018	5577.20833
1537.089	5643.875
1540.159	5565.20833
1543.226	5365.875
1546.291	5136.20833
1549.354	4991.54167
1552.415	4830.54167
1555.473	4695.54167
1558.529	4589.54167
1561.583	4551.875
1564.634	4505.875
1567.684	4540.875
1570.731	4557.875
1573.776	4573.875
1576.819	4658.54167
1579.859	4712.875
1582.898	4752.875
1585.934	4818.54167
1588.968	4801.20833
1591.999	4775.20833
1595.029	4797.875
1598.056	4839.54167
1601.081	4864.54167
1604.104	4859.875
1607.125	4814.20833
1610.144	4726.875
1613.16	4669.54167
1616.174	4580.875
1619.186	4488.20833
1622.196	4435.20833
1625.203	4341.875
1628.209	4285.875
1631.212	4317.54167
1634.213	4267.20833
1637.212	4286.54167
1640.209	4197.54167
1643.203	4123.875
1646.196	3989.54167
1649.186	3833.20833
1652.174	3752.875
1655.16	3629.875
1658.144	3522.54167
1661.125	3365.875
1664.105	3205.54167
1667.082	3072.54167
1670.057	2912.54167
1673.03	2707.20833
1676.001	2546.875
1678.97	2357.54167
1681.937	2232.20833
1684.901	2076.875
1687.863	2025.54167
1690.824	1926.875
1693.782	1902.875
1696.738	1830.20833
1699.692	1799.20833
1702.643	1739.875
1705.593	1722.54167
1708.54	1729.20833
1711.486	1699.54167
1714.429	1671.54167
1717.37	1647.54167
1720.309	1628.875
1723.246	1608.875
1726.181	1582.875
1729.113	1593.875
1732.044	1557.54167
1734.972	1560.875
1737.899	1543.20833
1740.823	1547.875
1743.745	1506.54167
1746.665	1496.20833
1749.583	1463.875
1752.499	1463.20833
1755.413	1442.875
1758.325	1405.875
1761.235	1408.875
1764.142	1387.20833
1767.048	1361.54167
1769.951	1361.54167
1772.852	1353.20833
1775.752	1336.875
1778.649	1345.875
1781.544	1340.875
1784.437	1308.20833
1787.328	1310.54167
1790.217	1297.875
1793.104	1273.20833
1795.989	1276.875
1798.872	1266.875
1801.753	1289.54167
1804.631	1294.875
1807.508	1288.20833
1810.383	1283.875
1813.255	1256.875
1816.126	1260.20833
1818.994	1259.54167
1821.861	1237.54167
1824.725	1246.20833
1827.587	1241.20833
1830.448	1236.54167
1833.306	1209.20833
1836.162	1210.875
1839.017	1203.875
1841.869	1214.20833
1844.719	1199.54167
1847.567	1196.20833
1850.414	1175.20833
1853.258	1181.20833
1856.1	1191.20833
1858.94	1215.54167
1861.778	1195.875
1864.614	1171.54167
1867.448	1186.875
1870.28	1183.20833
1873.111	1197.54167
1875.939	1192.54167
1878.765	1191.875
1881.589	1163.875
1884.411	1163.54167
1887.231	1177.875
1890.049	1161.20833
1892.865	1159.875
1895.68	1145.875
1898.492	1152.54167
1901.302	1142.20833
1904.11	1140.875
1906.916	1124.54167
1909.721	1110.875
1912.523	1121.54167
1915.323	1116.54167
1918.122	1124.875
1920.918	1105.54167
1923.712	1112.54167
1926.505	1126.54167
1929.295	1100.54167
1932.084	1102.20833
1934.87	1103.20833
1937.655	1090.875
1940.438	1108.54167
1943.218	1099.875
1945.997	1104.875
1948.774	1110.875
1951.549	1104.20833
1954.322	1089.875
1957.093	1094.54167
1959.862	1082.875
1962.629	1080.54167
1965.394	1074.875
1968.157	1064.20833
1970.918	1058.54167
1973.678	1077.54167
1976.435	1061.20833
1979.19	1046.54167
1981.944	1052.54167
1984.696	1028.875
1987.445	1031.54167
1990.193	1045.875
1992.939	1060.20833
1995.683	1035.875
1998.425	1013.875
2001.165	1051.875
2003.903	1024.20833
2006.639	1025.54167
2009.374	1016.54167
2012.106	1027.54167
2014.837	998.20833
2017.566	1029.875
2020.292	1031.54167
2023.017	1018.20833
2025.74	995.54167
2028.461	1004.875
2031.18	1008.20833
2033.898	1012.875
2036.613	998.875
2039.327	1006.20833
2042.038	985.54167
2044.748	995.54167
2047.456	996.875
2050.162	977.20833
2052.866	981.54167
2055.568	985.875
2058.268	981.20833
2060.967	993.875
2063.663	975.875
2066.358	986.54167
2069.051	962.54167
2071.742	984.54167
2074.431	979.20833
2077.118	963.54167
2079.804	966.875
2082.487	962.20833
2085.169	978.875
2087.849	984.875
2090.527	966.875
2093.203	980.54167
2095.877	993.20833
2098.55	974.54167
2101.22	994.54167
2103.889	997.20833
2106.556	976.20833
2109.221	1003.20833
2111.884	1010.875
2114.546	1065.20833
2117.205	1102.54167
2119.863	1169.20833
2122.519	1231.54167
2125.173	1307.20833
2127.825	1400.54167
2130.475	1435.54167
2133.124	1407.875
2135.771	1391.54167
2138.416	1352.875
2141.059	1283.20833
2143.7	1251.20833
2146.339	1199.20833
2148.977	1145.54167
2151.613	1144.54167
2154.247	1100.875
2156.879	1091.20833
2159.51	1081.875
2162.138	1062.54167
2164.765	1078.20833
2167.39	1061.20833
2170.013	1081.20833
2172.634	1077.20833
2175.254	1079.20833
2177.872	1094.20833
2180.488	1051.20833
2183.102	1052.54167
2185.714	1043.20833
2188.325	1018.54167
2190.934	992.875
2193.541	994.875
2196.146	987.54167
2198.75	943.20833
2201.351	930.875
2203.951	910.20833
2206.549	926.54167
2209.146	908.54167
2211.74	895.54167
2214.333	906.20833
2216.924	880.54167
2219.514	873.54167
2222.101	863.54167
2224.687	882.54167
2227.271	859.875
2229.853	855.875
2232.433	862.875
2235.012	867.54167
2237.589	873.875
2240.164	872.20833
2242.738	853.875
2245.309	838.20833
2247.879	846.875
2250.448	850.875
2253.014	811.54167
2255.579	802.875
2258.142	804.20833
2260.703	800.54167
2263.262	791.54167
2265.82	803.54167
2268.376	788.875
2270.93	783.875
2273.483	771.875
2276.033	777.54167
2278.583	764.875
2281.13	772.875
2283.675	761.54167
2286.219	766.54167
2288.761	769.875
2291.302	762.20833
2293.841	754.54167
2296.377	744.20833
2298.913	744.54167
2301.446	753.875
2303.978	746.875
2306.508	735.875
2309.037	742.20833
2311.563	735.20833
2314.088	736.54167
2316.612	716.20833
2319.133	735.20833
2321.653	725.875
2324.171	715.54167
2326.688	725.875
2329.202	710.54167
2331.715	727.20833
2334.227	720.875
2336.736	705.54167
2339.244	702.20833
2341.751	703.54167
2344.255	714.54167
2346.758	696.875
2349.259	683.875
2351.759	699.54167
2354.257	692.20833
2356.753	689.54167
2359.247	698.54167
2361.74	701.875
2364.231	680.875
2366.721	695.20833
2369.209	685.20833
2371.695	685.875
2374.179	675.875
2376.662	674.54167
2379.143	691.20833
2381.622	675.875
2384.1	682.875
2386.576	674.20833
2389.051	686.875
2391.524	694.20833
2393.995	686.20833
2396.464	675.875
2398.932	653.20833
2401.398	672.875
2403.863	663.54167
2406.325	665.54167
2408.787	654.20833
2411.246	659.875
2413.704	659.54167
2416.16	651.875
2418.615	659.54167
2421.068	670.54167
2423.519	659.20833
2425.969	666.20833
2428.417	667.20833
2430.863	678.20833
2433.308	654.20833
2435.751	668.54167
2438.193	647.875
2440.633	660.875
2443.071	649.875
2445.508	637.54167
2447.943	651.875
2450.376	631.54167
2452.808	642.875
2455.238	630.875
2457.667	652.20833
2460.093	645.54167
2462.519	627.54167
2464.942	624.20833
2467.365	647.20833
2469.785	648.875
2472.204	625.875
2474.621	633.875
2477.037	659.875
2479.451	613.875
2481.863	624.875
2484.274	618.875
2486.683	620.20833
2489.091	631.875
2491.497	621.20833
2493.901	621.54167
2496.304	615.20833
2498.705	619.875
2501.105	614.875
2503.503	638.54167
2505.899	611.20833
2508.294	635.20833
2510.687	606.875
2513.079	607.54167
2515.469	603.20833
2517.858	600.54167
2520.245	627.54167
2522.63	608.54167
2525.014	597.20833
2527.396	610.20833
2529.776	594.875
2532.156	611.20833
2534.533	582.875
2536.909	603.875
2539.283	589.54167
2541.656	596.875
2544.027	622.875
2546.397	620.20833
2548.765	607.20833
2551.131	598.875
2553.496	599.20833
2555.86	598.20833
2558.221	592.875
2560.582	592.54167
2562.94	581.20833
2565.298	593.54167
2567.653	608.875
2570.007	583.875
2572.36	601.54167
2574.711	583.875
2577.06	609.20833
2579.408	589.20833
2581.754	592.875
2584.099	597.20833
2586.442	582.875
2588.784	590.54167
2591.124	592.875
2593.463	587.875
2595.8	587.875
2598.135	585.20833
2600.469	584.875
2602.802	600.20833
2605.133	598.875
2607.462	568.875
2609.79	574.54167
2612.116	582.875
2614.441	592.54167
2616.764	586.20833
2619.086	591.20833
2621.406	577.54167
2623.725	592.54167
2626.042	582.20833
2628.358	588.875
2630.672	584.20833
2632.985	601.875
2635.296	586.20833
2637.606	584.54167
2639.914	582.54167
2642.22	588.54167
2644.525	582.54167
2646.829	593.875
2649.131	597.54167
2651.432	597.20833
2653.731	592.54167
2656.028	604.20833
2658.324	595.54167
2660.619	589.20833
2662.912	602.875
2665.204	586.20833
2667.494	602.54167
2669.782	583.875
2672.07	599.20833
2674.355	608.875
2676.639	597.54167
2678.922	586.20833
2681.203	594.54167
2683.483	576.875
2685.761	581.875
2688.038	599.20833
2690.313	611.875
2692.587	600.20833
2694.859	592.20833
2697.13	600.20833
2699.399	611.54167
2701.667	615.20833
2703.933	625.20833
2706.198	616.875
2708.461	613.54167
2710.723	637.20833
2712.984	627.875
2715.243	632.20833
2717.5	621.20833
2719.757	640.54167
2722.011	633.54167
2724.264	640.875
2726.516	645.54167
2728.766	638.875
2731.015	647.20833
2733.262	649.54167
2735.508	635.875
2737.753	637.20833
2739.996	617.875
2742.237	623.20833
2744.477	627.20833
2746.716	622.875
2748.953	615.20833
2751.189	625.875
2753.423	607.875
2755.656	601.54167
2757.887	600.875
2760.117	595.54167
2762.346	596.875
2764.573	590.54167
2766.798	587.875
2769.022	608.54167
2771.245	587.20833
2773.467	597.54167
2775.686	601.20833
2777.905	599.54167
2780.122	605.20833
2782.337	602.54167
2784.552	604.875
2786.764	624.54167
2788.976	626.20833
2791.186	636.20833
2793.394	634.20833
2795.601	649.54167
2797.807	651.54167
2800.011	655.20833
2802.214	665.54167
2804.415	666.875
2806.615	668.875
2808.814	677.875
2811.011	692.20833
2813.206	677.20833
2815.401	689.20833
2817.594	703.875
2819.785	718.54167
2821.975	717.54167
2824.164	732.20833
2826.351	739.54167
2828.537	767.20833
2830.722	781.20833
2832.905	783.875
2835.086	824.20833
2837.267	879.20833
2839.445	897.20833
2841.623	923.20833
2843.799	972.54167
2845.974	1024.875
2848.147	1055.875
2850.319	1084.20833
2852.489	1137.54167
2854.659	1138.20833
2856.826	1166.875
2858.993	1181.875
2861.158	1179.875
2863.321	1180.20833
2865.483	1199.54167
2867.644	1187.54167
2869.804	1196.20833
2871.962	1195.54167
2874.118	1201.54167
2876.274	1202.20833
2878.428	1206.54167
2880.58	1188.875
2882.731	1170.875
2884.881	1188.875
2887.03	1181.20833
2889.177	1174.54167
2891.322	1205.875
2893.467	1199.875
2895.61	1217.54167
2897.751	1236.875
2899.892	1223.20833
2902.03	1248.20833
2904.168	1255.20833
2906.304	1265.54167
2908.439	1273.20833
2910.572	1246.54167
2912.704	1282.54167
2914.835	1284.20833
2916.965	1272.54167
2919.093	1290.875
2921.219	1257.54167
2923.345	1280.875
2925.469	1247.54167
2927.591	1229.875
2929.712	1197.20833
2931.832	1179.875
2933.951	1164.20833
2936.068	1125.875
2938.184	1107.20833
2940.299	1072.20833
2942.412	1037.54167
2944.524	984.20833
2946.634	985.20833
2948.744	917.875
2950.851	947.875
2952.958	884.54167
2955.063	881.875
2957.167	873.20833
2959.269	820.54167
2961.371	847.875
2963.471	787.54167
2965.569	802.54167
2967.666	770.54167
2969.762	751.20833
2971.857	733.54167
2973.95	705.875
2976.042	706.54167
2978.133	685.875
2980.222	660.875
2982.31	647.875
2984.396	627.54167
2986.482	628.54167
2988.566	625.54167
2990.648	608.875
2992.73	603.54167
2994.81	586.875
2996.889	596.20833
2998.966	586.20833
3001.042	587.875
3003.117	584.54167
3005.191	591.20833
3007.263	570.20833
3009.334	556.54167
3011.403	555.54167
3013.472	531.875
3015.539	540.875
3017.604	543.54167
3019.669	504.54167
3021.732	515.54167
3023.794	525.54167
3025.854	500.54167
3027.914	503.54167
3029.971	510.54167
3032.028	503.54167
3034.083	502.54167
3036.137	488.54167
3038.19	473.20833
3040.242	469.875
3042.292	464.54167
3044.341	455.54167
3046.388	461.875
3048.435	439.20833
3050.48	454.875
3052.524	454.875
3054.566	426.20833
3056.607	451.54167
3058.647	429.54167
3060.686	404.54167
3062.723	396.20833
3064.759	395.54167
3066.794	1.54167
3068.828	-0.79167
3070.86	-3.45833
