-0.839	450.875
3.438	487.54167
7.711	136.54167
11.981	56.875
16.247	47.875
20.509	47.875
24.768	43.875
29.024	45.20833
33.276	46.20833
37.524	48.20833
41.769	42.875
46.01	39.54167
50.247	51.875
54.481	68.54167
58.712	69.875
62.939	51.20833
67.162	62.20833
71.382	59.20833
75.599	50.20833
79.812	68.20833
84.021	87.875
88.227	65.54167
92.429	68.20833
96.628	57.20833
100.823	70.20833
105.015	83.20833
109.204	87.20833
113.388	81.54167
117.57	80.875
121.748	99.20833
125.922	89.875
130.093	113.54167
134.261	121.875
138.425	116.20833
142.585	158.20833
146.742	161.54167
150.896	195.875
155.046	245.20833
159.193	386.20833
163.336	675.54167
167.476	1231.20833
171.613	2303.20833
175.746	3814.20833
179.875	5625.20833
184.002	7333.54167
188.124	8402.20833
192.244	8727.54167
196.36	8670.20833
200.472	8505.875
204.581	8280.20833
208.687	8148.54167
212.79	8079.875
216.889	8112.54167
220.984	8171.54167
225.077	8282.54167
229.165	8391.875
233.251	8525.875
237.333	8604.20833
241.412	8662.54167
245.487	8666.54167
249.559	8587.875
253.628	8509.875
257.694	8426.20833
261.756	8318.20833
265.814	8193.875
269.87	8005.54167
273.922	7732.54167
277.97	7422.54167
282.016	7126.875
286.058	6910.20833
290.097	6707.20833
294.132	6631.875
298.164	6574.54167
302.193	6435.875
306.219	6073.20833
310.241	5561.875
314.26	5047.875
318.276	4607.20833
322.288	4263.54167
326.297	4036.20833
330.303	3866.54167
334.305	3761.54167
338.305	3645.875
342.301	3603.54167
346.294	3542.875
350.283	3502.875
354.269	3479.54167
358.252	3479.20833
362.232	3450.875
366.209	3413.875
370.182	3379.875
374.152	3378.875
378.119	3376.54167
382.083	3376.20833
386.043	3407.20833
390	3353.20833
393.954	3358.20833
397.905	3296.54167
401.852	3295.54167
405.797	3223.20833
409.738	3169.20833
413.676	3182.20833
417.61	3140.54167
421.542	3102.54167
425.47	3024.54167
429.396	3033.20833
433.318	2973.20833
437.236	2980.875
441.152	3003.20833
445.065	2918.54167
448.974	2904.54167
452.88	2870.875
456.783	2858.20833
460.683	2844.20833
464.58	2860.875
468.473	2836.875
472.364	2850.875
476.251	2864.54167
480.135	2866.20833
484.016	2894.54167
487.894	2910.20833
491.769	2891.875
495.641	2915.875
499.509	2897.875
503.375	2918.20833
507.237	2918.54167
511.096	2892.875
514.952	2904.54167
518.805	2905.875
522.655	2929.875
526.502	2869.875
530.346	2877.54167
534.187	2879.54167
538.024	2914.54167
541.859	2909.20833
545.69	2938.20833
549.519	2904.20833
553.344	2866.875
557.166	2837.54167
560.985	2833.875
564.802	2750.20833
568.615	2742.54167
572.425	2676.54167
576.232	2676.20833
580.036	2671.20833
583.836	2667.875
587.634	2678.20833
591.429	2670.875
595.221	2724.20833
599.01	2728.20833
602.796	2772.54167
606.578	2805.54167
610.358	2816.875
614.135	2794.875
617.909	2808.875
621.679	2811.54167
625.447	2768.20833
629.212	2772.54167
632.973	2757.20833
636.732	2731.875
640.488	2769.875
644.241	2730.54167
647.991	2750.20833
651.737	2746.54167
655.481	2760.875
659.222	2791.20833
662.96	2780.20833
666.695	2795.54167
670.427	2799.54167
674.156	2797.20833
677.882	2778.54167
681.605	2756.875
685.325	2753.54167
689.043	2761.54167
692.757	2755.20833
696.468	2743.54167
700.177	2763.54167
703.882	2737.20833
707.585	2724.54167
711.284	2720.20833
714.981	2746.20833
718.675	2732.20833
722.366	2722.20833
726.054	2696.875
729.739	2713.54167
733.421	2725.875
737.1	2706.875
740.777	2722.20833
744.45	2758.20833
748.121	2770.54167
751.789	2830.54167
755.453	2796.20833
759.115	2828.54167
762.774	2876.875
766.431	2892.20833
770.084	2913.875
773.734	2967.54167
777.382	2992.54167
781.027	3011.20833
784.669	3026.54167
788.308	3059.20833
791.944	3080.20833
795.577	3068.20833
799.208	3108.875
802.835	3133.875
806.46	3182.875
810.082	3238.20833
813.701	3243.20833
817.317	3293.875
820.931	3278.54167
824.542	3250.875
828.149	3221.54167
831.754	3180.20833
835.357	3162.20833
838.956	3160.875
842.553	3136.54167
846.146	3118.875
849.737	3118.54167
853.326	3118.20833
856.911	3108.20833
860.493	3196.54167
864.073	3184.54167
867.65	3252.875
871.225	3284.54167
874.796	3266.875
878.365	3281.875
881.931	3291.54167
885.494	3308.875
889.054	3313.875
892.612	3329.875
896.166	3263.20833
899.719	3244.20833
903.268	3232.875
906.814	3242.20833
910.358	3199.54167
913.899	3213.54167
917.438	3183.875
920.973	3205.54167
924.506	3231.54167
928.036	3278.875
931.564	3321.20833
935.088	3357.875
938.61	3350.875
942.129	3374.54167
945.646	3459.20833
949.16	3540.54167
952.671	3626.20833
956.179	3693.875
959.685	3689.875
963.188	3688.54167
966.688	3657.20833
970.185	3548.20833
973.68	3452.20833
977.173	3398.20833
980.662	3378.875
984.149	3362.875
987.633	3409.875
991.114	3447.875
994.593	3532.20833
998.069	3669.20833
1001.542	3797.54167
1005.013	3715.20833
1008.481	3510.54167
1011.947	3446.875
1015.409	3418.54167
1018.869	3431.875
1022.327	3393.54167
1025.782	3380.875
1029.234	3400.20833
1032.683	3374.20833
1036.13	3255.20833
1039.574	3124.875
1043.016	3042.875
1046.455	3003.54167
1049.891	2940.54167
1053.325	2967.54167
1056.756	2967.20833
1060.184	2980.875
1063.61	2987.20833
1067.033	2990.875
1070.454	2988.875
1073.872	3032.20833
1077.287	3053.20833
1080.7	3033.875
1084.11	3034.20833
1087.517	2999.20833
1090.922	2973.20833
1094.325	2948.875
1097.724	2910.20833
1101.122	2915.54167
1104.516	2900.875
1107.908	2934.875
1111.298	2976.875
1114.684	2991.875
1118.069	3033.54167
1121.45	3073.20833
1124.83	3043.875
1128.206	3064.20833
1131.58	3120.20833
1134.951	3234.20833
1138.32	3331.54167
1141.687	3447.20833
1145.05	3566.54167
1148.412	3606.20833
1151.77	3585.875
1155.126	3588.875
1158.48	3556.20833
1161.831	3572.875
1165.18	3625.20833
1168.525	3647.54167
1171.869	3686.54167
1175.21	3709.20833
1178.548	3763.20833
1181.884	3810.20833
1185.217	3814.875
1188.548	3881.20833
1191.877	3940.54167
1195.202	4046.875
1198.526	4113.875
1201.846	4108.20833
1205.165	4081.54167
1208.48	4064.54167
1211.794	4043.54167
1215.104	4037.20833
1218.413	4049.20833
1221.719	4027.54167
1225.022	3983.20833
1228.323	3935.54167
1231.621	3961.875
1234.917	3922.20833
1238.21	3939.20833
1241.501	3903.20833
1244.79	3918.875
1248.076	3904.875
1251.359	3932.875
1254.64	4009.54167
1257.919	4014.20833
1261.195	4100.20833
1264.468	4181.54167
1267.74	4294.20833
1271.008	4283.54167
1274.275	4285.875
1277.538	4214.20833
1280.8	4207.20833
1284.059	4208.54167
1287.315	4248.875
1290.569	4267.20833
1293.821	4292.20833
1297.07	4291.54167
1300.317	4347.54167
1303.562	4318.54167
1306.803	4283.20833
1310.043	4290.20833
1313.28	4196.20833
1316.515	4183.20833
1319.747	4144.20833
1322.977	4124.54167
1326.204	4044.54167
1329.429	3993.20833
1332.652	3990.875
1335.872	3992.875
1339.09	3915.875
1342.306	3955.54167
1345.519	3897.20833
1348.729	3863.20833
1351.938	3846.20833
1355.144	3788.875
1358.347	3714.54167
1361.548	3736.54167
1364.747	3724.20833
1367.944	3746.54167
1371.138	3764.20833
1374.329	3771.54167
1377.518	3796.20833
1380.705	3860.875
1383.89	3831.875
1387.072	3773.20833
1390.252	3619.875
1393.429	3467.54167
1396.605	3369.20833
1399.777	3248.20833
1402.948	3190.875
1406.116	3204.54167
1409.282	3206.54167
1412.445	3186.20833
1415.606	3210.875
1418.765	3243.875
1421.921	3300.54167
1425.075	3388.875
1428.227	3478.875
1431.376	3666.20833
1434.524	3852.20833
1437.668	3933.875
1440.811	3958.875
1443.951	4006.20833
1447.089	4012.875
1450.224	4014.54167
1453.357	4000.875
1456.488	3993.20833
1459.617	3906.875
1462.743	3832.875
1465.867	3781.20833
1468.989	3733.54167
1472.108	3707.875
1475.225	3615.20833
1478.34	3605.54167
1481.453	3597.54167
1484.563	3603.875
1487.671	3676.20833
1490.776	3714.54167
1493.88	3782.20833
1496.981	3862.20833
1500.08	3959.20833
1503.176	4007.54167
1506.271	4054.20833
1509.363	4151.54167
1512.452	4142.20833
1515.54	4256.875
1518.625	4352.20833
1521.708	4552.54167
1524.789	4785.875
1527.867	5072.875
1530.944	5331.875
1534.018	5513.54167
1537.089	5622.875
1540.159	5496.54167
1543.226	5315.54167
1546.291	5161.20833
1549.354	4957.54167
1552.415	4858.54167
1555.473	4748.54167
1558.529	4670.20833
1561.583	4601.54167
1564.634	4579.20833
1567.684	4616.20833
1570.731	4641.875
1573.776	4707.54167
1576.819	4753.54167
1579.859	4830.54167
1582.898	4910.875
1585.934	4916.20833
1588.968	4932.54167
1591.999	4908.54167
1595.029	4911.875
1598.056	4924.875
1601.081	4939.875
1604.104	4905.875
1607.125	4886.875
1610.144	4805.54167
1613.16	4707.875
1616.174	4614.875
1619.186	4555.20833
1622.196	4474.875
1625.203	4356.875
1628.209	4331.54167
1631.212	4302.875
1634.213	4308.54167
1637.212	4300.54167
1640.209	4215.875
1643.203	4108.875
1646.196	3922.875
1649.186	3774.875
1652.174	3628.875
1655.16	3536.875
1658.144	3404.20833
1661.125	3270.20833
1664.105	3095.875
1667.082	2921.875
1670.057	2747.54167
1673.03	2597.20833
1676.001	2453.875
1678.97	2239.875
1681.937	2111.875
1684.901	2008.20833
1687.863	1919.20833
1690.824	1839.875
1693.782	1810.20833
1696.738	1749.20833
1699.692	1691.54167
1702.643	1675.20833
1705.593	1625.875
1708.54	1609.875
1711.486	1614.54167
1714.429	1570.54167
1717.37	1564.20833
1720.309	1540.20833
1723.246	1539.54167
1726.181	1488.54167
1729.113	1519.54167
1732.044	1484.875
1734.972	1474.20833
1737.899	1468.875
1740.823	1450.875
1743.745	1430.54167
1746.665	1394.875
1749.583	1387.20833
1752.499	1372.54167
1755.413	1349.54167
1758.325	1326.20833
1761.235	1314.54167
1764.142	1285.20833
1767.048	1284.875
1769.951	1265.20833
1772.852	1255.20833
1775.752	1267.20833
1778.649	1261.875
1781.544	1257.875
1784.437	1217.54167
1787.328	1243.54167
1790.217	1230.54167
1793.104	1207.54167
1795.989	1181.20833
1798.872	1199.20833
1801.753	1219.54167
1804.631	1207.875
1807.508	1192.20833
1810.383	1196.875
1813.255	1176.54167
1816.126	1184.875
1818.994	1164.54167
1821.861	1158.875
1824.725	1178.54167
1827.587	1151.20833
1830.448	1157.54167
1833.306	1130.20833
1836.162	1127.20833
1839.017	1123.875
1841.869	1121.875
1844.719	1115.875
1847.567	1088.20833
1850.414	1094.20833
1853.258	1101.54167
1856.1	1116.20833
1858.94	1121.20833
1861.778	1105.54167
1864.614	1086.20833
1867.448	1093.20833
1870.28	1087.20833
1873.111	1115.54167
1875.939	1098.875
1878.765	1114.54167
1881.589	1085.20833
1884.411	1083.20833
1887.231	1094.875
1890.049	1078.875
1892.865	1079.20833
1895.68	1050.20833
1898.492	1077.875
1901.302	1039.20833
1904.11	1063.875
1906.916	1054.20833
1909.721	1056.20833
1912.523	1047.54167
1915.323	1025.875
1918.122	1037.20833
1920.918	1048.875
1923.712	1043.875
1926.505	1027.875
1929.295	1019.54167
1932.084	1025.875
1934.87	1029.54167
1937.655	1002.875
1940.438	1010.54167
1943.218	1011.875
1945.997	1020.54167
1948.774	1051.20833
1951.549	1017.20833
1954.322	1008.54167
1957.093	1017.875
1959.862	993.20833
1962.629	989.54167
1965.394	1006.20833
1968.157	981.54167
1970.918	983.875
1973.678	979.20833
1976.435	992.875
1979.19	975.20833
1981.944	971.20833
1984.696	980.54167
1987.445	968.20833
1990.193	970.20833
1992.939	974.875
1995.683	968.54167
1998.425	951.20833
2001.165	971.54167
2003.903	937.875
2006.639	957.20833
2009.374	952.20833
2012.106	956.875
2014.837	933.875
2017.566	970.54167
2020.292	947.20833
2023.017	945.20833
2025.74	932.20833
2028.461	936.875
2031.18	946.875
2033.898	923.54167
2036.613	928.54167
2039.327	945.875
2042.038	902.20833
2044.748	930.20833
2047.456	919.20833
2050.162	893.20833
2052.866	888.54167
2055.568	916.54167
2058.268	906.20833
2060.967	906.54167
2063.663	892.20833
2066.358	893.875
2069.051	892.20833
2071.742	899.20833
2074.431	895.20833
2077.118	884.875
2079.804	889.20833
2082.487	884.875
2085.169	894.20833
2087.849	907.54167
2090.527	893.54167
2093.203	893.54167
2095.877	894.20833
2098.55	901.54167
2101.22	911.875
2103.889	918.54167
2106.556	897.54167
2109.221	913.20833
2111.884	923.54167
2114.546	972.20833
2117.205	985.54167
2119.863	1033.54167
2122.519	1085.54167
2125.173	1160.54167
2127.825	1237.875
2130.475	1266.20833
2133.124	1285.875
2135.771	1255.54167
2138.416	1214.875
2141.059	1144.54167
2143.7	1112.54167
2146.339	1068.54167
2148.977	996.54167
2151.613	994.875
2154.247	973.20833
2156.879	956.54167
2159.51	953.20833
2162.138	938.20833
2164.765	947.54167
2167.39	948.54167
2170.013	947.20833
2172.634	950.54167
2175.254	943.20833
2177.872	978.875
2180.488	932.20833
2183.102	936.54167
2185.714	911.20833
2188.325	876.54167
2190.934	896.875
2193.541	883.20833
2196.146	872.54167
2198.75	852.54167
2201.351	845.54167
2203.951	822.54167
2206.549	838.54167
2209.146	817.875
2211.74	827.54167
2214.333	822.54167
2216.924	804.54167
2219.514	814.875
2222.101	792.54167
2224.687	799.20833
2227.271	798.54167
2229.853	789.875
2232.433	779.20833
2235.012	807.20833
2237.589	789.875
2240.164	803.20833
2242.738	796.54167
2245.309	769.54167
2247.879	776.20833
2250.448	770.20833
2253.014	749.875
2255.579	732.875
2258.142	734.20833
2260.703	726.875
2263.262	714.20833
2265.82	719.875
2268.376	733.20833
2270.93	697.875
2273.483	707.20833
2276.033	702.54167
2278.583	694.54167
2281.13	695.875
2283.675	677.20833
2286.219	687.20833
2288.761	692.875
2291.302	701.875
2293.841	698.20833
2296.377	677.20833
2298.913	684.54167
2301.446	676.20833
2303.978	663.875
2306.508	674.875
2309.037	670.54167
2311.563	664.54167
2314.088	680.54167
2316.612	657.875
2319.133	660.20833
2321.653	657.20833
2324.171	637.20833
2326.688	664.20833
2329.202	652.54167
2331.715	656.20833
2334.227	651.54167
2336.736	649.54167
2339.244	647.875
2341.751	630.875
2344.255	648.875
2346.758	628.875
2349.259	631.875
2351.759	622.875
2354.257	616.875
2356.753	629.54167
2359.247	624.54167
2361.74	625.875
2364.231	619.54167
2366.721	636.20833
2369.209	612.875
2371.695	605.54167
2374.179	611.875
2376.662	602.20833
2379.143	631.875
2381.622	617.54167
2384.1	628.875
2386.576	608.54167
2389.051	613.54167
2391.524	624.20833
2393.995	627.20833
2396.464	599.875
2398.932	595.54167
2401.398	598.54167
2403.863	597.54167
2406.325	593.20833
2408.787	591.20833
2411.246	590.20833
2413.704	592.20833
2416.16	602.54167
2418.615	589.54167
2421.068	596.875
2423.519	609.875
2425.969	585.54167
2428.417	596.875
2430.863	616.20833
2433.308	592.54167
2435.751	591.54167
2438.193	584.20833
2440.633	592.20833
2443.071	584.54167
2445.508	569.20833
2447.943	574.20833
2450.376	565.20833
2452.808	569.875
2455.238	564.875
2457.667	603.875
2460.093	575.54167
2462.519	560.54167
2464.942	564.54167
2467.365	573.54167
2469.785	564.20833
2472.204	572.875
2474.621	549.875
2477.037	581.20833
2479.451	542.54167
2481.863	549.54167
2484.274	547.875
2486.683	552.20833
2489.091	566.20833
2491.497	555.54167
2493.901	552.54167
2496.304	553.54167
2498.705	558.20833
2501.105	555.20833
2503.503	572.875
2505.899	543.20833
2508.294	563.20833
2510.687	548.20833
2513.079	544.875
2515.469	542.54167
2517.858	533.54167
2520.245	554.875
2522.63	538.875
2525.014	540.20833
2527.396	533.20833
2529.776	530.54167
2532.156	544.20833
2534.533	525.875
2536.909	527.875
2539.283	519.875
2541.656	523.20833
2544.027	549.54167
2546.397	541.54167
2548.765	527.875
2551.131	530.54167
2553.496	532.875
2555.86	535.875
2558.221	522.20833
2560.582	525.20833
2562.94	511.20833
2565.298	522.54167
2567.653	539.875
2570.007	499.54167
2572.36	522.54167
2574.711	509.20833
2577.06	532.875
2579.408	521.20833
2581.754	530.20833
2584.099	518.54167
2586.442	520.20833
2588.784	521.20833
2591.124	520.20833
2593.463	515.20833
2595.8	521.20833
2598.135	500.54167
2600.469	506.54167
2602.802	524.54167
2605.133	518.54167
2607.462	507.20833
2609.79	500.875
2612.116	506.54167
2614.441	498.20833
2616.764	510.20833
2619.086	516.20833
2621.406	513.20833
2623.725	521.875
2626.042	514.20833
2628.358	508.20833
2630.672	499.54167
2632.985	522.54167
2635.296	517.54167
2637.606	520.20833
2639.914	498.875
2642.22	513.20833
2644.525	511.875
2646.829	508.54167
2649.131	520.54167
2651.432	533.54167
2653.731	508.54167
2656.028	525.54167
2658.324	521.20833
2660.619	503.54167
2662.912	522.20833
2665.204	510.20833
2667.494	518.54167
2669.782	500.54167
2672.07	514.875
2674.355	524.875
2676.639	515.20833
2678.922	511.875
2681.203	525.875
2683.483	504.20833
2685.761	507.54167
2688.038	520.875
2690.313	534.875
2692.587	519.54167
2694.859	511.20833
2697.13	513.20833
2699.399	522.20833
2701.667	534.875
2703.933	538.20833
2706.198	536.20833
2708.461	540.875
2710.723	545.875
2712.984	540.54167
2715.243	551.20833
2717.5	545.54167
2719.757	550.54167
2722.011	537.54167
2724.264	555.20833
2726.516	570.20833
2728.766	562.875
2731.015	550.54167
2733.262	552.54167
2735.508	547.875
2737.753	553.20833
2739.996	528.875
2742.237	526.875
2744.477	544.875
2746.716	544.20833
2748.953	523.20833
2751.189	545.54167
2753.423	519.54167
2755.656	521.875
2757.887	507.20833
2760.117	512.875
2762.346	501.20833
2764.573	503.875
2766.798	508.20833
2769.022	511.54167
2771.245	506.54167
2773.467	513.54167
2775.686	511.54167
2777.905	512.875
2780.122	520.54167
2782.337	518.54167
2784.552	524.875
2786.764	530.54167
2788.976	532.20833
2791.186	528.875
2793.394	539.54167
2795.601	540.54167
2797.807	548.875
2800.011	555.54167
2802.214	574.54167
2804.415	567.54167
2806.615	570.54167
2808.814	576.875
2811.011	580.875
2813.206	574.20833
2815.401	603.875
2817.594	609.54167
2819.785	620.20833
2821.975	608.875
2824.164	626.875
2826.351	648.54167
2828.537	667.875
2830.722	683.875
2832.905	687.875
2835.086	736.20833
2837.267	782.20833
2839.445	806.20833
2841.623	831.20833
2843.799	870.20833
2845.974	921.20833
2848.147	965.54167
2850.319	992.20833
2852.489	1050.54167
2854.659	1054.54167
2856.826	1068.20833
2858.993	1099.54167
2861.158	1085.20833
2863.321	1098.875
2865.483	1109.54167
2867.644	1121.20833
2869.804	1117.20833
2871.962	1113.54167
2874.118	1126.875
2876.274	1153.875
2878.428	1128.20833
2880.58	1112.54167
2882.731	1101.875
2884.881	1104.875
2887.03	1111.875
2889.177	1092.875
2891.322	1131.20833
2893.467	1108.54167
2895.61	1119.20833
2897.751	1145.875
2899.892	1141.54167
2902.03	1165.20833
2904.168	1166.54167
2906.304	1175.20833
2908.439	1207.20833
2910.572	1191.875
2912.704	1201.54167
2914.835	1212.20833
2916.965	1201.54167
2919.093	1222.875
2921.219	1179.875
2923.345	1195.875
2925.469	1170.20833
2927.591	1164.54167
2929.712	1121.875
2931.832	1130.20833
2933.951	1085.875
2936.068	1059.54167
2938.184	1034.20833
2940.299	1006.875
2942.412	971.20833
2944.524	927.875
2946.634	915.875
2948.744	846.875
2950.851	869.20833
2952.958	814.54167
2955.063	807.54167
2957.167	773.875
2959.269	750.20833
2961.371	761.875
2963.471	719.875
2965.569	716.20833
2967.666	669.54167
2969.762	660.875
2971.857	649.875
2973.95	618.875
2976.042	610.54167
2978.133	592.875
2980.222	581.20833
2982.31	554.875
2984.396	542.875
2986.482	535.20833
2988.566	541.875
2990.648	530.20833
2992.73	515.54167
2994.81	494.54167
2996.889	517.875
2998.966	496.54167
3001.042	508.20833
3003.117	498.54167
3005.191	489.875
3007.263	480.54167
3009.334	484.20833
3011.403	473.54167
3013.472	450.20833
3015.539	461.20833
3017.604	467.20833
3019.669	428.20833
3021.732	423.20833
3023.794	429.20833
3025.854	417.54167
3027.914	415.54167
3029.971	424.20833
3032.028	414.54167
3034.083	413.20833
3036.137	415.54167
3038.19	388.20833
3040.242	383.54167
3042.292	381.875
3044.341	376.54167
3046.388	384.54167
3048.435	367.20833
3050.48	376.20833
3052.524	369.20833
3054.566	345.54167
3056.607	363.20833
3058.647	347.20833
3060.686	339.54167
3062.723	322.875
3064.759	325.20833
3066.794	-0.79167
3068.828	-1.125
3070.86	-1.45833
