-0.839	433.83333
3.438	472.5
7.711	135.16667
11.981	55.5
16.247	49.83333
20.509	44.5
24.768	46.83333
29.024	47.83333
33.276	46.16667
37.524	53.83333
41.769	42.16667
46.01	41.5
50.247	54.5
54.481	65.5
58.712	68.83333
62.939	53.16667
67.162	63.16667
71.382	61.83333
75.599	49.5
79.812	71.5
84.021	89.5
88.227	66.83333
92.429	67.16667
96.628	58.83333
100.823	77.16667
105.015	84.5
109.204	86.16667
113.388	85.16667
117.57	86.5
121.748	103.83333
125.922	90.16667
130.093	110.5
134.261	121.16667
138.425	116.5
142.585	161.16667
146.742	163.83333
150.896	196.16667
155.046	256.5
159.193	404.5
163.336	693.5
167.476	1293.16667
171.613	2344.16667
175.746	3886.83333
179.875	5803.5
184.002	7563.5
188.124	8763.16667
192.244	9164.16667
196.36	9121.5
200.472	8951.5
204.581	8742.5
208.687	8592.83333
212.79	8590.83333
216.889	8676.83333
220.984	8785.16667
225.077	8916.83333
229.165	9081.16667
233.251	9158.16667
237.333	9374.16667
241.412	9383.16667
245.487	9398.83333
249.559	9295.83333
253.628	9224.5
257.694	9057.83333
261.756	8958.5
265.814	8761.16667
269.87	8484.16667
273.922	8112.16667
277.97	7770.83333
282.016	7463.83333
286.058	7129.16667
290.097	6923.83333
294.132	6761.16667
298.164	6652.16667
302.193	6459.16667
306.219	6078.5
310.241	5524.5
314.26	5025.5
318.276	4555.16667
322.288	4211.16667
326.297	4009.16667
330.303	3817.16667
334.305	3699.16667
338.305	3632.16667
342.301	3578.83333
346.294	3551.5
350.283	3528.16667
354.269	3478.16667
358.252	3497.16667
362.232	3465.83333
366.209	3454.5
370.182	3413.16667
374.152	3397.83333
378.119	3427.5
382.083	3418.16667
386.043	3452.5
390	3394.83333
393.954	3369.83333
397.905	3319.5
401.852	3296.16667
405.797	3191.16667
409.738	3152.16667
413.676	3137.5
417.61	3059.5
421.542	3030.16667
425.47	2973.5
429.396	2931.5
433.318	2903.5
437.236	2915.5
441.152	2890.16667
445.065	2817.16667
448.974	2810.83333
452.88	2776.5
456.783	2770.83333
460.683	2761.16667
464.58	2764.83333
468.473	2757.5
472.364	2751.83333
476.251	2768.83333
480.135	2779.5
484.016	2793.16667
487.894	2795.16667
491.769	2792.16667
495.641	2800.16667
499.509	2809.16667
503.375	2805.5
507.237	2795.16667
511.096	2791.83333
514.952	2762.5
518.805	2783.16667
522.655	2775.16667
526.502	2738.5
530.346	2760.5
534.187	2766.83333
538.024	2758.5
541.859	2766.16667
545.69	2781.16667
549.519	2765.83333
553.344	2740.5
557.166	2708.83333
560.985	2695.16667
564.802	2660.16667
568.615	2622.83333
572.425	2584.5
576.232	2588.5
580.036	2574.83333
583.836	2587.5
587.634	2592.83333
591.429	2556.83333
595.221	2621.5
599.01	2646.16667
602.796	2687.16667
606.578	2715.5
610.358	2710.16667
614.135	2687.16667
617.909	2708.16667
621.679	2691.83333
625.447	2665.83333
629.212	2672.5
632.973	2646.5
636.732	2665.16667
640.488	2683.16667
644.241	2638.16667
647.991	2662.16667
651.737	2672.16667
655.481	2660.83333
659.222	2695.83333
662.96	2677.16667
666.695	2703.16667
670.427	2705.16667
674.156	2719.5
677.882	2688.83333
681.605	2685.5
685.325	2643.83333
689.043	2659.5
692.757	2635.5
696.468	2654.5
700.177	2661.83333
703.882	2668.16667
707.585	2654.83333
711.284	2648.5
714.981	2652.5
718.675	2649.83333
722.366	2662.83333
726.054	2620.5
729.739	2650.5
733.421	2638.5
737.1	2637.16667
740.777	2666.5
744.45	2676.83333
748.121	2689.83333
751.789	2742.5
755.453	2752.16667
759.115	2776.5
762.774	2772.83333
766.431	2826.16667
770.084	2838.5
773.734	2862.16667
777.382	2918.5
781.027	2973.16667
784.669	2944.16667
788.308	2995.5
791.944	2993.16667
795.577	3040.83333
799.208	3070.5
802.835	3087.5
806.46	3134.5
810.082	3186.83333
813.701	3231.83333
817.317	3233.16667
820.931	3240.16667
824.542	3207.16667
828.149	3176.16667
831.754	3155.5
835.357	3156.83333
838.956	3122.16667
842.553	3081.83333
846.146	3057.5
849.737	3069.83333
853.326	3074.16667
856.911	3094.5
860.493	3125.83333
864.073	3166.16667
867.65	3177.5
871.225	3235.5
874.796	3245.5
878.365	3262.83333
881.931	3260.5
885.494	3300.83333
889.054	3287.83333
892.612	3320.83333
896.166	3249.5
899.719	3249.5
903.268	3222.16667
906.814	3208.83333
910.358	3212.83333
913.899	3198.16667
917.438	3187.16667
920.973	3196.5
924.506	3240.5
928.036	3288.83333
931.564	3278.5
935.088	3345.5
938.61	3341.16667
942.129	3354.5
945.646	3445.83333
949.16	3510.5
952.671	3619.5
956.179	3673.5
959.685	3664.16667
963.188	3659.5
966.688	3623.83333
970.185	3510.83333
973.68	3442.5
977.173	3395.5
980.662	3388.16667
984.149	3398.83333
987.633	3418.16667
991.114	3465.5
994.593	3553.16667
998.069	3686.5
1001.542	3814.16667
1005.013	3755.83333
1008.481	3515.16667
1011.947	3476.16667
1015.409	3468.16667
1018.869	3439.16667
1022.327	3446.83333
1025.782	3393.83333
1029.234	3443.83333
1032.683	3391.16667
1036.13	3281.5
1039.574	3168.16667
1043.016	3067.83333
1046.455	3026.5
1049.891	2962.16667
1053.325	2968.16667
1056.756	2956.83333
1060.184	2967.5
1063.61	2980.83333
1067.033	3015.16667
1070.454	2990.5
1073.872	3036.5
1077.287	3026.16667
1080.7	3058.16667
1084.11	3039.16667
1087.517	3013.83333
1090.922	2965.83333
1094.325	2936.16667
1097.724	2914.83333
1101.122	2909.16667
1104.516	2918.5
1107.908	2910.16667
1111.298	2969.83333
1114.684	2995.83333
1118.069	3025.5
1121.45	3056.5
1124.83	3039.16667
1128.206	3033.5
1131.58	3102.83333
1134.951	3174.16667
1138.32	3254.16667
1141.687	3414.83333
1145.05	3492.83333
1148.412	3529.83333
1151.77	3531.83333
1155.126	3518.83333
1158.48	3548.16667
1161.831	3587.16667
1165.18	3594.16667
1168.525	3631.16667
1171.869	3686.5
1175.21	3739.83333
1178.548	3769.16667
1181.884	3839.5
1185.217	3823.5
1188.548	3898.16667
1191.877	3965.16667
1195.202	4048.83333
1198.526	4108.83333
1201.846	4109.83333
1205.165	4095.83333
1208.48	4045.16667
1211.794	4056.16667
1215.104	4073.5
1218.413	4054.83333
1221.719	4028.5
1225.022	3977.5
1228.323	3974.83333
1231.621	3943.5
1234.917	3953.16667
1238.21	3991.5
1241.501	3943.16667
1244.79	3960.83333
1248.076	3928.16667
1251.359	3979.83333
1254.64	4072.16667
1257.919	4061.16667
1261.195	4146.83333
1264.468	4194.83333
1267.74	4268.16667
1271.008	4290.5
1274.275	4292.83333
1277.538	4235.83333
1280.8	4213.16667
1284.059	4235.83333
1287.315	4281.5
1290.569	4317.83333
1293.821	4350.5
1297.07	4344.5
1300.317	4376.16667
1303.562	4367.5
1306.803	4333.5
1310.043	4293.16667
1313.28	4256.16667
1316.515	4219.16667
1319.747	4191.5
1322.977	4136.83333
1326.204	4066.5
1329.429	4010.83333
1332.652	4018.83333
1335.872	3996.16667
1339.09	3967.5
1342.306	3951.83333
1345.519	3946.5
1348.729	3935.83333
1351.938	3948.83333
1355.144	3890.5
1358.347	3801.5
1361.548	3799.83333
1364.747	3829.5
1367.944	3798.16667
1371.138	3814.5
1374.329	3847.5
1377.518	3905.5
1380.705	3907.16667
1383.89	3879.83333
1387.072	3784.83333
1390.252	3665.16667
1393.429	3514.5
1396.605	3433.83333
1399.777	3332.83333
1402.948	3294.16667
1406.116	3266.5
1409.282	3266.83333
1412.445	3249.5
1415.606	3298.83333
1418.765	3315.5
1421.921	3386.16667
1425.075	3472.83333
1428.227	3579.16667
1431.376	3731.83333
1434.524	3912.5
1437.668	3991.16667
1440.811	4021.5
1443.951	4061.5
1447.089	4075.5
1450.224	4020.16667
1453.357	4011.83333
1456.488	3974.5
1459.617	3921.16667
1462.743	3922.83333
1465.867	3787.83333
1468.989	3755.5
1472.108	3680.83333
1475.225	3651.83333
1478.34	3623.5
1481.453	3613.16667
1484.563	3596.83333
1487.671	3664.83333
1490.776	3725.83333
1493.88	3805.83333
1496.981	3901.16667
1500.08	3940.16667
1503.176	4044.83333
1506.271	4094.5
1509.363	4187.16667
1512.452	4231.83333
1515.54	4316.83333
1518.625	4430.83333
1521.708	4637.5
1524.789	4902.5
1527.867	5231.16667
1530.944	5553.83333
1534.018	5773.83333
1537.089	5822.83333
1540.159	5720.5
1543.226	5489.83333
1546.291	5272.83333
1549.354	5100.83333
1552.415	4911.5
1555.473	4803.5
1558.529	4750.83333
1561.583	4708.16667
1564.634	4704.5
1567.684	4683.5
1570.731	4722.5
1573.776	4798.83333
1576.819	4883.83333
1579.859	4946.5
1582.898	5011.5
1585.934	5046.16667
1588.968	5069.83333
1591.999	5038.83333
1595.029	5048.5
1598.056	5058.16667
1601.081	5084.16667
1604.104	5073.16667
1607.125	5041.83333
1610.144	4944.83333
1613.16	4826.16667
1616.174	4732.16667
1619.186	4604.83333
1622.196	4535.83333
1625.203	4455.83333
1628.209	4389.83333
1631.212	4348.83333
1634.213	4317.16667
1637.212	4315.83333
1640.209	4251.83333
1643.203	4153.83333
1646.196	4018.16667
1649.186	3890.16667
1652.174	3722.5
1655.16	3593.16667
1658.144	3491.83333
1661.125	3321.5
1664.105	3146.83333
1667.082	3014.5
1670.057	2840.5
1673.03	2664.5
1676.001	2485.16667
1678.97	2316.83333
1681.937	2190.5
1684.901	2058.5
1687.863	1981.83333
1690.824	1899.5
1693.782	1866.83333
1696.738	1798.16667
1699.692	1773.5
1702.643	1714.5
1705.593	1716.16667
1708.54	1665.83333
1711.486	1658.83333
1714.429	1627.5
1717.37	1624.83333
1720.309	1576.16667
1723.246	1589.16667
1726.181	1549.16667
1729.113	1551.5
1732.044	1526.83333
1734.972	1509.5
1737.899	1515.83333
1740.823	1503.5
1743.745	1508.16667
1746.665	1435.16667
1749.583	1433.83333
1752.499	1397.16667
1755.413	1383.83333
1758.325	1350.83333
1761.235	1354.5
1764.142	1325.5
1767.048	1312.83333
1769.951	1302.83333
1772.852	1294.5
1775.752	1281.16667
1778.649	1299.5
1781.544	1284.5
1784.437	1263.5
1787.328	1266.16667
1790.217	1252.16667
1793.104	1231.5
1795.989	1227.16667
1798.872	1231.5
1801.753	1233.5
1804.631	1218.83333
1807.508	1235.5
1810.383	1229.16667
1813.255	1229.16667
1816.126	1223.5
1818.994	1194.16667
1821.861	1199.16667
1824.725	1196.83333
1827.587	1184.83333
1830.448	1182.83333
1833.306	1151.83333
1836.162	1167.83333
1839.017	1149.83333
1841.869	1149.16667
1844.719	1142.16667
1847.567	1134.5
1850.414	1138.5
1853.258	1131.83333
1856.1	1133.5
1858.94	1149.16667
1861.778	1133.83333
1864.614	1122.5
1867.448	1131.16667
1870.28	1136.5
1873.111	1139.16667
1875.939	1127.16667
1878.765	1151.83333
1881.589	1114.83333
1884.411	1115.5
1887.231	1122.5
1890.049	1114.16667
1892.865	1116.16667
1895.68	1102.5
1898.492	1097.16667
1901.302	1090.5
1904.11	1075.5
1906.916	1079.5
1909.721	1065.16667
1912.523	1086.16667
1915.323	1065.83333
1918.122	1065.16667
1920.918	1077.83333
1923.712	1068.83333
1926.505	1048.16667
1929.295	1050.16667
1932.084	1069.83333
1934.87	1066.83333
1937.655	1051.16667
1940.438	1031.5
1943.218	1051.83333
1945.997	1060.83333
1948.774	1061.16667
1951.549	1060.5
1954.322	1042.83333
1957.093	1056.83333
1959.862	1041.16667
1962.629	1026.83333
1965.394	1036.83333
1968.157	1019.83333
1970.918	1025.16667
1973.678	1011.5
1976.435	1022.83333
1979.19	1011.5
1981.944	997.16667
1984.696	996.83333
1987.445	999.83333
1990.193	995.83333
1992.939	1012.83333
1995.683	1002.83333
1998.425	983.5
2001.165	1009.16667
2003.903	989.16667
2006.639	992.16667
2009.374	977.83333
2012.106	998.5
2014.837	959.16667
2017.566	984.16667
2020.292	991.5
2023.017	983.5
2025.74	963.83333
2028.461	974.83333
2031.18	974.16667
2033.898	967.5
2036.613	966.5
2039.327	978.16667
2042.038	949.83333
2044.748	955.16667
2047.456	948.83333
2050.162	943.5
2052.866	942.83333
2055.568	947.5
2058.268	939.16667
2060.967	957.5
2063.663	935.16667
2066.358	950.83333
2069.051	933.16667
2071.742	932.5
2074.431	945.83333
2077.118	914.83333
2079.804	921.5
2082.487	939.5
2085.169	946.5
2087.849	953.83333
2090.527	945.83333
2093.203	951.16667
2095.877	946.83333
2098.55	951.5
2101.22	958.16667
2103.889	967.16667
2106.556	960.16667
2109.221	988.16667
2111.884	996.16667
2114.546	1030.16667
2117.205	1093.16667
2119.863	1165.16667
2122.519	1237.5
2125.173	1320.5
2127.825	1437.83333
2130.475	1501.83333
2133.124	1477.16667
2135.771	1467.83333
2138.416	1417.5
2141.059	1345.16667
2143.7	1291.5
2146.339	1217.16667
2148.977	1151.5
2151.613	1136.5
2154.247	1106.5
2156.879	1084.16667
2159.51	1073.83333
2162.138	1062.16667
2164.765	1068.16667
2167.39	1054.16667
2170.013	1087.83333
2172.634	1093.83333
2175.254	1081.5
2177.872	1108.5
2180.488	1066.83333
2183.102	1074.5
2185.714	1058.16667
2188.325	1013.16667
2190.934	1004.16667
2193.541	997.83333
2196.146	987.83333
2198.75	953.83333
2201.351	944.16667
2203.951	894.16667
2206.549	918.5
2209.146	898.5
2211.74	890.83333
2214.333	894.16667
2216.924	853.16667
2219.514	883.16667
2222.101	859.16667
2224.687	866.16667
2227.271	844.16667
2229.853	841.16667
2232.433	825.16667
2235.012	847.5
2237.589	854.5
2240.164	846.16667
2242.738	839.83333
2245.309	824.5
2247.879	823.5
2250.448	832.5
2253.014	802.5
2255.579	773.16667
2258.142	786.5
2260.703	773.5
2263.262	774.16667
2265.82	769.16667
2268.376	757.5
2270.93	752.83333
2273.483	755.5
2276.033	747.5
2278.583	735.16667
2281.13	745.16667
2283.675	725.16667
2286.219	738.83333
2288.761	727.16667
2291.302	729.83333
2293.841	730.16667
2296.377	711.83333
2298.913	711.5
2301.446	725.16667
2303.978	707.83333
2306.508	705.83333
2309.037	706.16667
2311.563	707.83333
2314.088	706.16667
2316.612	695.83333
2319.133	699.83333
2321.653	691.83333
2324.171	689.5
2326.688	699.16667
2329.202	685.5
2331.715	686.5
2334.227	683.83333
2336.736	665.83333
2339.244	664.5
2341.751	663.83333
2344.255	682.5
2346.758	671.16667
2349.259	659.5
2351.759	659.83333
2354.257	669.16667
2356.753	660.83333
2359.247	657.16667
2361.74	661.83333
2364.231	646.83333
2366.721	665.83333
2369.209	644.16667
2371.695	663.5
2374.179	650.5
2376.662	640.5
2379.143	654.83333
2381.622	639.5
2384.1	660.16667
2386.576	638.16667
2389.051	651.5
2391.524	659.83333
2393.995	642.83333
2396.464	635.5
2398.932	632.16667
2401.398	641.5
2403.863	640.16667
2406.325	620.83333
2408.787	620.16667
2411.246	627.5
2413.704	618.16667
2416.16	624.16667
2418.615	624.83333
2421.068	639.5
2423.519	633.5
2425.969	620.16667
2428.417	627.83333
2430.863	639.5
2433.308	625.83333
2435.751	613.83333
2438.193	615.16667
2440.633	610.5
2443.071	617.16667
2445.508	603.5
2447.943	603.83333
2450.376	596.5
2452.808	610.16667
2455.238	603.5
2457.667	631.83333
2460.093	597.16667
2462.519	599.16667
2464.942	592.5
2467.365	606.16667
2469.785	611.5
2472.204	597.16667
2474.621	578.16667
2477.037	604.16667
2479.451	582.83333
2481.863	581.16667
2484.274	583.83333
2486.683	583.16667
2489.091	600.16667
2491.497	587.83333
2493.901	584.16667
2496.304	584.5
2498.705	582.83333
2501.105	588.83333
2503.503	607.16667
2505.899	571.16667
2508.294	589.83333
2510.687	560.5
2513.079	566.83333
2515.469	559.5
2517.858	559.83333
2520.245	587.16667
2522.63	565.5
2525.014	559.5
2527.396	562.83333
2529.776	558.83333
2532.156	568.5
2534.533	552.16667
2536.909	554.83333
2539.283	537.83333
2541.656	555.16667
2544.027	576.5
2546.397	556.16667
2548.765	553.83333
2551.131	554.5
2553.496	550.83333
2555.86	549.83333
2558.221	547.5
2560.582	545.5
2562.94	546.83333
2565.298	545.83333
2567.653	565.5
2570.007	535.83333
2572.36	559.5
2574.711	546.16667
2577.06	553.83333
2579.408	544.5
2581.754	549.83333
2584.099	547.83333
2586.442	538.16667
2588.784	539.83333
2591.124	543.5
2593.463	535.16667
2595.8	538.83333
2598.135	529.83333
2600.469	534.16667
2602.802	544.5
2605.133	558.5
2607.462	524.16667
2609.79	525.83333
2612.116	534.16667
2614.441	536.5
2616.764	540.5
2619.086	539.5
2621.406	522.83333
2623.725	547.16667
2626.042	547.83333
2628.358	533.5
2630.672	527.16667
2632.985	538.5
2635.296	530.83333
2637.606	539.5
2639.914	531.83333
2642.22	526.16667
2644.525	531.5
2646.829	540.16667
2649.131	544.83333
2651.432	543.16667
2653.731	531.5
2656.028	553.5
2658.324	540.5
2660.619	541.16667
2662.912	543.16667
2665.204	530.5
2667.494	550.83333
2669.782	521.5
2672.07	536.83333
2674.355	550.5
2676.639	535.83333
2678.922	538.5
2681.203	544.5
2683.483	527.16667
2685.761	533.83333
2688.038	539.83333
2690.313	538.5
2692.587	537.16667
2694.859	539.16667
2697.13	539.83333
2699.399	545.83333
2701.667	550.83333
2703.933	555.16667
2706.198	569.16667
2708.461	571.16667
2710.723	568.5
2712.984	566.5
2715.243	568.5
2717.5	566.83333
2719.757	569.5
2722.011	572.16667
2724.264	578.16667
2726.516	583.5
2728.766	594.5
2731.015	582.83333
2733.262	582.5
2735.508	579.5
2737.753	567.83333
2739.996	564.83333
2742.237	560.16667
2744.477	572.16667
2746.716	561.16667
2748.953	554.5
2751.189	558.16667
2753.423	542.16667
2755.656	549.16667
2757.887	547.5
2760.117	542.16667
2762.346	537.5
2764.573	526.5
2766.798	523.83333
2769.022	530.83333
2771.245	536.16667
2773.467	539.83333
2775.686	536.5
2777.905	539.16667
2780.122	554.5
2782.337	547.83333
2784.552	550.5
2786.764	555.83333
2788.976	568.16667
2791.186	552.5
2793.394	566.83333
2795.601	575.83333
2797.807	589.5
2800.011	581.5
2802.214	600.5
2804.415	593.5
2806.615	593.16667
2808.814	612.83333
2811.011	610.16667
2813.206	603.5
2815.401	628.5
2817.594	641.5
2819.785	657.83333
2821.975	637.83333
2824.164	662.16667
2826.351	682.83333
2828.537	704.5
2830.722	723.83333
2832.905	727.5
2835.086	776.5
2837.267	818.83333
2839.445	853.83333
2841.623	869.83333
2843.799	919.5
2845.974	966.16667
2848.147	1017.83333
2850.319	1041.5
2852.489	1091.5
2854.659	1110.16667
2856.826	1137.16667
2858.993	1158.16667
2861.158	1140.5
2863.321	1155.83333
2865.483	1170.83333
2867.644	1177.83333
2869.804	1162.5
2871.962	1154.5
2874.118	1182.5
2876.274	1168.16667
2878.428	1158.5
2880.58	1163.16667
2882.731	1149.16667
2884.881	1163.83333
2887.03	1163.16667
2889.177	1155.16667
2891.322	1181.16667
2893.467	1170.83333
2895.61	1178.5
2897.751	1202.16667
2899.892	1214.5
2902.03	1202.16667
2904.168	1236.5
2906.304	1235.16667
2908.439	1243.5
2910.572	1226.83333
2912.704	1263.5
2914.835	1261.5
2916.965	1269.5
2919.093	1264.5
2921.219	1232.16667
2923.345	1264.83333
2925.469	1223.83333
2927.591	1203.5
2929.712	1176.5
2931.832	1167.83333
2933.951	1145.83333
2936.068	1118.83333
2938.184	1079.83333
2940.299	1042.16667
2942.412	1013.5
2944.524	968.5
2946.634	945.5
2948.744	878.83333
2950.851	893.16667
2952.958	829.83333
2955.063	823.83333
2957.167	806.16667
2959.269	775.83333
2961.371	779.5
2963.471	723.83333
2965.569	730.5
2967.666	689.16667
2969.762	686.16667
2971.857	673.16667
2973.95	638.16667
2976.042	640.83333
2978.133	615.5
2980.222	592.5
2982.31	575.16667
2984.396	556.16667
2986.482	553.16667
2988.566	554.16667
2990.648	538.83333
2992.73	527.16667
2994.81	504.83333
2996.889	513.5
2998.966	508.83333
3001.042	515.83333
3003.117	492.5
3005.191	488.5
3007.263	490.16667
3009.334	479.83333
3011.403	477.83333
3013.472	454.83333
3015.539	462.16667
3017.604	463.5
3019.669	426.16667
3021.732	430.5
3023.794	434.5
3025.854	416.83333
3027.914	412.5
3029.971	418.5
3032.028	423.83333
3034.083	419.16667
3036.137	415.16667
3038.19	394.5
3040.242	386.83333
3042.292	370.5
3044.341	368.5
3046.388	388.16667
3048.435	357.83333
3050.48	384.83333
3052.524	378.16667
3054.566	347.16667
3056.607	361.5
3058.647	355.16667
3060.686	333.83333
3062.723	325.5
3064.759	319.5
3066.794	-0.5
3068.828	-1.83333
3070.86	-3.16667
