-0.839	462.16667
3.438	491.5
7.711	132.83333
11.981	54.16667
16.247	50.83333
20.509	45.5
24.768	48.16667
29.024	49.83333
33.276	43.5
37.524	52.83333
41.769	42.16667
46.01	37.16667
50.247	50.83333
54.481	65.5
58.712	73.16667
62.939	53.16667
67.162	62.5
71.382	62.16667
75.599	53.5
79.812	68.83333
84.021	81.83333
88.227	62.5
92.429	63.83333
96.628	54.16667
100.823	76.16667
105.015	82.16667
109.204	87.16667
113.388	86.83333
117.57	82.5
121.748	94.5
125.922	92.16667
130.093	113.83333
134.261	120.83333
138.425	117.5
142.585	160.16667
146.742	167.83333
150.896	200.16667
155.046	246.5
159.193	399.5
163.336	707.5
167.476	1291.83333
171.613	2336.83333
175.746	3895.5
179.875	5764.5
184.002	7477.5
188.124	8611.16667
192.244	8989.83333
196.36	8923.83333
200.472	8678.5
204.581	8505.16667
208.687	8342.16667
212.79	8311.16667
216.889	8366.83333
220.984	8422.16667
225.077	8572.16667
229.165	8664.16667
233.251	8785.5
237.333	8905.16667
241.412	8934.5
245.487	8903.16667
249.559	8843.83333
253.628	8738.16667
257.694	8607.83333
261.756	8532.83333
265.814	8298.5
269.87	8035.5
273.922	7688.83333
277.97	7414.5
282.016	7117.16667
286.058	6858.5
290.097	6713.83333
294.132	6659.5
298.164	6492.83333
302.193	6234.83333
306.219	5816.5
310.241	5294.83333
314.26	4850.5
318.276	4466.16667
322.288	4173.16667
326.297	3977.83333
330.303	3832.83333
334.305	3701.16667
338.305	3616.5
342.301	3572.16667
346.294	3538.83333
350.283	3492.5
354.269	3465.5
358.252	3475.83333
362.232	3425.5
366.209	3411.83333
370.182	3389.16667
374.152	3367.16667
378.119	3377.5
382.083	3382.5
386.043	3394.16667
390	3362.83333
393.954	3319.5
397.905	3293.83333
401.852	3288.16667
405.797	3218.5
409.738	3171.16667
413.676	3146.83333
417.61	3109.83333
421.542	3054.16667
425.47	3008.5
429.396	3007.5
433.318	2974.16667
437.236	2944.16667
441.152	2945.83333
445.065	2900.5
448.974	2894.5
452.88	2860.16667
456.783	2846.83333
460.683	2802.5
464.58	2823.16667
468.473	2818.5
472.364	2836.16667
476.251	2836.83333
480.135	2839.5
484.016	2867.16667
487.894	2905.5
491.769	2919.83333
495.641	2911.5
499.509	2893.16667
503.375	2884.16667
507.237	2880.16667
511.096	2860.5
514.952	2856.83333
518.805	2862.5
522.655	2884.5
526.502	2848.16667
530.346	2851.16667
534.187	2879.83333
538.024	2846.5
541.859	2858.5
545.69	2877.83333
549.519	2856.5
553.344	2858.16667
557.166	2816.16667
560.985	2762.83333
564.802	2741.16667
568.615	2715.83333
572.425	2682.83333
576.232	2659.83333
580.036	2644.5
583.836	2681.83333
587.634	2666.83333
591.429	2655.83333
595.221	2713.16667
599.01	2712.5
602.796	2742.83333
606.578	2783.5
610.358	2782.16667
614.135	2783.5
617.909	2800.16667
621.679	2781.16667
625.447	2757.5
629.212	2749.5
632.973	2761.83333
636.732	2717.5
640.488	2763.16667
644.241	2731.16667
647.991	2725.83333
651.737	2760.83333
655.481	2744.5
659.222	2749.16667
662.96	2751.5
666.695	2767.16667
670.427	2773.5
674.156	2779.5
677.882	2742.5
681.605	2738.5
685.325	2702.83333
689.043	2726.16667
692.757	2706.16667
696.468	2730.16667
700.177	2741.5
703.882	2705.5
707.585	2718.83333
711.284	2716.83333
714.981	2715.5
718.675	2730.83333
722.366	2743.83333
726.054	2700.16667
729.739	2719.5
733.421	2716.16667
737.1	2713.16667
740.777	2755.5
744.45	2748.5
748.121	2769.83333
751.789	2824.83333
755.453	2820.83333
759.115	2828.83333
762.774	2881.5
766.431	2883.5
770.084	2924.5
773.734	2969.16667
777.382	2979.16667
781.027	3001.83333
784.669	3033.83333
788.308	3079.16667
791.944	3098.16667
795.577	3086.16667
799.208	3115.16667
802.835	3156.83333
806.46	3176.16667
810.082	3240.16667
813.701	3248.83333
817.317	3292.83333
820.931	3268.5
824.542	3263.5
828.149	3253.5
831.754	3180.83333
835.357	3178.5
838.956	3158.83333
842.553	3130.5
846.146	3139.5
849.737	3127.16667
853.326	3121.83333
856.911	3126.83333
860.493	3194.5
864.073	3181.16667
867.65	3228.83333
871.225	3283.83333
874.796	3271.5
878.365	3310.83333
881.931	3304.16667
885.494	3333.83333
889.054	3324.5
892.612	3348.16667
896.166	3305.5
899.719	3279.5
903.268	3254.5
906.814	3235.16667
910.358	3221.16667
913.899	3214.16667
917.438	3230.5
920.973	3245.83333
924.506	3254.5
928.036	3302.5
931.564	3317.83333
935.088	3344.83333
938.61	3382.83333
942.129	3376.16667
945.646	3462.83333
949.16	3542.16667
952.671	3628.16667
956.179	3664.5
959.685	3666.83333
963.188	3663.16667
966.688	3605.5
970.185	3521.16667
973.68	3465.5
977.173	3427.16667
980.662	3403.5
984.149	3425.5
987.633	3427.16667
991.114	3489.5
994.593	3593.83333
998.069	3715.83333
1001.542	3800.5
1005.013	3723.83333
1008.481	3533.83333
1011.947	3463.16667
1015.409	3435.83333
1018.869	3436.16667
1022.327	3438.16667
1025.782	3418.83333
1029.234	3423.5
1032.683	3366.16667
1036.13	3274.83333
1039.574	3135.16667
1043.016	3074.5
1046.455	3019.5
1049.891	2977.16667
1053.325	2940.16667
1056.756	2956.83333
1060.184	2963.16667
1063.61	2960.83333
1067.033	2997.16667
1070.454	3006.83333
1073.872	3033.5
1077.287	3029.83333
1080.7	3047.5
1084.11	3002.16667
1087.517	2997.16667
1090.922	2958.5
1094.325	2913.5
1097.724	2895.83333
1101.122	2921.83333
1104.516	2899.16667
1107.908	2912.5
1111.298	2960.83333
1114.684	3000.83333
1118.069	3020.16667
1121.45	3053.5
1124.83	3039.16667
1128.206	3046.16667
1131.58	3080.83333
1134.951	3175.16667
1138.32	3263.16667
1141.687	3410.16667
1145.05	3520.16667
1148.412	3513.16667
1151.77	3527.83333
1155.126	3536.83333
1158.48	3510.16667
1161.831	3537.83333
1165.18	3565.83333
1168.525	3635.5
1171.869	3660.83333
1175.21	3724.83333
1178.548	3778.5
1181.884	3813.16667
1185.217	3857.83333
1188.548	3906.5
1191.877	3962.5
1195.202	4041.16667
1198.526	4103.5
1201.846	4082.83333
1205.165	4094.83333
1208.48	4056.16667
1211.794	4034.5
1215.104	4042.83333
1218.413	4059.16667
1221.719	4022.16667
1225.022	3978.5
1228.323	3961.16667
1231.621	3920.5
1234.917	3906.83333
1238.21	3955.5
1241.501	3932.83333
1244.79	3938.83333
1248.076	3921.83333
1251.359	3987.16667
1254.64	4053.83333
1257.919	4031.16667
1261.195	4110.5
1264.468	4174.83333
1267.74	4241.83333
1271.008	4260.83333
1274.275	4249.5
1277.538	4201.5
1280.8	4214.16667
1284.059	4187.5
1287.315	4227.83333
1290.569	4251.5
1293.821	4287.16667
1297.07	4314.83333
1300.317	4319.5
1303.562	4282.83333
1306.803	4289.5
1310.043	4228.5
1313.28	4238.16667
1316.515	4154.16667
1319.747	4125.16667
1322.977	4065.5
1326.204	4035.83333
1329.429	3990.16667
1332.652	3943.16667
1335.872	3968.16667
1339.09	3938.16667
1342.306	3926.5
1345.519	3889.83333
1348.729	3864.83333
1351.938	3841.16667
1355.144	3795.5
1358.347	3742.83333
1361.548	3716.83333
1364.747	3700.5
1367.944	3696.5
1371.138	3722.5
1374.329	3734.16667
1377.518	3760.16667
1380.705	3782.5
1383.89	3776.83333
1387.072	3658.16667
1390.252	3545.16667
1393.429	3434.16667
1396.605	3315.5
1399.777	3237.16667
1402.948	3197.5
1406.116	3165.16667
1409.282	3172.5
1412.445	3173.16667
1415.606	3215.83333
1418.765	3268.16667
1421.921	3314.5
1425.075	3368.5
1428.227	3515.83333
1431.376	3653.5
1434.524	3804.83333
1437.668	3832.16667
1440.811	3940.83333
1443.951	3971.16667
1447.089	3966.16667
1450.224	3935.5
1453.357	3962.5
1456.488	3929.83333
1459.617	3863.5
1462.743	3804.83333
1465.867	3746.5
1468.989	3677.83333
1472.108	3605.5
1475.225	3546.16667
1478.34	3528.5
1481.453	3533.16667
1484.563	3538.83333
1487.671	3574.5
1490.776	3653.83333
1493.88	3727.5
1496.981	3793.83333
1500.08	3878.83333
1503.176	3953.5
1506.271	4020.5
1509.363	4060.83333
1512.452	4118.16667
1515.54	4190.5
1518.625	4307.16667
1521.708	4485.16667
1524.789	4731.5
1527.867	5042.83333
1530.944	5350.16667
1534.018	5517.83333
1537.089	5627.5
1540.159	5541.5
1543.226	5367.16667
1546.291	5157.5
1549.354	4961.16667
1552.415	4821.5
1555.473	4735.83333
1558.529	4647.16667
1561.583	4599.16667
1564.634	4557.5
1567.684	4578.83333
1570.731	4619.83333
1573.776	4648.5
1576.819	4706.5
1579.859	4764.5
1582.898	4861.83333
1585.934	4870.16667
1588.968	4937.5
1591.999	4885.16667
1595.029	4899.16667
1598.056	4915.16667
1601.081	4917.5
1604.104	4907.83333
1607.125	4858.83333
1610.144	4767.83333
1613.16	4631.5
1616.174	4539.16667
1619.186	4438.16667
1622.196	4366.5
1625.203	4255.5
1628.209	4198.83333
1631.212	4155.83333
1634.213	4156.5
1637.212	4126.16667
1640.209	4056.83333
1643.203	3964.5
1646.196	3842.5
1649.186	3692.83333
1652.174	3566.5
1655.16	3462.16667
1658.144	3333.5
1661.125	3186.16667
1664.105	3041.5
1667.082	2889.83333
1670.057	2734.83333
1673.03	2571.83333
1676.001	2391.16667
1678.97	2239.83333
1681.937	2117.83333
1684.901	1986.16667
1687.863	1919.5
1690.824	1841.16667
1693.782	1809.16667
1696.738	1739.5
1699.692	1713.5
1702.643	1654.16667
1705.593	1654.16667
1708.54	1641.83333
1711.486	1623.5
1714.429	1593.5
1717.37	1567.16667
1720.309	1539.83333
1723.246	1552.16667
1726.181	1512.5
1729.113	1516.16667
1732.044	1487.16667
1734.972	1477.83333
1737.899	1474.16667
1740.823	1461.5
1743.745	1429.16667
1746.665	1401.16667
1749.583	1398.16667
1752.499	1372.5
1755.413	1356.16667
1758.325	1303.16667
1761.235	1330.16667
1764.142	1289.83333
1767.048	1284.5
1769.951	1275.5
1772.852	1271.83333
1775.752	1268.5
1778.649	1255.5
1781.544	1263.83333
1784.437	1228.5
1787.328	1237.5
1790.217	1215.16667
1793.104	1203.16667
1795.989	1201.83333
1798.872	1200.83333
1801.753	1210.5
1804.631	1202.83333
1807.508	1209.16667
1810.383	1194.83333
1813.255	1183.16667
1816.126	1182.83333
1818.994	1176.16667
1821.861	1180.5
1824.725	1169.5
1827.587	1164.16667
1830.448	1158.5
1833.306	1110.5
1836.162	1144.83333
1839.017	1120.16667
1841.869	1135.16667
1844.719	1124.5
1847.567	1109.83333
1850.414	1107.83333
1853.258	1100.5
1856.1	1114.5
1858.94	1121.16667
1861.778	1104.83333
1864.614	1109.5
1867.448	1088.83333
1870.28	1099.83333
1873.111	1109.5
1875.939	1097.83333
1878.765	1108.16667
1881.589	1093.83333
1884.411	1089.83333
1887.231	1099.16667
1890.049	1080.5
1892.865	1086.16667
1895.68	1069.83333
1898.492	1076.5
1901.302	1069.5
1904.11	1057.83333
1906.916	1053.16667
1909.721	1049.16667
1912.523	1063.16667
1915.323	1033.5
1918.122	1043.16667
1920.918	1046.16667
1923.712	1027.5
1926.505	1037.83333
1929.295	1012.5
1932.084	1032.16667
1934.87	1032.83333
1937.655	1021.16667
1940.438	1025.5
1943.218	1036.83333
1945.997	1020.5
1948.774	1026.5
1951.549	1031.16667
1954.322	1005.16667
1957.093	1009.83333
1959.862	1005.5
1962.629	1011.83333
1965.394	1005.16667
1968.157	982.16667
1970.918	993.83333
1973.678	986.5
1976.435	986.5
1979.19	986.83333
1981.944	978.16667
1984.696	972.16667
1987.445	966.5
1990.193	981.5
1992.939	981.16667
1995.683	979.83333
1998.425	942.83333
2001.165	976.83333
2003.903	963.83333
2006.639	957.83333
2009.374	940.83333
2012.106	940.5
2014.837	934.16667
2017.566	947.16667
2020.292	957.16667
2023.017	942.5
2025.74	934.83333
2028.461	939.16667
2031.18	942.16667
2033.898	928.16667
2036.613	930.83333
2039.327	940.83333
2042.038	926.83333
2044.748	935.5
2047.456	925.5
2050.162	901.83333
2052.866	909.83333
2055.568	924.83333
2058.268	901.5
2060.967	910.16667
2063.663	887.5
2066.358	909.5
2069.051	897.5
2071.742	899.5
2074.431	913.16667
2077.118	907.5
2079.804	897.5
2082.487	911.16667
2085.169	909.16667
2087.849	919.16667
2090.527	901.16667
2093.203	925.83333
2095.877	919.16667
2098.55	917.16667
2101.22	939.5
2103.889	949.16667
2106.556	941.83333
2109.221	963.16667
2111.884	964.5
2114.546	1032.83333
2117.205	1074.83333
2119.863	1164.5
2122.519	1230.83333
2125.173	1326.16667
2127.825	1434.83333
2130.475	1464.5
2133.124	1454.16667
2135.771	1412.5
2138.416	1383.5
2141.059	1288.16667
2143.7	1247.5
2146.339	1179.83333
2148.977	1119.5
2151.613	1089.5
2154.247	1061.5
2156.879	1054.83333
2159.51	1027.5
2162.138	1015.5
2164.765	1015.83333
2167.39	1010.16667
2170.013	1028.83333
2172.634	1030.16667
2175.254	1015.83333
2177.872	1036.5
2180.488	1009.16667
2183.102	1011.83333
2185.714	981.83333
2188.325	964.5
2190.934	958.16667
2193.541	930.83333
2196.146	912.5
2198.75	897.16667
2201.351	891.83333
2203.951	855.5
2206.549	871.83333
2209.146	846.16667
2211.74	843.5
2214.333	838.16667
2216.924	811.5
2219.514	814.5
2222.101	807.16667
2224.687	821.5
2227.271	803.16667
2229.853	783.16667
2232.433	792.16667
2235.012	815.16667
2237.589	802.83333
2240.164	802.16667
2242.738	794.16667
2245.309	765.16667
2247.879	782.83333
2250.448	788.5
2253.014	753.83333
2255.579	735.16667
2258.142	749.5
2260.703	720.5
2263.262	716.16667
2265.82	734.5
2268.376	725.5
2270.93	713.5
2273.483	703.16667
2276.033	710.83333
2278.583	693.16667
2281.13	692.16667
2283.675	670.16667
2286.219	693.83333
2288.761	689.83333
2291.302	696.83333
2293.841	698.83333
2296.377	669.16667
2298.913	689.5
2301.446	685.83333
2303.978	677.5
2306.508	670.16667
2309.037	667.16667
2311.563	669.83333
2314.088	676.16667
2316.612	655.83333
2319.133	668.5
2321.653	658.16667
2324.171	638.5
2326.688	663.5
2329.202	641.5
2331.715	658.83333
2334.227	643.5
2336.736	643.16667
2339.244	640.83333
2341.751	626.83333
2344.255	645.5
2346.758	623.83333
2349.259	623.16667
2351.759	625.5
2354.257	620.5
2356.753	623.5
2359.247	621.83333
2361.74	628.16667
2364.231	629.5
2366.721	623.16667
2369.209	619.83333
2371.695	615.5
2374.179	608.16667
2376.662	609.83333
2379.143	617.5
2381.622	607.5
2384.1	611.5
2386.576	611.16667
2389.051	614.83333
2391.524	613.5
2393.995	618.83333
2396.464	607.16667
2398.932	598.5
2401.398	600.16667
2403.863	596.83333
2406.325	598.5
2408.787	596.5
2411.246	589.83333
2413.704	591.5
2416.16	584.83333
2418.615	582.5
2421.068	599.5
2423.519	592.5
2425.969	575.5
2428.417	584.5
2430.863	600.83333
2433.308	590.5
2435.751	579.16667
2438.193	574.16667
2440.633	585.83333
2443.071	576.83333
2445.508	567.5
2447.943	569.83333
2450.376	571.5
2452.808	560.83333
2455.238	552.5
2457.667	588.83333
2460.093	562.16667
2462.519	558.5
2464.942	554.16667
2467.365	568.83333
2469.785	560.16667
2472.204	553.83333
2474.621	539.83333
2477.037	575.83333
2479.451	535.5
2481.863	538.16667
2484.274	540.16667
2486.683	549.5
2489.091	557.16667
2491.497	538.5
2493.901	537.5
2496.304	538.16667
2498.705	549.16667
2501.105	529.83333
2503.503	567.5
2505.899	531.83333
2508.294	555.83333
2510.687	526.16667
2513.079	524.5
2515.469	523.16667
2517.858	527.5
2520.245	552.83333
2522.63	522.16667
2525.014	523.16667
2527.396	515.5
2529.776	521.5
2532.156	533.5
2534.533	516.83333
2536.909	517.5
2539.283	510.5
2541.656	519.5
2544.027	531.16667
2546.397	518.83333
2548.765	513.16667
2551.131	514.83333
2553.496	514.5
2555.86	514.5
2558.221	513.16667
2560.582	511.83333
2562.94	498.83333
2565.298	512.83333
2567.653	521.83333
2570.007	486.83333
2572.36	506.83333
2574.711	510.16667
2577.06	523.83333
2579.408	502.16667
2581.754	501.16667
2584.099	503.5
2586.442	501.16667
2588.784	499.83333
2591.124	508.16667
2593.463	495.16667
2595.8	502.5
2598.135	482.83333
2600.469	488.16667
2602.802	499.83333
2605.133	499.16667
2607.462	478.83333
2609.79	486.5
2612.116	489.5
2614.441	486.16667
2616.764	492.5
2619.086	488.5
2621.406	489.5
2623.725	498.5
2626.042	499.5
2628.358	481.83333
2630.672	490.5
2632.985	495.83333
2635.296	496.5
2637.606	492.83333
2639.914	483.83333
2642.22	488.83333
2644.525	484.16667
2646.829	487.5
2649.131	503.5
2651.432	501.83333
2653.731	494.16667
2656.028	497.83333
2658.324	493.83333
2660.619	488.83333
2662.912	506.16667
2665.204	488.16667
2667.494	511.5
2669.782	494.16667
2672.07	497.16667
2674.355	500.16667
2676.639	490.5
2678.922	486.16667
2681.203	496.83333
2683.483	482.5
2685.761	483.83333
2688.038	502.5
2690.313	507.83333
2692.587	501.5
2694.859	495.16667
2697.13	494.16667
2699.399	493.83333
2701.667	519.5
2703.933	508.16667
2706.198	510.16667
2708.461	516.83333
2710.723	520.16667
2712.984	514.83333
2715.243	534.83333
2717.5	520.16667
2719.757	528.83333
2722.011	524.83333
2724.264	530.83333
2726.516	547.5
2728.766	526.5
2731.015	526.5
2733.262	524.16667
2735.508	520.83333
2737.753	519.83333
2739.996	507.83333
2742.237	508.16667
2744.477	523.16667
2746.716	517.16667
2748.953	508.16667
2751.189	515.5
2753.423	505.16667
2755.656	489.16667
2757.887	493.16667
2760.117	482.16667
2762.346	488.16667
2764.573	476.5
2766.798	483.16667
2769.022	489.16667
2771.245	483.16667
2773.467	492.16667
2775.686	478.16667
2777.905	494.16667
2780.122	499.5
2782.337	505.5
2784.552	504.5
2786.764	509.83333
2788.976	508.5
2791.186	523.16667
2793.394	510.5
2795.601	527.16667
2797.807	529.83333
2800.011	538.83333
2802.214	554.5
2804.415	547.16667
2806.615	554.5
2808.814	570.5
2811.011	566.16667
2813.206	559.5
2815.401	578.16667
2817.594	587.16667
2819.785	606.16667
2821.975	587.5
2824.164	611.5
2826.351	631.5
2828.537	645.5
2830.722	662.5
2832.905	670.5
2835.086	687.5
2837.267	735.83333
2839.445	774.16667
2841.623	802.16667
2843.799	836.16667
2845.974	872.5
2848.147	915.83333
2850.319	949.16667
2852.489	981.5
2854.659	990.16667
2856.826	1017.5
2858.993	1049.83333
2861.158	1023.5
2863.321	1035.5
2865.483	1061.16667
2867.644	1067.83333
2869.804	1048.16667
2871.962	1048.5
2874.118	1043.16667
2876.274	1036.5
2878.428	1043.83333
2880.58	1051.83333
2882.731	1018.16667
2884.881	1042.5
2887.03	1040.5
2889.177	1043.16667
2891.322	1064.5
2893.467	1054.83333
2895.61	1044.83333
2897.751	1071.16667
2899.892	1079.83333
2902.03	1090.5
2904.168	1104.16667
2906.304	1095.16667
2908.439	1127.83333
2910.572	1089.16667
2912.704	1128.16667
2914.835	1125.83333
2916.965	1104.5
2919.093	1141.5
2921.219	1091.5
2923.345	1117.5
2925.469	1093.5
2927.591	1073.5
2929.712	1043.83333
2931.832	1037.83333
2933.951	1016.16667
2936.068	985.83333
2938.184	948.5
2940.299	935.83333
2942.412	899.16667
2944.524	847.5
2946.634	840.83333
2948.744	781.83333
2950.851	794.83333
2952.958	746.83333
2955.063	730.16667
2957.167	716.16667
2959.269	682.83333
2961.371	695.5
2963.471	645.83333
2965.569	655.16667
2967.666	608.5
2969.762	598.83333
2971.857	589.5
2973.95	557.16667
2976.042	560.16667
2978.133	536.5
2980.222	517.83333
2982.31	502.5
2984.396	488.5
2986.482	480.5
2988.566	484.16667
2990.648	471.16667
2992.73	464.83333
2994.81	443.5
2996.889	453.5
2998.966	446.83333
3001.042	444.83333
3003.117	439.83333
3005.191	433.16667
3007.263	417.5
3009.334	429.83333
3011.403	419.16667
3013.472	401.83333
3015.539	399.83333
3017.604	414.16667
3019.669	374.83333
3021.732	378.83333
3023.794	386.5
3025.854	366.5
3027.914	353.16667
3029.971	369.5
3032.028	365.5
3034.083	362.83333
3036.137	357.83333
3038.19	345.83333
3040.242	328.16667
3042.292	323.5
3044.341	325.5
3046.388	344.83333
3048.435	313.5
3050.48	339.16667
3052.524	317.83333
3054.566	299.5
3056.607	316.5
3058.647	309.5
3060.686	291.5
3062.723	280.83333
3064.759	276.83333
3066.794	0.83333
3068.828	-3.16667
3070.86	-0.5
