-0.839	468.5
3.438	490.83333
7.711	139.16667
11.981	57.16667
16.247	48.83333
20.509	46.83333
24.768	46.16667
29.024	49.5
33.276	48.5
37.524	50.16667
41.769	46.83333
46.01	39.5
50.247	54.5
54.481	65.16667
58.712	66.16667
62.939	54.5
67.162	67.16667
71.382	61.16667
75.599	51.16667
79.812	70.16667
84.021	89.5
88.227	66.5
92.429	68.83333
96.628	56.16667
100.823	72.16667
105.015	84.16667
109.204	85.16667
113.388	83.83333
117.57	85.83333
121.748	99.83333
125.922	89.16667
130.093	113.16667
134.261	116.83333
138.425	113.83333
142.585	161.16667
146.742	159.16667
150.896	198.83333
155.046	244.83333
159.193	391.16667
163.336	694.83333
167.476	1272.16667
171.613	2325.5
175.746	3852.5
179.875	5708.83333
184.002	7431.83333
188.124	8574.16667
192.244	8994.5
196.36	8942.16667
200.472	8764.83333
204.581	8619.5
208.687	8512.83333
212.79	8454.16667
216.889	8539.83333
220.984	8563.5
225.077	8698.83333
229.165	8887.5
233.251	9042.5
237.333	9160.5
241.412	9250.5
245.487	9162.83333
249.559	9120.5
253.628	9021.5
257.694	8870.83333
261.756	8748.83333
265.814	8573.83333
269.87	8324.83333
273.922	8024.16667
277.97	7669.16667
282.016	7385.16667
286.058	7097.16667
290.097	6945.5
294.132	6855.5
298.164	6700.5
302.193	6502.83333
306.219	6111.16667
310.241	5627.16667
314.26	5148.5
318.276	4734.83333
322.288	4444.83333
326.297	4214.83333
330.303	4063.16667
334.305	3947.5
338.305	3877.5
342.301	3837.5
346.294	3819.16667
350.283	3782.5
354.269	3762.16667
358.252	3751.5
362.232	3713.83333
366.209	3707.5
370.182	3653.5
374.152	3680.5
378.119	3681.16667
382.083	3711.16667
386.043	3705.5
390	3670.16667
393.954	3652.16667
397.905	3597.5
401.852	3582.5
405.797	3502.83333
409.738	3443.83333
413.676	3417.5
417.61	3388.83333
421.542	3349.83333
425.47	3296.16667
429.396	3257.16667
433.318	3224.16667
437.236	3225.83333
441.152	3202.5
445.065	3154.83333
448.974	3132.83333
452.88	3122.16667
456.783	3089.16667
460.683	3091.16667
464.58	3080.83333
468.473	3097.5
472.364	3104.83333
476.251	3113.16667
480.135	3096.83333
484.016	3153.83333
487.894	3158.83333
491.769	3171.16667
495.641	3175.5
499.509	3177.5
503.375	3147.83333
507.237	3148.83333
511.096	3122.83333
514.952	3120.5
518.805	3109.5
522.655	3103.16667
526.502	3097.5
530.346	3118.16667
534.187	3102.5
538.024	3118.5
541.859	3120.5
545.69	3127.5
549.519	3116.16667
553.344	3096.5
557.166	3039.16667
560.985	3019.83333
564.802	2978.16667
568.615	2955.83333
572.425	2926.83333
576.232	2914.83333
580.036	2887.83333
583.836	2909.16667
587.634	2895.5
591.429	2908.5
595.221	2928.5
599.01	2961.5
602.796	2981.16667
606.578	3045.83333
610.358	3031.5
614.135	3006.16667
617.909	3023.83333
621.679	3013.16667
625.447	2989.16667
629.212	2999.83333
632.973	2992.5
636.732	2993.83333
640.488	2983.16667
644.241	2948.83333
647.991	2947.5
651.737	2986.83333
655.481	2971.5
659.222	3001.5
662.96	2994.16667
666.695	3014.16667
670.427	2989.83333
674.156	3022.83333
677.882	2995.5
681.605	2978.5
685.325	2953.16667
689.043	2972.16667
692.757	2942.5
696.468	2949.83333
700.177	2962.16667
703.882	2968.5
707.585	2940.83333
711.284	2949.83333
714.981	2932.16667
718.675	2957.16667
722.366	2935.16667
726.054	2922.83333
729.739	2942.83333
733.421	2910.16667
737.1	2934.5
740.777	2950.16667
744.45	2969.16667
748.121	2994.83333
751.789	3037.5
755.453	3042.5
759.115	3068.16667
762.774	3071.5
766.431	3102.5
770.084	3138.83333
773.734	3170.5
777.382	3196.5
781.027	3242.83333
784.669	3254.83333
788.308	3273.16667
791.944	3252.5
795.577	3298.16667
799.208	3333.83333
802.835	3363.5
806.46	3413.83333
810.082	3443.5
813.701	3472.5
817.317	3529.5
820.931	3484.83333
824.542	3482.83333
828.149	3423.83333
831.754	3386.16667
835.357	3347.5
838.956	3355.5
842.553	3332.16667
846.146	3292.16667
849.737	3275.5
853.326	3294.16667
856.911	3296.83333
860.493	3364.83333
864.073	3344.83333
867.65	3408.5
871.225	3440.83333
874.796	3445.83333
878.365	3437.5
881.931	3459.16667
885.494	3501.83333
889.054	3511.16667
892.612	3489.5
896.166	3476.5
899.719	3437.83333
903.268	3418.83333
906.814	3409.83333
910.358	3392.5
913.899	3384.5
917.438	3410.83333
920.973	3385.16667
924.506	3433.5
928.036	3468.16667
931.564	3501.16667
935.088	3527.16667
938.61	3519.83333
942.129	3545.16667
945.646	3608.83333
949.16	3701.83333
952.671	3768.5
956.179	3848.83333
959.685	3861.83333
963.188	3875.83333
966.688	3825.83333
970.185	3729.83333
973.68	3644.83333
977.173	3598.5
980.662	3578.5
984.149	3595.83333
987.633	3617.16667
991.114	3670.5
994.593	3779.16667
998.069	3905.5
1001.542	4024.16667
1005.013	3936.16667
1008.481	3704.5
1011.947	3587.83333
1015.409	3594.5
1018.869	3582.16667
1022.327	3577.5
1025.782	3598.16667
1029.234	3588.16667
1032.683	3534.16667
1036.13	3422.83333
1039.574	3320.16667
1043.016	3232.16667
1046.455	3185.5
1049.891	3120.16667
1053.325	3114.5
1056.756	3099.16667
1060.184	3108.5
1063.61	3154.83333
1067.033	3146.16667
1070.454	3137.5
1073.872	3181.83333
1077.287	3197.16667
1080.7	3188.5
1084.11	3207.16667
1087.517	3154.5
1090.922	3122.83333
1094.325	3079.5
1097.724	3050.83333
1101.122	3060.83333
1104.516	3043.5
1107.908	3041.16667
1111.298	3105.16667
1114.684	3126.5
1118.069	3167.16667
1121.45	3202.83333
1124.83	3167.16667
1128.206	3185.5
1131.58	3225.5
1134.951	3289.16667
1138.32	3381.83333
1141.687	3529.5
1145.05	3612.16667
1148.412	3660.83333
1151.77	3648.16667
1155.126	3632.83333
1158.48	3637.16667
1161.831	3666.83333
1165.18	3700.83333
1168.525	3738.16667
1171.869	3771.5
1175.21	3795.83333
1178.548	3852.83333
1181.884	3907.5
1185.217	3948.83333
1188.548	3967.83333
1191.877	4072.83333
1195.202	4128.5
1198.526	4205.83333
1201.846	4229.83333
1205.165	4206.16667
1208.48	4194.16667
1211.794	4204.83333
1215.104	4166.5
1218.413	4182.16667
1221.719	4136.5
1225.022	4122.5
1228.323	4068.83333
1231.621	4053.5
1234.917	4038.16667
1238.21	4073.16667
1241.501	4062.16667
1244.79	4068.16667
1248.076	4057.5
1251.359	4093.16667
1254.64	4158.83333
1257.919	4167.16667
1261.195	4248.16667
1264.468	4305.5
1267.74	4375.5
1271.008	4412.16667
1274.275	4355.5
1277.538	4339.83333
1280.8	4338.5
1284.059	4334.5
1287.315	4359.83333
1290.569	4384.5
1293.821	4408.16667
1297.07	4424.5
1300.317	4430.16667
1303.562	4405.16667
1306.803	4391.16667
1310.043	4375.5
1313.28	4352.5
1316.515	4272.83333
1319.747	4280.5
1322.977	4207.5
1326.204	4159.16667
1329.429	4132.16667
1332.652	4117.16667
1335.872	4102.5
1339.09	4096.16667
1342.306	4084.5
1345.519	4053.16667
1348.729	4033.83333
1351.938	4052.83333
1355.144	3957.83333
1358.347	3882.16667
1361.548	3880.16667
1364.747	3920.5
1367.944	3899.16667
1371.138	3928.16667
1374.329	3892.83333
1377.518	3941.83333
1380.705	3967.83333
1383.89	3932.83333
1387.072	3846.5
1390.252	3719.83333
1393.429	3601.16667
1396.605	3484.5
1399.777	3383.83333
1402.948	3331.16667
1406.116	3300.5
1409.282	3323.83333
1412.445	3335.5
1415.606	3338.83333
1418.765	3377.5
1421.921	3442.16667
1425.075	3520.83333
1428.227	3649.83333
1431.376	3797.5
1434.524	3954.16667
1437.668	4049.5
1440.811	4092.5
1443.951	4118.5
1447.089	4123.16667
1450.224	4123.5
1453.357	4079.83333
1456.488	4058.83333
1459.617	3954.16667
1462.743	3908.5
1465.867	3860.5
1468.989	3817.16667
1472.108	3754.5
1475.225	3668.16667
1478.34	3666.83333
1481.453	3649.83333
1484.563	3668.16667
1487.671	3675.83333
1490.776	3747.16667
1493.88	3818.5
1496.981	3900.16667
1500.08	3952.83333
1503.176	4033.5
1506.271	4099.5
1509.363	4142.83333
1512.452	4184.5
1515.54	4276.5
1518.625	4398.16667
1521.708	4579.16667
1524.789	4842.16667
1527.867	5150.16667
1530.944	5440.5
1534.018	5610.5
1537.089	5718.83333
1540.159	5575.16667
1543.226	5414.16667
1546.291	5210.5
1549.354	5027.16667
1552.415	4845.5
1555.473	4752.16667
1558.529	4669.83333
1561.583	4652.5
1564.634	4645.5
1567.684	4611.16667
1570.731	4651.83333
1573.776	4742.16667
1576.819	4766.5
1579.859	4849.16667
1582.898	4888.16667
1585.934	4922.83333
1588.968	4973.83333
1591.999	4905.5
1595.029	4921.83333
1598.056	4963.16667
1601.081	4986.83333
1604.104	4953.83333
1607.125	4936.83333
1610.144	4820.83333
1613.16	4711.83333
1616.174	4639.5
1619.186	4569.16667
1622.196	4492.5
1625.203	4403.5
1628.209	4346.83333
1631.212	4336.83333
1634.213	4338.16667
1637.212	4349.16667
1640.209	4282.5
1643.203	4186.83333
1646.196	4072.5
1649.186	3909.16667
1652.174	3796.83333
1655.16	3662.5
1658.144	3562.16667
1661.125	3421.83333
1664.105	3244.83333
1667.082	3085.83333
1670.057	2893.5
1673.03	2736.83333
1676.001	2549.83333
1678.97	2383.16667
1681.937	2227.16667
1684.901	2108.16667
1687.863	2027.16667
1690.824	1942.83333
1693.782	1912.83333
1696.738	1835.16667
1699.692	1808.16667
1702.643	1752.5
1705.593	1745.83333
1708.54	1715.5
1711.486	1711.16667
1714.429	1687.16667
1717.37	1657.83333
1720.309	1636.16667
1723.246	1629.5
1726.181	1591.5
1729.113	1595.83333
1732.044	1580.5
1734.972	1561.83333
1737.899	1555.5
1740.823	1557.83333
1743.745	1519.16667
1746.665	1491.16667
1749.583	1489.5
1752.499	1458.83333
1755.413	1430.16667
1758.325	1406.5
1761.235	1406.5
1764.142	1369.16667
1767.048	1381.16667
1769.951	1364.83333
1772.852	1336.83333
1775.752	1347.83333
1778.649	1360.5
1781.544	1336.5
1784.437	1321.5
1787.328	1314.16667
1790.217	1310.5
1793.104	1275.5
1795.989	1293.5
1798.872	1275.83333
1801.753	1310.5
1804.631	1284.5
1807.508	1283.83333
1810.383	1273.83333
1813.255	1270.83333
1816.126	1270.83333
1818.994	1266.16667
1821.861	1257.16667
1824.725	1248.16667
1827.587	1257.16667
1830.448	1228.83333
1833.306	1216.83333
1836.162	1230.83333
1839.017	1200.83333
1841.869	1205.5
1844.719	1200.83333
1847.567	1186.16667
1850.414	1188.5
1853.258	1178.83333
1856.1	1193.5
1858.94	1202.5
1861.778	1184.16667
1864.614	1178.5
1867.448	1181.83333
1870.28	1168.5
1873.111	1183.5
1875.939	1192.5
1878.765	1180.16667
1881.589	1162.16667
1884.411	1161.83333
1887.231	1163.83333
1890.049	1157.16667
1892.865	1167.5
1895.68	1132.16667
1898.492	1154.83333
1901.302	1131.83333
1904.11	1125.83333
1906.916	1114.83333
1909.721	1106.5
1912.523	1124.83333
1915.323	1102.83333
1918.122	1100.16667
1920.918	1113.5
1923.712	1100.16667
1926.505	1102.16667
1929.295	1073.16667
1932.084	1099.5
1934.87	1112.16667
1937.655	1091.83333
1940.438	1091.83333
1943.218	1092.83333
1945.997	1093.5
1948.774	1103.16667
1951.549	1073.5
1954.322	1077.5
1957.093	1085.16667
1959.862	1058.83333
1962.629	1073.83333
1965.394	1053.83333
1968.157	1049.5
1970.918	1067.16667
1973.678	1061.5
1976.435	1049.16667
1979.19	1032.16667
1981.944	1047.5
1984.696	1032.16667
1987.445	1033.83333
1990.193	1037.16667
1992.939	1041.16667
1995.683	1029.16667
1998.425	1013.83333
2001.165	1042.5
2003.903	1008.5
2006.639	1003.16667
2009.374	1007.83333
2012.106	1025.83333
2014.837	991.83333
2017.566	1015.83333
2020.292	1016.5
2023.017	995.16667
2025.74	1008.16667
2028.461	997.83333
2031.18	1011.16667
2033.898	988.5
2036.613	999.83333
2039.327	1009.16667
2042.038	967.5
2044.748	979.16667
2047.456	978.83333
2050.162	967.16667
2052.866	957.16667
2055.568	981.5
2058.268	958.5
2060.967	992.83333
2063.663	959.83333
2066.358	963.83333
2069.051	928.5
2071.742	953.16667
2074.431	952.83333
2077.118	957.16667
2079.804	946.83333
2082.487	951.83333
2085.169	965.5
2087.849	975.16667
2090.527	956.5
2093.203	977.16667
2095.877	963.16667
2098.55	967.16667
2101.22	984.5
2103.889	982.83333
2106.556	959.83333
2109.221	1000.5
2111.884	1006.5
2114.546	1065.16667
2117.205	1116.5
2119.863	1175.83333
2122.519	1248.5
2125.173	1307.83333
2127.825	1423.83333
2130.475	1441.83333
2133.124	1440.5
2135.771	1401.16667
2138.416	1343.5
2141.059	1285.5
2143.7	1258.83333
2146.339	1188.5
2148.977	1114.5
2151.613	1114.5
2154.247	1085.83333
2156.879	1084.5
2159.51	1066.83333
2162.138	1058.83333
2164.765	1058.83333
2167.39	1053.5
2170.013	1072.16667
2172.634	1083.5
2175.254	1079.16667
2177.872	1095.5
2180.488	1059.16667
2183.102	1050.5
2185.714	1025.16667
2188.325	994.83333
2190.934	998.16667
2193.541	985.5
2196.146	957.5
2198.75	939.5
2201.351	908.16667
2203.951	883.5
2206.549	899.16667
2209.146	885.83333
2211.74	854.83333
2214.333	875.5
2216.924	852.16667
2219.514	845.83333
2222.101	834.16667
2224.687	861.5
2227.271	840.83333
2229.853	833.5
2232.433	831.83333
2235.012	851.5
2237.589	839.16667
2240.164	856.5
2242.738	831.83333
2245.309	811.5
2247.879	838.16667
2250.448	810.16667
2253.014	779.83333
2255.579	770.83333
2258.142	768.5
2260.703	766.16667
2263.262	761.5
2265.82	748.83333
2268.376	765.5
2270.93	743.83333
2273.483	745.5
2276.033	756.16667
2278.583	737.5
2281.13	737.83333
2283.675	741.16667
2286.219	725.16667
2288.761	732.16667
2291.302	725.16667
2293.841	730.5
2296.377	690.5
2298.913	708.83333
2301.446	714.5
2303.978	704.16667
2306.508	703.5
2309.037	705.16667
2311.563	703.83333
2314.088	706.83333
2316.612	688.83333
2319.133	694.83333
2321.653	691.5
2324.171	674.83333
2326.688	684.83333
2329.202	680.16667
2331.715	673.83333
2334.227	682.5
2336.736	669.16667
2339.244	677.16667
2341.751	658.83333
2344.255	680.5
2346.758	660.5
2349.259	644.16667
2351.759	659.16667
2354.257	657.16667
2356.753	644.16667
2359.247	660.83333
2361.74	661.16667
2364.231	652.5
2366.721	650.83333
2369.209	642.16667
2371.695	643.5
2374.179	634.83333
2376.662	638.5
2379.143	650.5
2381.622	640.5
2384.1	634.16667
2386.576	634.16667
2389.051	646.5
2391.524	646.16667
2393.995	638.83333
2396.464	631.83333
2398.932	611.5
2401.398	626.5
2403.863	619.5
2406.325	624.5
2408.787	618.5
2411.246	623.5
2413.704	617.16667
2416.16	607.5
2418.615	615.16667
2421.068	613.16667
2423.519	611.83333
2425.969	598.83333
2428.417	622.5
2430.863	637.16667
2433.308	609.16667
2435.751	610.5
2438.193	592.5
2440.633	605.16667
2443.071	600.5
2445.508	591.83333
2447.943	589.5
2450.376	585.83333
2452.808	598.83333
2455.238	581.16667
2457.667	614.16667
2460.093	591.83333
2462.519	572.16667
2464.942	587.83333
2467.365	591.83333
2469.785	583.5
2472.204	575.83333
2474.621	570.5
2477.037	592.83333
2479.451	569.83333
2481.863	567.83333
2484.274	563.83333
2486.683	575.16667
2489.091	576.83333
2491.497	566.16667
2493.901	559.83333
2496.304	570.16667
2498.705	570.5
2501.105	563.16667
2503.503	584.83333
2505.899	559.16667
2508.294	583.16667
2510.687	556.5
2513.079	550.83333
2515.469	542.5
2517.858	557.16667
2520.245	569.5
2522.63	554.5
2525.014	539.16667
2527.396	544.16667
2529.776	537.16667
2532.156	549.16667
2534.533	542.83333
2536.909	533.83333
2539.283	528.83333
2541.656	529.83333
2544.027	550.16667
2546.397	545.5
2548.765	529.83333
2551.131	530.16667
2553.496	538.16667
2555.86	549.16667
2558.221	534.83333
2560.582	531.16667
2562.94	520.83333
2565.298	522.5
2567.653	540.16667
2570.007	504.5
2572.36	533.83333
2574.711	508.5
2577.06	536.16667
2579.408	523.83333
2581.754	523.16667
2584.099	525.5
2586.442	512.16667
2588.784	527.16667
2591.124	521.83333
2593.463	518.5
2595.8	515.16667
2598.135	498.5
2600.469	509.83333
2602.802	520.83333
2605.133	520.5
2607.462	511.16667
2609.79	499.83333
2612.116	516.83333
2614.441	511.83333
2616.764	518.83333
2619.086	512.5
2621.406	504.16667
2623.725	515.16667
2626.042	509.5
2628.358	506.83333
2630.672	501.5
2632.985	517.83333
2635.296	505.16667
2637.606	504.83333
2639.914	496.16667
2642.22	500.5
2644.525	499.16667
2646.829	505.83333
2649.131	509.16667
2651.432	519.16667
2653.731	503.16667
2656.028	513.5
2658.324	514.83333
2660.619	501.16667
2662.912	514.16667
2665.204	505.16667
2667.494	505.83333
2669.782	500.16667
2672.07	507.5
2674.355	519.5
2676.639	512.5
2678.922	500.5
2681.203	513.83333
2683.483	489.83333
2685.761	496.5
2688.038	508.5
2690.313	524.16667
2692.587	506.83333
2694.859	499.16667
2697.13	503.83333
2699.399	504.16667
2701.667	524.16667
2703.933	525.16667
2706.198	527.5
2708.461	531.16667
2710.723	520.5
2712.984	526.83333
2715.243	532.83333
2717.5	531.83333
2719.757	541.83333
2722.011	532.16667
2724.264	546.5
2726.516	555.5
2728.766	541.83333
2731.015	538.16667
2733.262	541.83333
2735.508	531.83333
2737.753	534.16667
2739.996	516.16667
2742.237	524.5
2744.477	527.5
2746.716	526.83333
2748.953	521.16667
2751.189	525.16667
2753.423	516.5
2755.656	498.16667
2757.887	496.16667
2760.117	502.16667
2762.346	502.5
2764.573	506.16667
2766.798	493.83333
2769.022	501.16667
2771.245	504.5
2773.467	494.5
2775.686	507.16667
2777.905	507.5
2780.122	502.16667
2782.337	506.83333
2784.552	504.5
2786.764	504.5
2788.976	521.5
2791.186	524.83333
2793.394	526.5
2795.601	536.16667
2797.807	534.5
2800.011	539.16667
2802.214	554.83333
2804.415	546.5
2806.615	552.5
2808.814	569.5
2811.011	573.5
2813.206	554.5
2815.401	583.5
2817.594	590.83333
2819.785	604.5
2821.975	589.5
2824.164	610.83333
2826.351	630.16667
2828.537	651.5
2830.722	666.83333
2832.905	673.16667
2835.086	708.83333
2837.267	745.16667
2839.445	778.83333
2841.623	805.83333
2843.799	842.5
2845.974	879.5
2848.147	930.5
2850.319	948.5
2852.489	998.16667
2854.659	996.16667
2856.826	1030.16667
2858.993	1052.83333
2861.158	1032.16667
2863.321	1043.16667
2865.483	1066.83333
2867.644	1071.16667
2869.804	1064.5
2871.962	1052.83333
2874.118	1064.16667
2876.274	1063.83333
2878.428	1060.83333
2880.58	1049.83333
2882.731	1057.83333
2884.881	1044.16667
2887.03	1055.83333
2889.177	1054.83333
2891.322	1064.5
2893.467	1055.5
2895.61	1065.5
2897.751	1098.16667
2899.892	1096.5
2902.03	1107.83333
2904.168	1120.5
2906.304	1115.5
2908.439	1145.16667
2910.572	1123.83333
2912.704	1135.5
2914.835	1140.16667
2916.965	1139.16667
2919.093	1146.83333
2921.219	1123.83333
2923.345	1139.5
2925.469	1090.16667
2927.591	1097.5
2929.712	1056.16667
2931.832	1063.83333
2933.951	1031.83333
2936.068	1001.16667
2938.184	957.16667
2940.299	940.16667
2942.412	905.16667
2944.524	862.5
2946.634	837.16667
2948.744	785.16667
2950.851	801.16667
2952.958	751.16667
2955.063	749.5
2957.167	728.83333
2959.269	700.5
2961.371	709.83333
2963.471	659.5
2965.569	655.16667
2967.666	626.83333
2969.762	603.83333
2971.857	594.16667
2973.95	584.5
2976.042	571.83333
2978.133	551.83333
2980.222	530.5
2982.31	509.16667
2984.396	504.5
2986.482	488.16667
2988.566	489.83333
2990.648	469.16667
2992.73	465.83333
2994.81	462.83333
2996.889	464.5
2998.966	446.83333
3001.042	458.5
3003.117	443.83333
3005.191	446.83333
3007.263	437.83333
3009.334	430.16667
3011.403	422.16667
3013.472	404.5
3015.539	413.83333
3017.604	424.5
3019.669	382.5
3021.732	381.16667
3023.794	391.16667
3025.854	370.5
3027.914	365.16667
3029.971	373.16667
3032.028	372.5
3034.083	369.16667
3036.137	367.83333
3038.19	347.5
3040.242	342.5
3042.292	333.16667
3044.341	328.16667
3046.388	348.16667
3048.435	316.16667
3050.48	330.83333
3052.524	329.5
3054.566	309.83333
3056.607	321.5
3058.647	322.16667
3060.686	292.5
3062.723	282.83333
3064.759	278.83333
3066.794	-0.5
3068.828	-2.5
3070.86	-2.5
