-0.839	445.70833
3.438	486.375
7.711	134.04167
11.981	58.04167
16.247	46.04167
20.509	42.70833
24.768	46.04167
29.024	52.04167
33.276	46.04167
37.524	48.375
41.769	43.375
46.01	37.70833
50.247	54.375
54.481	61.375
58.712	67.70833
62.939	53.375
67.162	65.04167
71.382	59.04167
75.599	49.70833
79.812	66.70833
84.021	84.04167
88.227	65.04167
92.429	66.04167
96.628	56.375
100.823	78.04167
105.015	83.375
109.204	80.375
113.388	84.70833
117.57	88.375
121.748	97.04167
125.922	89.375
130.093	106.70833
134.261	118.70833
138.425	117.70833
142.585	161.375
146.742	162.70833
150.896	198.04167
155.046	252.375
159.193	403.70833
163.336	699.70833
167.476	1286.70833
171.613	2361.375
175.746	3912.04167
179.875	5793.70833
184.002	7503.70833
188.124	8666.70833
192.244	9030.375
196.36	8938.375
200.472	8782.70833
204.581	8494.375
208.687	8345.375
212.79	8315.70833
216.889	8356.375
220.984	8420.70833
225.077	8515.04167
229.165	8626.70833
233.251	8784.375
237.333	8873.70833
241.412	8918.04167
245.487	8880.375
249.559	8797.04167
253.628	8683.375
257.694	8579.70833
261.756	8439.04167
265.814	8270.70833
269.87	7940.04167
273.922	7645.70833
277.97	7364.04167
282.016	7088.70833
286.058	6816.70833
290.097	6746.04167
294.132	6661.375
298.164	6522.04167
302.193	6240.375
306.219	5804.04167
310.241	5300.70833
314.26	4860.04167
318.276	4446.70833
322.288	4165.375
326.297	3950.04167
330.303	3758.70833
334.305	3681.375
338.305	3579.375
342.301	3536.70833
346.294	3501.70833
350.283	3483.70833
354.269	3452.70833
358.252	3448.375
362.232	3380.70833
366.209	3361.04167
370.182	3367.70833
374.152	3365.04167
378.119	3346.70833
382.083	3336.375
386.043	3347.04167
390	3295.70833
393.954	3287.375
397.905	3248.375
401.852	3218.375
405.797	3166.04167
409.738	3119.70833
413.676	3091.04167
417.61	3059.375
421.542	3018.375
425.47	2991.70833
429.396	2956.375
433.318	2948.04167
437.236	2927.375
441.152	2917.70833
445.065	2860.04167
448.974	2852.375
452.88	2805.70833
456.783	2797.70833
460.683	2792.04167
464.58	2799.375
468.473	2794.04167
472.364	2801.04167
476.251	2820.375
480.135	2850.04167
484.016	2834.70833
487.894	2863.375
491.769	2859.70833
495.641	2872.70833
499.509	2872.04167
503.375	2865.375
507.237	2860.70833
511.096	2856.375
514.952	2831.375
518.805	2843.375
522.655	2828.375
526.502	2816.70833
530.346	2824.375
534.187	2843.04167
538.024	2831.04167
541.859	2834.04167
545.69	2872.375
549.519	2852.04167
553.344	2815.70833
557.166	2769.375
560.985	2742.04167
564.802	2728.04167
568.615	2669.375
572.425	2660.04167
576.232	2652.375
580.036	2649.70833
583.836	2653.375
587.634	2639.04167
591.429	2655.70833
595.221	2686.04167
599.01	2700.375
602.796	2736.375
606.578	2749.375
610.358	2758.375
614.135	2730.04167
617.909	2750.70833
621.679	2736.375
625.447	2732.70833
629.212	2722.70833
632.973	2716.70833
636.732	2755.70833
640.488	2738.375
644.241	2707.375
647.991	2710.04167
651.737	2733.04167
655.481	2695.04167
659.222	2686.70833
662.96	2706.375
666.695	2711.04167
670.427	2719.70833
674.156	2736.04167
677.882	2722.375
681.605	2700.04167
685.325	2705.70833
689.043	2671.375
692.757	2673.04167
696.468	2673.375
700.177	2733.375
703.882	2704.375
707.585	2695.70833
711.284	2685.04167
714.981	2686.04167
718.675	2690.70833
722.366	2708.375
726.054	2681.04167
729.739	2697.04167
733.421	2684.70833
737.1	2681.70833
740.777	2722.70833
744.45	2726.375
748.121	2751.04167
751.789	2808.70833
755.453	2780.70833
759.115	2816.04167
762.774	2863.70833
766.431	2865.70833
770.084	2887.375
773.734	2924.04167
777.382	2992.04167
781.027	3008.04167
784.669	3028.375
788.308	3018.70833
791.944	3051.375
795.577	3083.04167
799.208	3100.375
802.835	3138.375
806.46	3167.04167
810.082	3221.04167
813.701	3233.375
817.317	3239.70833
820.931	3236.375
824.542	3257.04167
828.149	3219.04167
831.754	3170.375
835.357	3152.04167
838.956	3170.70833
842.553	3151.04167
846.146	3120.375
849.737	3096.04167
853.326	3118.70833
856.911	3126.375
860.493	3188.70833
864.073	3177.375
867.65	3250.375
871.225	3272.70833
874.796	3295.70833
878.365	3300.04167
881.931	3310.375
885.494	3344.70833
889.054	3339.375
892.612	3361.04167
896.166	3308.70833
899.719	3284.04167
903.268	3243.04167
906.814	3232.70833
910.358	3239.04167
913.899	3193.375
917.438	3238.70833
920.973	3221.04167
924.506	3238.375
928.036	3291.375
931.564	3317.375
935.088	3353.04167
938.61	3358.04167
942.129	3373.375
945.646	3489.70833
949.16	3545.375
952.671	3614.04167
956.179	3646.70833
959.685	3648.375
963.188	3632.04167
966.688	3592.70833
970.185	3493.70833
973.68	3425.70833
977.173	3414.375
980.662	3390.04167
984.149	3400.375
987.633	3400.04167
991.114	3461.70833
994.593	3551.375
998.069	3658.04167
1001.542	3774.70833
1005.013	3704.70833
1008.481	3489.375
1011.947	3451.375
1015.409	3406.375
1018.869	3440.04167
1022.327	3405.70833
1025.782	3391.375
1029.234	3386.04167
1032.683	3351.04167
1036.13	3241.04167
1039.574	3129.04167
1043.016	3041.04167
1046.455	2984.375
1049.891	2938.375
1053.325	2933.04167
1056.756	2928.375
1060.184	2973.375
1063.61	2976.70833
1067.033	2966.04167
1070.454	2959.375
1073.872	3038.04167
1077.287	3017.04167
1080.7	3012.04167
1084.11	3005.70833
1087.517	2994.04167
1090.922	2946.70833
1094.325	2920.70833
1097.724	2879.04167
1101.122	2891.04167
1104.516	2884.70833
1107.908	2915.70833
1111.298	2959.70833
1114.684	2994.70833
1118.069	3016.70833
1121.45	3045.375
1124.83	3007.375
1128.206	3047.375
1131.58	3094.375
1134.951	3163.70833
1138.32	3272.70833
1141.687	3387.70833
1145.05	3496.04167
1148.412	3528.70833
1151.77	3531.375
1155.126	3541.375
1158.48	3518.04167
1161.831	3576.04167
1165.18	3563.375
1168.525	3618.70833
1171.869	3675.04167
1175.21	3710.04167
1178.548	3786.04167
1181.884	3827.375
1185.217	3859.04167
1188.548	3907.04167
1191.877	3955.375
1195.202	4033.70833
1198.526	4115.04167
1201.846	4091.70833
1205.165	4092.375
1208.48	4042.70833
1211.794	4036.375
1215.104	4054.375
1218.413	4051.375
1221.719	4028.04167
1225.022	3975.375
1228.323	3963.04167
1231.621	3944.70833
1234.917	3923.375
1238.21	3941.04167
1241.501	3938.04167
1244.79	3937.04167
1248.076	3951.70833
1251.359	3988.70833
1254.64	4018.375
1257.919	4031.375
1261.195	4131.70833
1264.468	4186.04167
1267.74	4263.04167
1271.008	4290.375
1274.275	4255.70833
1277.538	4180.04167
1280.8	4207.70833
1284.059	4208.04167
1287.315	4225.04167
1290.569	4225.70833
1293.821	4289.04167
1297.07	4275.04167
1300.317	4310.70833
1303.562	4329.375
1306.803	4248.04167
1310.043	4228.375
1313.28	4191.70833
1316.515	4132.70833
1319.747	4112.70833
1322.977	4064.375
1326.204	4004.70833
1329.429	3953.375
1332.652	3920.70833
1335.872	3916.04167
1339.09	3896.70833
1342.306	3909.70833
1345.519	3880.70833
1348.729	3825.70833
1351.938	3835.70833
1355.144	3760.04167
1358.347	3704.04167
1361.548	3695.70833
1364.747	3703.70833
1367.944	3692.04167
1371.138	3704.375
1374.329	3710.70833
1377.518	3763.375
1380.705	3784.70833
1383.89	3771.04167
1387.072	3640.375
1390.252	3507.375
1393.429	3436.375
1396.605	3302.70833
1399.777	3243.70833
1402.948	3182.375
1406.116	3173.375
1409.282	3170.70833
1412.445	3164.375
1415.606	3207.70833
1418.765	3247.70833
1421.921	3293.70833
1425.075	3360.70833
1428.227	3505.375
1431.376	3672.70833
1434.524	3816.04167
1437.668	3897.375
1440.811	3927.375
1443.951	3939.70833
1447.089	3954.70833
1450.224	3944.70833
1453.357	3928.04167
1456.488	3897.70833
1459.617	3856.04167
1462.743	3818.70833
1465.867	3727.04167
1468.989	3669.70833
1472.108	3647.04167
1475.225	3584.70833
1478.34	3543.04167
1481.453	3564.04167
1484.563	3548.375
1487.671	3586.70833
1490.776	3628.70833
1493.88	3734.70833
1496.981	3811.04167
1500.08	3879.70833
1503.176	3952.70833
1506.271	4037.04167
1509.363	4087.04167
1512.452	4117.70833
1515.54	4220.04167
1518.625	4327.04167
1521.708	4513.375
1524.789	4730.70833
1527.867	5029.375
1530.944	5355.04167
1534.018	5541.70833
1537.089	5656.04167
1540.159	5571.375
1543.226	5402.375
1546.291	5209.04167
1549.354	5042.04167
1552.415	4869.04167
1555.473	4753.04167
1558.529	4666.375
1561.583	4633.04167
1564.634	4620.70833
1567.684	4627.04167
1570.731	4621.04167
1573.776	4688.375
1576.819	4757.375
1579.859	4816.375
1582.898	4862.375
1585.934	4927.375
1588.968	4933.04167
1591.999	4900.04167
1595.029	4903.375
1598.056	4901.04167
1601.081	4955.70833
1604.104	4908.04167
1607.125	4864.04167
1610.144	4754.70833
1613.16	4653.70833
1616.174	4540.04167
1619.186	4440.375
1622.196	4354.04167
1625.203	4251.70833
1628.209	4164.375
1631.212	4122.70833
1634.213	4095.70833
1637.212	4078.04167
1640.209	4020.70833
1643.203	3877.375
1646.196	3797.70833
1649.186	3650.04167
1652.174	3501.70833
1655.16	3403.04167
1658.144	3262.04167
1661.125	3133.70833
1664.105	2991.70833
1667.082	2855.04167
1670.057	2692.375
1673.03	2524.70833
1676.001	2378.375
1678.97	2216.375
1681.937	2091.375
1684.901	1994.375
1687.863	1901.70833
1690.824	1838.04167
1693.782	1794.04167
1696.738	1721.375
1699.692	1687.70833
1702.643	1674.70833
1705.593	1645.04167
1708.54	1616.375
1711.486	1601.70833
1714.429	1573.04167
1717.37	1554.375
1720.309	1538.375
1723.246	1535.70833
1726.181	1502.70833
1729.113	1516.375
1732.044	1481.04167
1734.972	1459.375
1737.899	1455.375
1740.823	1434.04167
1743.745	1405.70833
1746.665	1395.70833
1749.583	1355.70833
1752.499	1361.04167
1755.413	1331.70833
1758.325	1333.70833
1761.235	1315.04167
1764.142	1273.04167
1767.048	1264.375
1769.951	1269.375
1772.852	1255.70833
1775.752	1258.70833
1778.649	1227.375
1781.544	1248.04167
1784.437	1218.04167
1787.328	1220.04167
1790.217	1207.70833
1793.104	1194.375
1795.989	1189.70833
1798.872	1175.04167
1801.753	1204.70833
1804.631	1191.04167
1807.508	1188.70833
1810.383	1180.375
1813.255	1171.375
1816.126	1174.70833
1818.994	1148.70833
1821.861	1164.70833
1824.725	1140.375
1827.587	1149.375
1830.448	1144.04167
1833.306	1139.375
1836.162	1130.375
1839.017	1114.375
1841.869	1123.375
1844.719	1121.375
1847.567	1095.375
1850.414	1098.375
1853.258	1092.70833
1856.1	1106.375
1858.94	1119.04167
1861.778	1088.375
1864.614	1090.375
1867.448	1094.70833
1870.28	1087.375
1873.111	1103.70833
1875.939	1088.375
1878.765	1111.04167
1881.589	1095.375
1884.411	1078.70833
1887.231	1087.70833
1890.049	1087.375
1892.865	1080.70833
1895.68	1050.04167
1898.492	1068.04167
1901.302	1046.375
1904.11	1051.04167
1906.916	1045.375
1909.721	1042.70833
1912.523	1053.375
1915.323	1023.04167
1918.122	1026.375
1920.918	1024.70833
1923.712	1018.375
1926.505	1033.04167
1929.295	1003.04167
1932.084	1022.70833
1934.87	1014.375
1937.655	1002.375
1940.438	1002.70833
1943.218	1014.04167
1945.997	1025.04167
1948.774	1033.375
1951.549	1023.70833
1954.322	1000.04167
1957.093	1017.375
1959.862	989.04167
1962.629	991.70833
1965.394	987.04167
1968.157	973.375
1970.918	972.375
1973.678	969.04167
1976.435	977.70833
1979.19	964.70833
1981.944	963.70833
1984.696	956.04167
1987.445	961.04167
1990.193	957.70833
1992.939	968.70833
1995.683	957.04167
1998.425	940.375
2001.165	966.375
2003.903	943.375
2006.639	947.04167
2009.374	951.04167
2012.106	950.70833
2014.837	941.04167
2017.566	936.70833
2020.292	938.70833
2023.017	935.70833
2025.74	928.04167
2028.461	936.70833
2031.18	937.70833
2033.898	914.70833
2036.613	930.04167
2039.327	928.70833
2042.038	907.70833
2044.748	920.70833
2047.456	913.375
2050.162	906.375
2052.866	898.375
2055.568	916.70833
2058.268	899.70833
2060.967	912.70833
2063.663	884.04167
2066.358	897.375
2069.051	894.375
2071.742	894.70833
2074.431	900.04167
2077.118	891.04167
2079.804	886.70833
2082.487	891.375
2085.169	910.70833
2087.849	924.70833
2090.527	897.375
2093.203	915.375
2095.877	920.70833
2098.55	909.04167
2101.22	931.04167
2103.889	945.04167
2106.556	933.04167
2109.221	958.04167
2111.884	968.375
2114.546	1035.70833
2117.205	1101.375
2119.863	1178.04167
2122.519	1259.04167
2125.173	1350.375
2127.825	1471.70833
2130.475	1500.375
2133.124	1488.70833
2135.771	1453.375
2138.416	1416.375
2141.059	1307.70833
2143.7	1259.04167
2146.339	1188.375
2148.977	1125.04167
2151.613	1107.375
2154.247	1071.375
2156.879	1059.70833
2159.51	1026.375
2162.138	1016.04167
2164.765	1028.375
2167.39	1006.70833
2170.013	1028.70833
2172.634	1021.04167
2175.254	1019.70833
2177.872	1037.375
2180.488	988.70833
2183.102	1001.04167
2185.714	980.04167
2188.325	952.04167
2190.934	961.04167
2193.541	930.70833
2196.146	903.04167
2198.75	888.04167
2201.351	877.04167
2203.951	864.375
2206.549	855.70833
2209.146	843.04167
2211.74	829.04167
2214.333	839.375
2216.924	804.04167
2219.514	810.70833
2222.101	807.375
2224.687	811.04167
2227.271	798.375
2229.853	799.375
2232.433	788.04167
2235.012	807.375
2237.589	791.375
2240.164	799.04167
2242.738	783.70833
2245.309	773.04167
2247.879	793.70833
2250.448	774.04167
2253.014	742.375
2255.579	728.70833
2258.142	741.70833
2260.703	719.375
2263.262	716.70833
2265.82	718.375
2268.376	726.04167
2270.93	707.04167
2273.483	701.375
2276.033	708.04167
2278.583	694.04167
2281.13	701.70833
2283.675	684.375
2286.219	695.375
2288.761	690.375
2291.302	694.375
2293.841	690.375
2296.377	664.04167
2298.913	667.375
2301.446	680.04167
2303.978	674.04167
2306.508	667.70833
2309.037	659.375
2311.563	666.375
2314.088	671.70833
2316.612	657.70833
2319.133	665.375
2321.653	641.70833
2324.171	642.70833
2326.688	668.04167
2329.202	643.70833
2331.715	647.04167
2334.227	646.04167
2336.736	637.70833
2339.244	623.375
2341.751	620.70833
2344.255	636.04167
2346.758	628.04167
2349.259	622.375
2351.759	626.04167
2354.257	622.375
2356.753	617.04167
2359.247	609.375
2361.74	629.70833
2364.231	620.375
2366.721	616.04167
2369.209	604.70833
2371.695	618.375
2374.179	604.375
2376.662	608.70833
2379.143	619.04167
2381.622	605.04167
2384.1	617.70833
2386.576	593.375
2389.051	614.375
2391.524	618.04167
2393.995	609.04167
2396.464	596.70833
2398.932	593.04167
2401.398	593.375
2403.863	591.70833
2406.325	585.70833
2408.787	585.70833
2411.246	593.375
2413.704	573.04167
2416.16	576.04167
2418.615	577.375
2421.068	588.70833
2423.519	582.70833
2425.969	573.375
2428.417	579.375
2430.863	607.70833
2433.308	586.04167
2435.751	581.70833
2438.193	566.04167
2440.633	584.70833
2443.071	578.04167
2445.508	556.04167
2447.943	565.375
2450.376	561.375
2452.808	566.375
2455.238	555.70833
2457.667	582.375
2460.093	561.04167
2462.519	544.70833
2464.942	548.70833
2467.365	565.04167
2469.785	550.70833
2472.204	548.375
2474.621	539.375
2477.037	559.70833
2479.451	544.70833
2481.863	536.70833
2484.274	535.04167
2486.683	549.375
2489.091	547.70833
2491.497	543.70833
2493.901	534.375
2496.304	533.04167
2498.705	545.70833
2501.105	527.04167
2503.503	552.70833
2505.899	538.04167
2508.294	539.04167
2510.687	519.04167
2513.079	519.70833
2515.469	521.04167
2517.858	520.04167
2520.245	542.04167
2522.63	522.70833
2525.014	514.375
2527.396	513.70833
2529.776	505.04167
2532.156	526.375
2534.533	503.04167
2536.909	518.375
2539.283	505.375
2541.656	513.70833
2544.027	531.375
2546.397	505.04167
2548.765	512.04167
2551.131	502.70833
2553.496	511.04167
2555.86	516.375
2558.221	505.04167
2560.582	502.375
2562.94	495.70833
2565.298	508.04167
2567.653	523.375
2570.007	491.04167
2572.36	506.70833
2574.711	495.70833
2577.06	521.375
2579.408	504.04167
2581.754	502.70833
2584.099	498.04167
2586.442	493.375
2588.784	508.375
2591.124	491.375
2593.463	492.375
2595.8	494.375
2598.135	485.04167
2600.469	486.04167
2602.802	496.04167
2605.133	497.04167
2607.462	480.70833
2609.79	473.70833
2612.116	491.70833
2614.441	499.04167
2616.764	490.04167
2619.086	488.375
2621.406	484.375
2623.725	497.04167
2626.042	496.375
2628.358	483.04167
2630.672	491.375
2632.985	489.70833
2635.296	490.04167
2637.606	488.70833
2639.914	478.04167
2642.22	484.375
2644.525	485.375
2646.829	487.375
2649.131	487.375
2651.432	498.375
2653.731	487.04167
2656.028	499.70833
2658.324	490.70833
2660.619	487.375
2662.912	497.04167
2665.204	478.04167
2667.494	494.375
2669.782	490.04167
2672.07	506.04167
2674.355	497.04167
2676.639	488.375
2678.922	482.04167
2681.203	498.70833
2683.483	479.04167
2685.761	465.375
2688.038	500.375
2690.313	507.04167
2692.587	497.70833
2694.859	491.04167
2697.13	497.04167
2699.399	487.375
2701.667	505.70833
2703.933	504.70833
2706.198	505.375
2708.461	514.04167
2710.723	522.70833
2712.984	517.04167
2715.243	519.70833
2717.5	512.04167
2719.757	532.70833
2722.011	524.70833
2724.264	536.04167
2726.516	547.70833
2728.766	518.375
2731.015	531.70833
2733.262	518.70833
2735.508	523.70833
2737.753	523.04167
2739.996	507.375
2742.237	503.375
2744.477	519.375
2746.716	519.04167
2748.953	504.70833
2751.189	510.04167
2753.423	503.04167
2755.656	495.70833
2757.887	490.04167
2760.117	487.70833
2762.346	482.375
2764.573	480.70833
2766.798	479.70833
2769.022	484.375
2771.245	488.70833
2773.467	489.04167
2775.686	482.04167
2777.905	488.70833
2780.122	495.375
2782.337	502.70833
2784.552	490.04167
2786.764	515.04167
2788.976	515.04167
2791.186	513.04167
2793.394	510.04167
2795.601	524.70833
2797.807	532.375
2800.011	533.04167
2802.214	555.04167
2804.415	550.375
2806.615	552.04167
2808.814	571.70833
2811.011	562.04167
2813.206	564.04167
2815.401	588.375
2817.594	591.04167
2819.785	604.04167
2821.975	598.70833
2824.164	610.375
2826.351	633.04167
2828.537	639.375
2830.722	666.04167
2832.905	669.70833
2835.086	715.04167
2837.267	745.70833
2839.445	771.70833
2841.623	793.375
2843.799	830.375
2845.974	870.375
2848.147	927.375
2850.319	937.70833
2852.489	979.375
2854.659	999.70833
2856.826	1011.04167
2858.993	1042.04167
2861.158	1023.70833
2863.321	1020.375
2865.483	1038.04167
2867.644	1053.375
2869.804	1051.70833
2871.962	1040.375
2874.118	1051.04167
2876.274	1046.70833
2878.428	1035.375
2880.58	1048.70833
2882.731	1021.375
2884.881	1026.70833
2887.03	1038.04167
2889.177	1039.04167
2891.322	1042.375
2893.467	1041.04167
2895.61	1059.04167
2897.751	1083.375
2899.892	1064.375
2902.03	1081.70833
2904.168	1087.04167
2906.304	1098.375
2908.439	1115.375
2910.572	1087.375
2912.704	1120.70833
2914.835	1121.375
2916.965	1104.04167
2919.093	1108.375
2921.219	1079.70833
2923.345	1102.375
2925.469	1059.375
2927.591	1066.70833
2929.712	1032.375
2931.832	1033.70833
2933.951	993.04167
2936.068	982.04167
2938.184	934.04167
2940.299	919.04167
2942.412	882.70833
2944.524	848.04167
2946.634	827.70833
2948.744	767.04167
2950.851	801.04167
2952.958	737.04167
2955.063	721.375
2957.167	710.04167
2959.269	672.04167
2961.371	691.375
2963.471	645.04167
2965.569	640.70833
2967.666	605.70833
2969.762	598.375
2971.857	587.70833
2973.95	559.04167
2976.042	555.375
2978.133	531.04167
2980.222	519.375
2982.31	493.375
2984.396	483.375
2986.482	484.04167
2988.566	480.70833
2990.648	457.375
2992.73	455.04167
2994.81	445.70833
2996.889	445.375
2998.966	440.375
3001.042	441.04167
3003.117	427.70833
3005.191	427.375
3007.263	420.70833
3009.334	415.375
3011.403	410.375
3013.472	386.04167
3015.539	398.375
3017.604	400.70833
3019.669	361.04167
3021.732	376.375
3023.794	375.375
3025.854	350.70833
3027.914	357.04167
3029.971	371.70833
3032.028	356.375
3034.083	356.375
3036.137	360.04167
3038.19	335.70833
3040.242	327.375
3042.292	321.70833
3044.341	317.04167
3046.388	331.04167
3048.435	305.70833
3050.48	328.70833
3052.524	321.04167
3054.566	294.70833
3056.607	305.70833
3058.647	302.04167
3060.686	290.70833
3062.723	276.70833
3064.759	273.04167
3066.794	0.04167
3068.828	-2.29167
3070.86	-1.29167
