-0.839	444.16667
3.438	477.83333
7.711	133.83333
11.981	55.5
16.247	47.5
20.509	45.16667
24.768	46.5
29.024	50.83333
33.276	48.5
37.524	50.83333
41.769	41.83333
46.01	41.16667
50.247	55.16667
54.481	65.83333
58.712	70.83333
62.939	50.83333
67.162	65.83333
71.382	59.5
75.599	48.83333
79.812	72.5
84.021	86.83333
88.227	61.83333
92.429	70.16667
96.628	52.5
100.823	77.5
105.015	79.5
109.204	86.16667
113.388	83.83333
117.57	82.16667
121.748	100.5
125.922	92.5
130.093	116.16667
134.261	122.16667
138.425	114.83333
142.585	164.83333
146.742	167.83333
150.896	195.5
155.046	255.5
159.193	402.16667
163.336	696.83333
167.476	1290.83333
171.613	2349.5
175.746	3908.5
179.875	5760.16667
184.002	7508.5
188.124	8668.83333
192.244	9063.16667
196.36	9059.83333
200.472	8850.16667
204.581	8715.5
208.687	8586.5
212.79	8544.83333
216.889	8647.5
220.984	8777.16667
225.077	8930.83333
229.165	9058.83333
233.251	9212.16667
237.333	9296.83333
241.412	9378.16667
245.487	9390.16667
249.559	9319.16667
253.628	9196.5
257.694	9022.5
261.756	8954.83333
265.814	8734.83333
269.87	8515.5
273.922	8208.83333
277.97	7819.16667
282.016	7485.5
286.058	7117.83333
290.097	6926.83333
294.132	6773.16667
298.164	6710.16667
302.193	6513.5
306.219	6164.5
310.241	5666.16667
314.26	5135.5
318.276	4665.5
322.288	4348.5
326.297	4101.16667
330.303	3919.83333
334.305	3798.16667
338.305	3734.16667
342.301	3678.5
346.294	3639.16667
350.283	3616.5
354.269	3588.5
358.252	3606.5
362.232	3616.83333
366.209	3559.83333
370.182	3549.16667
374.152	3568.16667
378.119	3571.16667
382.083	3551.16667
386.043	3593.16667
390	3567.5
393.954	3529.83333
397.905	3461.16667
401.852	3414.16667
405.797	3374.83333
409.738	3313.16667
413.676	3237.16667
417.61	3191.83333
421.542	3155.83333
425.47	3090.5
429.396	3051.16667
433.318	3015.5
437.236	3013.5
441.152	2996.16667
445.065	2911.5
448.974	2917.83333
452.88	2887.16667
456.783	2880.83333
460.683	2856.16667
464.58	2880.16667
468.473	2850.5
472.364	2856.16667
476.251	2857.83333
480.135	2870.5
484.016	2873.83333
487.894	2923.16667
491.769	2929.5
495.641	2918.83333
499.509	2914.5
503.375	2909.5
507.237	2900.83333
511.096	2868.5
514.952	2903.5
518.805	2885.83333
522.655	2892.5
526.502	2843.5
530.346	2870.16667
534.187	2869.83333
538.024	2877.16667
541.859	2861.16667
545.69	2885.5
549.519	2851.83333
553.344	2874.16667
557.166	2796.83333
560.985	2808.83333
564.802	2746.16667
568.615	2745.83333
572.425	2673.5
576.232	2656.83333
580.036	2677.16667
583.836	2685.83333
587.634	2665.16667
591.429	2680.16667
595.221	2702.83333
599.01	2735.16667
602.796	2769.16667
606.578	2794.83333
610.358	2818.5
614.135	2783.5
617.909	2805.5
621.679	2803.16667
625.447	2761.16667
629.212	2782.83333
632.973	2770.5
636.732	2772.16667
640.488	2763.5
644.241	2734.83333
647.991	2727.16667
651.737	2765.16667
655.481	2739.5
659.222	2759.5
662.96	2792.16667
666.695	2793.16667
670.427	2782.16667
674.156	2795.5
677.882	2773.16667
681.605	2776.5
685.325	2750.5
689.043	2763.5
692.757	2735.5
696.468	2756.5
700.177	2767.83333
703.882	2742.83333
707.585	2726.5
711.284	2715.83333
714.981	2751.5
718.675	2737.16667
722.366	2761.5
726.054	2733.16667
729.739	2737.83333
733.421	2717.83333
737.1	2734.16667
740.777	2754.16667
744.45	2762.16667
748.121	2791.83333
751.789	2829.5
755.453	2821.16667
759.115	2844.16667
762.774	2879.83333
766.431	2933.16667
770.084	2940.5
773.734	2955.5
777.382	3006.16667
781.027	3032.5
784.669	3057.16667
788.308	3056.16667
791.944	3071.83333
795.577	3114.16667
799.208	3138.83333
802.835	3176.83333
806.46	3215.83333
810.082	3272.16667
813.701	3311.16667
817.317	3311.83333
820.931	3328.5
824.542	3286.5
828.149	3254.5
831.754	3222.16667
835.357	3193.5
838.956	3187.83333
842.553	3138.16667
846.146	3147.5
849.737	3120.16667
853.326	3143.16667
856.911	3155.83333
860.493	3189.5
864.073	3219.5
867.65	3255.5
871.225	3294.83333
874.796	3275.16667
878.365	3309.16667
881.931	3329.16667
885.494	3366.83333
889.054	3351.16667
892.612	3366.16667
896.166	3331.83333
899.719	3298.83333
903.268	3280.83333
906.814	3280.16667
910.358	3265.16667
913.899	3270.16667
917.438	3274.5
920.973	3251.16667
924.506	3276.5
928.036	3331.5
931.564	3367.16667
935.088	3391.16667
938.61	3411.5
942.129	3434.16667
945.646	3507.5
949.16	3552.16667
952.671	3678.16667
956.179	3731.83333
959.685	3723.16667
963.188	3732.16667
966.688	3680.16667
970.185	3581.5
973.68	3525.83333
977.173	3491.16667
980.662	3448.83333
984.149	3486.16667
987.633	3482.16667
991.114	3539.5
994.593	3628.83333
998.069	3729.5
1001.542	3882.16667
1005.013	3815.83333
1008.481	3592.83333
1011.947	3510.83333
1015.409	3518.16667
1018.869	3494.5
1022.327	3501.16667
1025.782	3479.83333
1029.234	3477.5
1032.683	3459.16667
1036.13	3339.16667
1039.574	3229.83333
1043.016	3153.83333
1046.455	3082.16667
1049.891	3031.83333
1053.325	3025.16667
1056.756	2997.5
1060.184	3033.83333
1063.61	3040.16667
1067.033	3081.16667
1070.454	3035.5
1073.872	3109.83333
1077.287	3093.5
1080.7	3102.16667
1084.11	3087.5
1087.517	3083.83333
1090.922	3034.83333
1094.325	2984.5
1097.724	2977.16667
1101.122	2975.16667
1104.516	2945.16667
1107.908	2972.5
1111.298	3029.16667
1114.684	3051.5
1118.069	3065.83333
1121.45	3098.16667
1124.83	3090.83333
1128.206	3105.83333
1131.58	3104.83333
1134.951	3196.83333
1138.32	3286.16667
1141.687	3452.16667
1145.05	3506.16667
1148.412	3557.16667
1151.77	3589.16667
1155.126	3531.5
1158.48	3555.5
1161.831	3555.5
1165.18	3616.5
1168.525	3659.5
1171.869	3705.5
1175.21	3739.83333
1178.548	3783.5
1181.884	3817.5
1185.217	3882.83333
1188.548	3917.5
1191.877	4012.5
1195.202	4050.83333
1198.526	4139.83333
1201.846	4144.16667
1205.165	4121.83333
1208.48	4111.83333
1211.794	4089.83333
1215.104	4088.16667
1218.413	4097.16667
1221.719	4075.16667
1225.022	4054.83333
1228.323	4008.5
1231.621	4000.5
1234.917	3985.5
1238.21	4014.16667
1241.501	3993.16667
1244.79	3990.5
1248.076	3989.5
1251.359	4035.83333
1254.64	4086.5
1257.919	4114.83333
1261.195	4188.16667
1264.468	4252.5
1267.74	4318.16667
1271.008	4335.83333
1274.275	4331.83333
1277.538	4296.83333
1280.8	4269.16667
1284.059	4299.16667
1287.315	4342.16667
1290.569	4361.83333
1293.821	4388.5
1297.07	4400.5
1300.317	4406.16667
1303.562	4402.5
1306.803	4385.16667
1310.043	4347.83333
1313.28	4289.16667
1316.515	4286.16667
1319.747	4252.5
1322.977	4181.5
1326.204	4149.83333
1329.429	4081.5
1332.652	4090.16667
1335.872	4067.83333
1339.09	4026.83333
1342.306	4035.83333
1345.519	4018.83333
1348.729	4004.5
1351.938	4000.5
1355.144	3946.83333
1358.347	3883.83333
1361.548	3879.16667
1364.747	3927.83333
1367.944	3899.16667
1371.138	3927.16667
1374.329	3977.83333
1377.518	3994.16667
1380.705	3992.5
1383.89	3985.83333
1387.072	3904.83333
1390.252	3735.5
1393.429	3621.16667
1396.605	3460.16667
1399.777	3407.16667
1402.948	3335.16667
1406.116	3301.5
1409.282	3337.5
1412.445	3305.5
1415.606	3336.83333
1418.765	3376.5
1421.921	3446.16667
1425.075	3523.5
1428.227	3668.5
1431.376	3798.5
1434.524	3949.16667
1437.668	4042.16667
1440.811	4094.5
1443.951	4125.5
1447.089	4134.83333
1450.224	4089.16667
1453.357	4074.16667
1456.488	4038.83333
1459.617	3988.83333
1462.743	3919.5
1465.867	3833.5
1468.989	3806.5
1472.108	3751.83333
1475.225	3681.83333
1478.34	3649.5
1481.453	3625.83333
1484.563	3650.5
1487.671	3678.5
1490.776	3757.16667
1493.88	3808.83333
1496.981	3904.5
1500.08	3996.16667
1503.176	4040.83333
1506.271	4143.16667
1509.363	4215.16667
1512.452	4253.83333
1515.54	4350.83333
1518.625	4468.16667
1521.708	4661.83333
1524.789	4946.5
1527.867	5276.16667
1530.944	5581.16667
1534.018	5780.16667
1537.089	5810.5
1540.159	5683.16667
1543.226	5495.83333
1546.291	5260.83333
1549.354	5094.83333
1552.415	4935.16667
1555.473	4803.83333
1558.529	4747.16667
1561.583	4704.5
1564.634	4711.83333
1567.684	4703.5
1570.731	4725.16667
1573.776	4802.5
1576.819	4864.83333
1579.859	4919.16667
1582.898	5006.83333
1585.934	5008.5
1588.968	5037.83333
1591.999	5023.16667
1595.029	5027.5
1598.056	5077.16667
1601.081	5088.83333
1604.104	5095.83333
1607.125	5021.5
1610.144	4933.83333
1613.16	4839.5
1616.174	4773.83333
1619.186	4690.5
1622.196	4588.16667
1625.203	4490.5
1628.209	4433.16667
1631.212	4435.83333
1634.213	4416.83333
1637.212	4403.16667
1640.209	4352.83333
1643.203	4272.16667
1646.196	4110.5
1649.186	3970.16667
1652.174	3859.16667
1655.16	3729.83333
1658.144	3617.83333
1661.125	3471.83333
1664.105	3301.16667
1667.082	3125.83333
1670.057	2949.83333
1673.03	2783.83333
1676.001	2589.83333
1678.97	2379.5
1681.937	2236.83333
1684.901	2116.16667
1687.863	2042.16667
1690.824	1950.16667
1693.782	1918.5
1696.738	1853.83333
1699.692	1815.83333
1702.643	1774.16667
1705.593	1746.5
1708.54	1724.5
1711.486	1710.16667
1714.429	1664.16667
1717.37	1668.16667
1720.309	1626.83333
1723.246	1624.5
1726.181	1583.16667
1729.113	1621.83333
1732.044	1578.16667
1734.972	1557.5
1737.899	1551.83333
1740.823	1558.16667
1743.745	1552.16667
1746.665	1492.83333
1749.583	1466.83333
1752.499	1447.5
1755.413	1443.16667
1758.325	1393.5
1761.235	1404.5
1764.142	1380.16667
1767.048	1369.16667
1769.951	1341.5
1772.852	1332.83333
1775.752	1342.16667
1778.649	1332.5
1781.544	1334.83333
1784.437	1294.16667
1787.328	1309.5
1790.217	1313.5
1793.104	1278.83333
1795.989	1279.83333
1798.872	1256.16667
1801.753	1292.5
1804.631	1274.16667
1807.508	1274.5
1810.383	1264.83333
1813.255	1262.5
1816.126	1266.16667
1818.994	1252.16667
1821.861	1235.5
1824.725	1227.16667
1827.587	1225.16667
1830.448	1218.83333
1833.306	1199.16667
1836.162	1210.5
1839.017	1198.5
1841.869	1203.5
1844.719	1204.16667
1847.567	1164.16667
1850.414	1170.83333
1853.258	1173.83333
1856.1	1203.16667
1858.94	1190.5
1861.778	1175.5
1864.614	1160.83333
1867.448	1177.83333
1870.28	1174.83333
1873.111	1182.5
1875.939	1174.5
1878.765	1180.83333
1881.589	1158.16667
1884.411	1145.16667
1887.231	1177.5
1890.049	1163.5
1892.865	1145.16667
1895.68	1139.83333
1898.492	1124.16667
1901.302	1141.16667
1904.11	1132.16667
1906.916	1109.83333
1909.721	1113.83333
1912.523	1120.16667
1915.323	1088.5
1918.122	1096.83333
1920.918	1121.16667
1923.712	1103.5
1926.505	1108.83333
1929.295	1076.5
1932.084	1120.16667
1934.87	1103.5
1937.655	1094.16667
1940.438	1085.5
1943.218	1087.16667
1945.997	1099.16667
1948.774	1103.83333
1951.549	1102.5
1954.322	1069.16667
1957.093	1093.5
1959.862	1079.83333
1962.629	1072.16667
1965.394	1058.83333
1968.157	1063.16667
1970.918	1066.5
1973.678	1045.16667
1976.435	1060.5
1979.19	1048.83333
1981.944	1043.16667
1984.696	1043.83333
1987.445	1031.83333
1990.193	1045.16667
1992.939	1048.5
1995.683	1037.16667
1998.425	1009.5
2001.165	1043.5
2003.903	1031.16667
2006.639	1030.5
2009.374	1022.83333
2012.106	1018.83333
2014.837	989.16667
2017.566	1017.5
2020.292	1020.16667
2023.017	1002.83333
2025.74	1013.16667
2028.461	1006.5
2031.18	1001.16667
2033.898	995.16667
2036.613	1012.83333
2039.327	997.83333
2042.038	974.16667
2044.748	995.83333
2047.456	985.5
2050.162	978.16667
2052.866	981.16667
2055.568	983.83333
2058.268	984.16667
2060.967	973.83333
2063.663	971.16667
2066.358	976.5
2069.051	954.16667
2071.742	964.83333
2074.431	963.83333
2077.118	964.16667
2079.804	963.16667
2082.487	977.5
2085.169	966.83333
2087.849	989.5
2090.527	963.16667
2093.203	977.5
2095.877	982.83333
2098.55	980.83333
2101.22	984.83333
2103.889	996.16667
2106.556	977.16667
2109.221	1010.16667
2111.884	1024.16667
2114.546	1072.83333
2117.205	1110.16667
2119.863	1186.5
2122.519	1240.16667
2125.173	1339.16667
2127.825	1453.5
2130.475	1478.16667
2133.124	1475.83333
2135.771	1447.5
2138.416	1421.83333
2141.059	1353.16667
2143.7	1305.16667
2146.339	1227.5
2148.977	1176.5
2151.613	1142.5
2154.247	1111.16667
2156.879	1116.16667
2159.51	1105.83333
2162.138	1087.16667
2164.765	1098.83333
2167.39	1099.5
2170.013	1126.5
2172.634	1123.5
2175.254	1102.16667
2177.872	1153.5
2180.488	1093.83333
2183.102	1093.83333
2185.714	1077.5
2188.325	1047.83333
2190.934	1040.16667
2193.541	1029.16667
2196.146	991.5
2198.75	957.5
2201.351	956.5
2203.951	937.83333
2206.549	947.5
2209.146	912.83333
2211.74	908.16667
2214.333	897.5
2216.924	887.16667
2219.514	884.5
2222.101	870.83333
2224.687	890.83333
2227.271	882.16667
2229.853	858.83333
2232.433	855.5
2235.012	878.5
2237.589	874.5
2240.164	884.83333
2242.738	859.83333
2245.309	859.16667
2247.879	851.16667
2250.448	849.83333
2253.014	825.16667
2255.579	807.16667
2258.142	806.83333
2260.703	805.83333
2263.262	791.5
2265.82	791.16667
2268.376	805.83333
2270.93	775.5
2273.483	767.83333
2276.033	773.16667
2278.583	757.16667
2281.13	768.16667
2283.675	753.5
2286.219	767.5
2288.761	747.83333
2291.302	771.83333
2293.841	757.16667
2296.377	735.16667
2298.913	738.83333
2301.446	754.5
2303.978	730.5
2306.508	727.5
2309.037	736.5
2311.563	731.83333
2314.088	742.83333
2316.612	709.5
2319.133	732.5
2321.653	729.16667
2324.171	702.83333
2326.688	734.16667
2329.202	701.16667
2331.715	713.16667
2334.227	712.16667
2336.736	707.16667
2339.244	705.16667
2341.751	695.5
2344.255	716.5
2346.758	701.16667
2349.259	694.16667
2351.759	689.16667
2354.257	684.5
2356.753	681.16667
2359.247	684.83333
2361.74	701.16667
2364.231	684.83333
2366.721	691.16667
2369.209	674.16667
2371.695	683.5
2374.179	661.16667
2376.662	670.83333
2379.143	699.16667
2381.622	670.5
2384.1	682.83333
2386.576	668.83333
2389.051	680.5
2391.524	695.16667
2393.995	686.16667
2396.464	664.83333
2398.932	656.16667
2401.398	670.16667
2403.863	667.5
2406.325	651.16667
2408.787	657.83333
2411.246	660.16667
2413.704	652.16667
2416.16	645.5
2418.615	654.5
2421.068	666.16667
2423.519	650.83333
2425.969	639.83333
2428.417	661.5
2430.863	677.16667
2433.308	658.16667
2435.751	654.16667
2438.193	643.83333
2440.633	647.5
2443.071	653.5
2445.508	634.5
2447.943	635.5
2450.376	623.5
2452.808	638.5
2455.238	629.16667
2457.667	646.5
2460.093	638.83333
2462.519	625.83333
2464.942	627.16667
2467.365	652.16667
2469.785	628.83333
2472.204	627.16667
2474.621	617.5
2477.037	643.83333
2479.451	611.16667
2481.863	617.16667
2484.274	613.83333
2486.683	611.5
2489.091	631.83333
2491.497	606.5
2493.901	604.16667
2496.304	620.16667
2498.705	625.16667
2501.105	612.83333
2503.503	638.16667
2505.899	601.16667
2508.294	614.83333
2510.687	583.5
2513.079	602.16667
2515.469	587.83333
2517.858	606.5
2520.245	609.83333
2522.63	602.5
2525.014	591.83333
2527.396	594.5
2529.776	596.83333
2532.156	602.16667
2534.533	590.5
2536.909	587.83333
2539.283	573.5
2541.656	586.16667
2544.027	611.5
2546.397	590.5
2548.765	587.16667
2551.131	581.5
2553.496	591.16667
2555.86	583.5
2558.221	588.83333
2560.582	573.5
2562.94	573.16667
2565.298	583.16667
2567.653	591.5
2570.007	576.5
2572.36	578.16667
2574.711	575.83333
2577.06	598.83333
2579.408	582.5
2581.754	581.16667
2584.099	575.5
2586.442	579.16667
2588.784	589.5
2591.124	590.16667
2593.463	565.16667
2595.8	579.83333
2598.135	568.83333
2600.469	561.83333
2602.802	596.16667
2605.133	583.16667
2607.462	562.5
2609.79	561.16667
2612.116	569.16667
2614.441	571.5
2616.764	577.83333
2619.086	574.16667
2621.406	566.5
2623.725	577.83333
2626.042	576.16667
2628.358	564.16667
2630.672	569.83333
2632.985	580.83333
2635.296	574.83333
2637.606	579.5
2639.914	560.16667
2642.22	571.5
2644.525	573.16667
2646.829	580.5
2649.131	588.5
2651.432	576.16667
2653.731	576.83333
2656.028	586.83333
2658.324	575.16667
2660.619	576.5
2662.912	596.83333
2665.204	568.16667
2667.494	591.83333
2669.782	568.5
2672.07	585.5
2674.355	590.83333
2676.639	587.5
2678.922	583.5
2681.203	584.83333
2683.483	556.83333
2685.761	569.16667
2688.038	580.16667
2690.313	604.16667
2692.587	581.5
2694.859	573.5
2697.13	591.83333
2699.399	590.83333
2701.667	596.83333
2703.933	604.5
2706.198	602.83333
2708.461	603.5
2710.723	613.16667
2712.984	600.16667
2715.243	612.83333
2717.5	611.5
2719.757	620.83333
2722.011	626.83333
2724.264	622.16667
2726.516	639.5
2728.766	623.5
2731.015	633.5
2733.262	629.5
2735.508	621.5
2737.753	629.16667
2739.996	609.5
2742.237	609.5
2744.477	619.5
2746.716	613.16667
2748.953	607.16667
2751.189	605.83333
2753.423	593.5
2755.656	582.83333
2757.887	584.16667
2760.117	589.83333
2762.346	583.83333
2764.573	577.83333
2766.798	575.83333
2769.022	580.16667
2771.245	583.16667
2773.467	574.5
2775.686	588.5
2777.905	591.83333
2780.122	598.16667
2782.337	594.16667
2784.552	587.5
2786.764	614.83333
2788.976	607.5
2791.186	614.83333
2793.394	611.83333
2795.601	628.16667
2797.807	627.16667
2800.011	632.16667
2802.214	649.5
2804.415	633.83333
2806.615	637.83333
2808.814	658.16667
2811.011	656.5
2813.206	663.5
2815.401	683.16667
2817.594	690.83333
2819.785	697.5
2821.975	688.83333
2824.164	708.83333
2826.351	717.16667
2828.537	757.16667
2830.722	774.5
2832.905	775.16667
2835.086	810.16667
2837.267	855.5
2839.445	899.83333
2841.623	911.5
2843.799	951.5
2845.974	1007.16667
2848.147	1056.16667
2850.319	1085.16667
2852.489	1126.16667
2854.659	1141.16667
2856.826	1176.16667
2858.993	1193.83333
2861.158	1179.83333
2863.321	1174.83333
2865.483	1211.83333
2867.644	1200.16667
2869.804	1201.16667
2871.962	1195.16667
2874.118	1199.83333
2876.274	1193.16667
2878.428	1181.83333
2880.58	1191.83333
2882.731	1184.5
2884.881	1185.5
2887.03	1193.83333
2889.177	1199.83333
2891.322	1219.83333
2893.467	1199.83333
2895.61	1202.5
2897.751	1240.83333
2899.892	1248.83333
2902.03	1247.16667
2904.168	1263.83333
2906.304	1263.83333
2908.439	1306.5
2910.572	1277.83333
2912.704	1296.83333
2914.835	1304.16667
2916.965	1301.16667
2919.093	1306.83333
2921.219	1265.83333
2923.345	1291.83333
2925.469	1268.5
2927.591	1261.16667
2929.712	1219.83333
2931.832	1209.16667
2933.951	1174.5
2936.068	1160.16667
2938.184	1123.16667
2940.299	1095.16667
2942.412	1064.83333
2944.524	1016.5
2946.634	991.5
2948.744	935.5
2950.851	947.16667
2952.958	889.5
2955.063	885.16667
2957.167	869.5
2959.269	832.5
2961.371	843.83333
2963.471	789.16667
2965.569	790.5
2967.666	752.16667
2969.762	759.83333
2971.857	733.83333
2973.95	706.5
2976.042	698.83333
2978.133	672.16667
2980.222	657.5
2982.31	632.16667
2984.396	614.5
2986.482	610.83333
2988.566	615.5
2990.648	600.16667
2992.73	594.16667
2994.81	573.5
2996.889	585.5
2998.966	571.16667
3001.042	575.5
3003.117	563.5
3005.191	570.16667
3007.263	560.16667
3009.334	550.83333
3011.403	557.16667
3013.472	514.83333
3015.539	530.16667
3017.604	535.16667
3019.669	499.83333
3021.732	498.16667
3023.794	497.5
3025.854	487.16667
3027.914	484.16667
3029.971	487.16667
3032.028	491.83333
3034.083	487.16667
3036.137	494.16667
3038.19	462.5
3040.242	450.16667
3042.292	437.16667
3044.341	442.5
3046.388	453.5
3048.435	417.83333
3050.48	435.83333
3052.524	438.5
3054.566	414.16667
3056.607	432.16667
3058.647	417.16667
3060.686	393.16667
3062.723	386.5
3064.759	371.5
3066.794	-0.16667
3068.828	-0.83333
3070.86	-2.16667
