-0.839	441.16667
3.438	492.5
7.711	136.83333
11.981	54.83333
16.247	48.5
20.509	46.5
24.768	47.5
29.024	50.5
33.276	44.16667
37.524	50.83333
41.769	37.83333
46.01	37.16667
50.247	53.16667
54.481	60.83333
58.712	69.5
62.939	48.83333
67.162	59.16667
71.382	58.83333
75.599	47.83333
79.812	65.83333
84.021	86.83333
88.227	61.83333
92.429	68.16667
96.628	51.5
100.823	74.16667
105.015	83.16667
109.204	81.83333
113.388	82.16667
117.57	78.5
121.748	97.83333
125.922	91.5
130.093	106.83333
134.261	117.83333
138.425	118.16667
142.585	159.5
146.742	155.83333
150.896	182.16667
155.046	244.83333
159.193	386.16667
163.336	667.16667
167.476	1239.83333
171.613	2259.5
175.746	3755.16667
179.875	5572.5
184.002	7187.83333
188.124	8288.5
192.244	8644.5
196.36	8578.5
200.472	8394.83333
204.581	8195.5
208.687	8009.5
212.79	7959.16667
216.889	7999.16667
220.984	8054.16667
225.077	8156.16667
229.165	8292.16667
233.251	8399.83333
237.333	8467.83333
241.412	8527.5
245.487	8517.16667
249.559	8473.16667
253.628	8406.83333
257.694	8280.83333
261.756	8239.16667
265.814	8068.83333
269.87	7842.5
273.922	7548.83333
277.97	7250.16667
282.016	7029.16667
286.058	6756.5
290.097	6622.16667
294.132	6540.5
298.164	6474.83333
302.193	6287.16667
306.219	5932.16667
310.241	5395.5
314.26	4892.83333
318.276	4452.83333
322.288	4128.5
326.297	3905.5
330.303	3750.16667
334.305	3621.5
338.305	3514.16667
342.301	3459.16667
346.294	3422.16667
350.283	3388.5
354.269	3338.5
358.252	3351.5
362.232	3336.5
366.209	3285.83333
370.182	3261.16667
374.152	3247.16667
378.119	3223.16667
382.083	3249.83333
386.043	3261.5
390	3232.83333
393.954	3211.5
397.905	3151.16667
401.852	3160.5
405.797	3073.83333
409.738	3060.5
413.676	3034.5
417.61	2999.5
421.542	2967.5
425.47	2923.5
429.396	2900.83333
433.318	2865.16667
437.236	2852.83333
441.152	2852.83333
445.065	2795.83333
448.974	2806.5
452.88	2770.83333
456.783	2724.16667
460.683	2731.5
464.58	2700.16667
468.473	2708.16667
472.364	2744.5
476.251	2735.16667
480.135	2759.83333
484.016	2779.83333
487.894	2786.16667
491.769	2785.16667
495.641	2794.5
499.509	2810.83333
503.375	2791.5
507.237	2795.83333
511.096	2779.5
514.952	2769.16667
518.805	2801.83333
522.655	2801.83333
526.502	2752.83333
530.346	2761.5
534.187	2800.83333
538.024	2776.83333
541.859	2773.83333
545.69	2823.83333
549.519	2767.83333
553.344	2793.16667
557.166	2711.16667
560.985	2708.83333
564.802	2664.16667
568.615	2631.83333
572.425	2585.16667
576.232	2573.5
580.036	2573.83333
583.836	2563.16667
587.634	2567.16667
591.429	2558.16667
595.221	2626.5
599.01	2627.5
602.796	2671.83333
606.578	2673.83333
610.358	2704.16667
614.135	2698.83333
617.909	2678.16667
621.679	2678.5
625.447	2638.5
629.212	2666.83333
632.973	2649.83333
636.732	2668.5
640.488	2663.16667
644.241	2624.5
647.991	2645.5
651.737	2661.16667
655.481	2657.16667
659.222	2651.5
662.96	2657.16667
666.695	2673.5
670.427	2680.5
674.156	2688.5
677.882	2673.5
681.605	2668.5
685.325	2647.83333
689.043	2647.16667
692.757	2632.5
696.468	2628.83333
700.177	2618.16667
703.882	2625.5
707.585	2613.16667
711.284	2606.16667
714.981	2609.5
718.675	2610.5
722.366	2645.5
726.054	2606.5
729.739	2620.83333
733.421	2604.83333
737.1	2608.16667
740.777	2653.16667
744.45	2646.5
748.121	2677.5
751.789	2726.83333
755.453	2704.83333
759.115	2707.5
762.774	2746.5
766.431	2785.5
770.084	2813.83333
773.734	2878.16667
777.382	2911.83333
781.027	2931.16667
784.669	2934.83333
788.308	2949.16667
791.944	2955.83333
795.577	2985.16667
799.208	3012.5
802.835	3047.16667
806.46	3078.83333
810.082	3117.5
813.701	3142.5
817.317	3212.5
820.931	3184.83333
824.542	3163.16667
828.149	3118.16667
831.754	3090.83333
835.357	3072.5
838.956	3067.83333
842.553	3053.16667
846.146	3027.83333
849.737	2999.16667
853.326	3014.5
856.911	3038.5
860.493	3081.83333
864.073	3090.83333
867.65	3175.83333
871.225	3174.83333
874.796	3180.83333
878.365	3218.16667
881.931	3213.5
885.494	3229.83333
889.054	3251.16667
892.612	3216.16667
896.166	3224.16667
899.719	3169.5
903.268	3165.83333
906.814	3146.16667
910.358	3134.16667
913.899	3103.83333
917.438	3121.5
920.973	3133.83333
924.506	3148.5
928.036	3196.83333
931.564	3242.83333
935.088	3255.83333
938.61	3283.83333
942.129	3297.83333
945.646	3372.16667
949.16	3452.16667
952.671	3561.16667
956.179	3606.83333
959.685	3623.16667
963.188	3593.16667
966.688	3559.5
970.185	3464.83333
973.68	3368.16667
977.173	3320.16667
980.662	3258.5
984.149	3307.5
987.633	3304.16667
991.114	3349.5
994.593	3451.83333
998.069	3555.5
1001.542	3693.16667
1005.013	3631.83333
1008.481	3422.5
1011.947	3346.83333
1015.409	3337.83333
1018.869	3355.83333
1022.327	3345.5
1025.782	3312.16667
1029.234	3322.5
1032.683	3292.5
1036.13	3171.83333
1039.574	3049.83333
1043.016	2950.16667
1046.455	2918.16667
1049.891	2843.83333
1053.325	2869.83333
1056.756	2853.5
1060.184	2899.16667
1063.61	2895.5
1067.033	2927.5
1070.454	2904.83333
1073.872	2954.83333
1077.287	2955.5
1080.7	2962.83333
1084.11	2968.83333
1087.517	2926.16667
1090.922	2877.16667
1094.325	2858.16667
1097.724	2842.16667
1101.122	2853.5
1104.516	2830.16667
1107.908	2855.16667
1111.298	2894.16667
1114.684	2928.83333
1118.069	2971.5
1121.45	3004.16667
1124.83	2992.5
1128.206	2992.5
1131.58	3069.83333
1134.951	3144.83333
1138.32	3259.16667
1141.687	3374.16667
1145.05	3471.5
1148.412	3536.5
1151.77	3521.16667
1155.126	3520.5
1158.48	3513.5
1161.831	3529.16667
1165.18	3535.16667
1168.525	3616.5
1171.869	3639.16667
1175.21	3657.83333
1178.548	3705.83333
1181.884	3765.5
1185.217	3767.16667
1188.548	3852.83333
1191.877	3911.16667
1195.202	3965.83333
1198.526	4034.16667
1201.846	4062.83333
1205.165	4036.16667
1208.48	4028.5
1211.794	3987.16667
1215.104	3996.5
1218.413	3979.5
1221.719	3984.5
1225.022	3922.16667
1228.323	3873.5
1231.621	3883.5
1234.917	3831.5
1238.21	3850.83333
1241.501	3822.5
1244.79	3838.16667
1248.076	3824.16667
1251.359	3846.5
1254.64	3956.83333
1257.919	3981.16667
1261.195	4038.5
1264.468	4138.16667
1267.74	4173.83333
1271.008	4238.83333
1274.275	4195.83333
1277.538	4151.5
1280.8	4114.83333
1284.059	4140.16667
1287.315	4185.83333
1290.569	4204.5
1293.821	4206.83333
1297.07	4250.16667
1300.317	4264.83333
1303.562	4232.5
1306.803	4227.16667
1310.043	4178.16667
1313.28	4153.5
1316.515	4088.5
1319.747	4051.83333
1322.977	4018.83333
1326.204	3931.83333
1329.429	3914.5
1332.652	3891.5
1335.872	3874.5
1339.09	3853.83333
1342.306	3850.83333
1345.519	3829.16667
1348.729	3751.83333
1351.938	3784.83333
1355.144	3702.83333
1358.347	3625.16667
1361.548	3624.5
1364.747	3667.83333
1367.944	3631.16667
1371.138	3661.5
1374.329	3662.5
1377.518	3711.83333
1380.705	3757.16667
1383.89	3788.5
1387.072	3674.16667
1390.252	3534.16667
1393.429	3415.5
1396.605	3293.83333
1399.777	3178.83333
1402.948	3144.5
1406.116	3118.16667
1409.282	3120.16667
1412.445	3099.83333
1415.606	3136.83333
1418.765	3166.83333
1421.921	3232.5
1425.075	3312.16667
1428.227	3432.16667
1431.376	3613.16667
1434.524	3751.16667
1437.668	3869.5
1440.811	3913.83333
1443.951	3927.83333
1447.089	3983.83333
1450.224	3942.83333
1453.357	3911.83333
1456.488	3897.16667
1459.617	3854.5
1462.743	3772.5
1465.867	3718.5
1468.989	3704.16667
1472.108	3612.5
1475.225	3546.16667
1478.34	3544.16667
1481.453	3555.16667
1484.563	3551.5
1487.671	3575.16667
1490.776	3657.16667
1493.88	3748.5
1496.981	3819.83333
1500.08	3882.16667
1503.176	3953.5
1506.271	3996.83333
1509.363	4071.16667
1512.452	4112.5
1515.54	4208.5
1518.625	4308.16667
1521.708	4475.5
1524.789	4749.16667
1527.867	5029.16667
1530.944	5308.83333
1534.018	5469.83333
1537.089	5534.83333
1540.159	5453.83333
1543.226	5314.5
1546.291	5113.83333
1549.354	4929.16667
1552.415	4798.5
1555.473	4697.5
1558.529	4612.16667
1561.583	4591.16667
1564.634	4577.5
1567.684	4579.83333
1570.731	4599.83333
1573.776	4669.83333
1576.819	4753.5
1579.859	4792.83333
1582.898	4876.5
1585.934	4879.5
1588.968	4903.16667
1591.999	4875.16667
1595.029	4880.16667
1598.056	4894.83333
1601.081	4912.83333
1604.104	4877.16667
1607.125	4846.5
1610.144	4774.83333
1613.16	4650.83333
1616.174	4562.16667
1619.186	4484.16667
1622.196	4431.16667
1625.203	4329.83333
1628.209	4278.83333
1631.212	4231.83333
1634.213	4225.16667
1637.212	4200.16667
1640.209	4107.83333
1643.203	4039.5
1646.196	3853.16667
1649.186	3664.5
1652.174	3529.83333
1655.16	3406.16667
1658.144	3330.83333
1661.125	3161.16667
1664.105	3000.5
1667.082	2847.5
1670.057	2687.16667
1673.03	2549.16667
1676.001	2354.83333
1678.97	2209.16667
1681.937	2066.16667
1684.901	1952.16667
1687.863	1871.83333
1690.824	1791.83333
1693.782	1750.16667
1696.738	1686.83333
1699.692	1654.83333
1702.643	1624.16667
1705.593	1610.16667
1708.54	1573.16667
1711.486	1568.83333
1714.429	1528.5
1717.37	1529.5
1720.309	1479.83333
1723.246	1495.5
1726.181	1458.16667
1729.113	1461.16667
1732.044	1427.5
1734.972	1418.83333
1737.899	1430.5
1740.823	1394.83333
1743.745	1390.5
1746.665	1355.16667
1749.583	1327.83333
1752.499	1315.5
1755.413	1306.16667
1758.325	1281.5
1761.235	1273.83333
1764.142	1254.83333
1767.048	1243.16667
1769.951	1228.83333
1772.852	1212.5
1775.752	1204.5
1778.649	1219.83333
1781.544	1218.16667
1784.437	1201.83333
1787.328	1185.83333
1790.217	1170.83333
1793.104	1152.83333
1795.989	1145.16667
1798.872	1146.83333
1801.753	1174.83333
1804.631	1161.5
1807.508	1156.16667
1810.383	1150.5
1813.255	1153.5
1816.126	1134.5
1818.994	1120.83333
1821.861	1136.16667
1824.725	1126.5
1827.587	1124.16667
1830.448	1121.83333
1833.306	1078.83333
1836.162	1107.16667
1839.017	1081.83333
1841.869	1078.83333
1844.719	1085.83333
1847.567	1075.16667
1850.414	1054.83333
1853.258	1056.16667
1856.1	1064.83333
1858.94	1083.16667
1861.778	1068.16667
1864.614	1046.5
1867.448	1056.83333
1870.28	1036.83333
1873.111	1067.16667
1875.939	1060.5
1878.765	1074.16667
1881.589	1040.83333
1884.411	1043.5
1887.231	1051.5
1890.049	1043.83333
1892.865	1041.5
1895.68	1013.16667
1898.492	1027.5
1901.302	1014.83333
1904.11	1019.5
1906.916	1024.16667
1909.721	999.16667
1912.523	1013.83333
1915.323	989.5
1918.122	1003.83333
1920.918	998.5
1923.712	987.16667
1926.505	1003.83333
1929.295	986.83333
1932.084	984.5
1934.87	987.5
1937.655	980.83333
1940.438	985.83333
1943.218	977.83333
1945.997	971.5
1948.774	995.16667
1951.549	976.16667
1954.322	967.83333
1957.093	968.16667
1959.862	960.83333
1962.629	960.5
1965.394	961.5
1968.157	951.83333
1970.918	956.5
1973.678	948.5
1976.435	953.16667
1979.19	946.16667
1981.944	933.5
1984.696	936.5
1987.445	921.5
1990.193	928.5
1992.939	941.5
1995.683	930.83333
1998.425	897.83333
2001.165	944.5
2003.903	905.83333
2006.639	924.83333
2009.374	924.16667
2012.106	919.16667
2014.837	897.83333
2017.566	921.83333
2020.292	918.83333
2023.017	917.16667
2025.74	907.16667
2028.461	893.16667
2031.18	893.83333
2033.898	895.5
2036.613	906.16667
2039.327	896.5
2042.038	889.83333
2044.748	886.5
2047.456	882.5
2050.162	866.5
2052.866	875.83333
2055.568	881.5
2058.268	874.5
2060.967	873.83333
2063.663	866.16667
2066.358	875.16667
2069.051	858.5
2071.742	872.16667
2074.431	877.83333
2077.118	863.83333
2079.804	839.83333
2082.487	859.83333
2085.169	874.16667
2087.849	889.83333
2090.527	869.5
2093.203	865.16667
2095.877	873.16667
2098.55	875.83333
2101.22	883.83333
2103.889	890.5
2106.556	880.16667
2109.221	887.83333
2111.884	894.5
2114.546	932.5
2117.205	967.16667
2119.863	1029.83333
2122.519	1070.16667
2125.173	1145.16667
2127.825	1230.16667
2130.475	1276.83333
2133.124	1250.83333
2135.771	1225.16667
2138.416	1192.83333
2141.059	1129.5
2143.7	1099.16667
2146.339	1033.83333
2148.977	991.5
2151.613	968.5
2154.247	953.83333
2156.879	936.16667
2159.51	921.5
2162.138	907.16667
2164.765	906.5
2167.39	901.83333
2170.013	935.5
2172.634	924.5
2175.254	911.83333
2177.872	936.83333
2180.488	906.16667
2183.102	916.5
2185.714	888.83333
2188.325	868.83333
2190.934	865.16667
2193.541	866.5
2196.146	839.16667
2198.75	830.16667
2201.351	813.16667
2203.951	814.5
2206.549	816.83333
2209.146	793.5
2211.74	790.83333
2214.333	803.83333
2216.924	779.83333
2219.514	788.16667
2222.101	765.5
2224.687	792.16667
2227.271	764.16667
2229.853	771.16667
2232.433	753.5
2235.012	785.83333
2237.589	772.83333
2240.164	785.83333
2242.738	765.16667
2245.309	745.83333
2247.879	737.83333
2250.448	747.16667
2253.014	720.83333
2255.579	720.83333
2258.142	718.83333
2260.703	696.16667
2263.262	707.16667
2265.82	707.5
2268.376	710.83333
2270.93	695.5
2273.483	688.5
2276.033	689.16667
2278.583	684.16667
2281.13	676.83333
2283.675	658.16667
2286.219	663.16667
2288.761	668.16667
2291.302	673.16667
2293.841	682.5
2296.377	654.83333
2298.913	650.83333
2301.446	655.16667
2303.978	654.83333
2306.508	647.83333
2309.037	653.16667
2311.563	649.5
2314.088	654.83333
2316.612	641.5
2319.133	651.16667
2321.653	641.5
2324.171	635.16667
2326.688	641.83333
2329.202	635.5
2331.715	637.83333
2334.227	635.83333
2336.736	617.5
2339.244	618.16667
2341.751	610.5
2344.255	619.16667
2346.758	616.5
2349.259	607.5
2351.759	618.16667
2354.257	597.5
2356.753	597.83333
2359.247	605.5
2361.74	618.5
2364.231	605.16667
2366.721	606.16667
2369.209	596.5
2371.695	603.5
2374.179	589.83333
2376.662	605.5
2379.143	609.16667
2381.622	592.5
2384.1	601.5
2386.576	588.5
2389.051	605.83333
2391.524	596.16667
2393.995	600.83333
2396.464	580.16667
2398.932	589.5
2401.398	593.83333
2403.863	568.16667
2406.325	580.5
2408.787	581.5
2411.246	583.83333
2413.704	581.5
2416.16	575.83333
2418.615	583.5
2421.068	590.83333
2423.519	587.5
2425.969	582.16667
2428.417	579.83333
2430.863	593.83333
2433.308	577.83333
2435.751	575.16667
2438.193	571.5
2440.633	586.16667
2443.071	574.5
2445.508	556.5
2447.943	554.16667
2450.376	554.5
2452.808	562.83333
2455.238	557.5
2457.667	581.5
2460.093	569.16667
2462.519	545.5
2464.942	549.16667
2467.365	562.5
2469.785	553.5
2472.204	557.83333
2474.621	543.5
2477.037	570.16667
2479.451	538.16667
2481.863	539.16667
2484.274	532.83333
2486.683	544.83333
2489.091	541.16667
2491.497	554.83333
2493.901	540.5
2496.304	534.16667
2498.705	540.5
2501.105	531.5
2503.503	559.83333
2505.899	528.83333
2508.294	549.83333
2510.687	518.83333
2513.079	524.83333
2515.469	528.16667
2517.858	533.83333
2520.245	541.16667
2522.63	525.5
2525.014	522.5
2527.396	516.83333
2529.776	525.5
2532.156	538.5
2534.533	509.5
2536.909	526.83333
2539.283	502.5
2541.656	512.5
2544.027	542.83333
2546.397	520.5
2548.765	525.16667
2551.131	517.5
2553.496	513.83333
2555.86	520.83333
2558.221	515.83333
2560.582	509.83333
2562.94	500.83333
2565.298	510.83333
2567.653	528.83333
2570.007	497.83333
2572.36	510.16667
2574.711	508.5
2577.06	527.16667
2579.408	512.83333
2581.754	504.16667
2584.099	506.16667
2586.442	506.5
2588.784	510.5
2591.124	506.83333
2593.463	508.83333
2595.8	507.83333
2598.135	491.16667
2600.469	497.5
2602.802	517.5
2605.133	507.16667
2607.462	494.5
2609.79	487.5
2612.116	504.5
2614.441	502.5
2616.764	510.16667
2619.086	495.5
2621.406	491.83333
2623.725	516.5
2626.042	501.16667
2628.358	492.5
2630.672	494.83333
2632.985	509.16667
2635.296	505.83333
2637.606	505.83333
2639.914	491.83333
2642.22	498.83333
2644.525	495.16667
2646.829	512.5
2649.131	514.16667
2651.432	509.83333
2653.731	502.5
2656.028	518.16667
2658.324	506.83333
2660.619	498.16667
2662.912	513.16667
2665.204	492.83333
2667.494	511.5
2669.782	502.16667
2672.07	511.16667
2674.355	521.83333
2676.639	501.5
2678.922	503.16667
2681.203	520.16667
2683.483	485.83333
2685.761	493.5
2688.038	511.83333
2690.313	527.83333
2692.587	508.83333
2694.859	502.5
2697.13	512.16667
2699.399	519.16667
2701.667	531.5
2703.933	532.83333
2706.198	530.83333
2708.461	525.5
2710.723	544.16667
2712.984	532.5
2715.243	537.16667
2717.5	530.5
2719.757	546.16667
2722.011	541.83333
2724.264	556.16667
2726.516	564.5
2728.766	542.16667
2731.015	545.5
2733.262	542.83333
2735.508	537.16667
2737.753	548.16667
2739.996	527.83333
2742.237	524.83333
2744.477	545.5
2746.716	540.16667
2748.953	528.83333
2751.189	528.16667
2753.423	523.83333
2755.656	525.83333
2757.887	508.83333
2760.117	511.5
2762.346	503.16667
2764.573	486.5
2766.798	502.5
2769.022	503.5
2771.245	512.16667
2773.467	508.5
2775.686	509.83333
2777.905	502.16667
2780.122	516.5
2782.337	529.16667
2784.552	507.16667
2786.764	524.16667
2788.976	523.83333
2791.186	534.5
2793.394	537.16667
2795.601	547.83333
2797.807	557.5
2800.011	554.83333
2802.214	564.83333
2804.415	555.83333
2806.615	561.16667
2808.814	564.5
2811.011	581.5
2813.206	571.83333
2815.401	602.5
2817.594	603.16667
2819.785	604.83333
2821.975	610.16667
2824.164	622.5
2826.351	651.5
2828.537	675.16667
2830.722	679.5
2832.905	695.16667
2835.086	720.16667
2837.267	765.5
2839.445	800.16667
2841.623	814.83333
2843.799	872.83333
2845.974	910.16667
2848.147	976.83333
2850.319	997.83333
2852.489	1041.5
2854.659	1048.5
2856.826	1066.5
2858.993	1101.83333
2861.158	1090.16667
2863.321	1088.5
2865.483	1110.16667
2867.644	1107.83333
2869.804	1113.16667
2871.962	1114.5
2874.118	1120.83333
2876.274	1137.83333
2878.428	1127.83333
2880.58	1120.83333
2882.731	1089.5
2884.881	1116.16667
2887.03	1109.16667
2889.177	1115.5
2891.322	1117.16667
2893.467	1106.83333
2895.61	1121.16667
2897.751	1154.16667
2899.892	1142.83333
2902.03	1159.5
2904.168	1166.5
2906.304	1186.83333
2908.439	1197.16667
2910.572	1169.83333
2912.704	1204.83333
2914.835	1201.5
2916.965	1179.16667
2919.093	1200.16667
2921.219	1186.83333
2923.345	1186.16667
2925.469	1167.16667
2927.591	1166.83333
2929.712	1118.5
2931.832	1119.16667
2933.951	1086.16667
2936.068	1062.16667
2938.184	1027.5
2940.299	999.16667
2942.412	968.83333
2944.524	920.16667
2946.634	904.16667
2948.744	848.5
2950.851	857.5
2952.958	809.5
2955.063	808.16667
2957.167	786.16667
2959.269	743.83333
2961.371	760.16667
2963.471	717.16667
2965.569	716.16667
2967.666	670.83333
2969.762	666.16667
2971.857	652.83333
2973.95	611.83333
2976.042	621.5
2978.133	595.5
2980.222	588.83333
2982.31	562.16667
2984.396	546.16667
2986.482	536.83333
2988.566	544.16667
2990.648	514.5
2992.73	524.16667
2994.81	503.16667
2996.889	511.16667
2998.966	496.16667
3001.042	506.16667
3003.117	485.5
3005.191	495.16667
3007.263	475.16667
3009.334	481.83333
3011.403	478.83333
3013.472	455.5
3015.539	456.5
3017.604	466.16667
3019.669	431.5
3021.732	433.83333
3023.794	428.16667
3025.854	415.5
3027.914	416.83333
3029.971	419.5
3032.028	415.5
3034.083	417.83333
3036.137	413.5
3038.19	389.83333
3040.242	384.16667
3042.292	371.83333
3044.341	378.16667
3046.388	393.16667
3048.435	361.16667
3050.48	374.5
3052.524	363.5
3054.566	353.5
3056.607	366.5
3058.647	354.5
3060.686	339.16667
3062.723	324.83333
3064.759	310.83333
3066.794	-0.83333
3068.828	0.16667
3070.86	-1.83333
