-0.839	443.66667
3.438	473.33333
7.711	135
11.981	58
16.247	45.33333
20.509	45
24.768	46
29.024	49
33.276	47
37.524	50.66667
41.769	42.66667
46.01	37.66667
50.247	53
54.481	66.33333
58.712	69.33333
62.939	52.33333
67.162	65
71.382	64.33333
75.599	52.66667
79.812	71.33333
84.021	79.66667
88.227	67.33333
92.429	69.66667
96.628	52.33333
100.823	75
105.015	80.66667
109.204	83.66667
113.388	89
117.57	86.33333
121.748	100.66667
125.922	88
130.093	113
134.261	120.66667
138.425	116
142.585	159.33333
146.742	165.66667
150.896	201.66667
155.046	246.33333
159.193	409.33333
163.336	700.33333
167.476	1306.33333
171.613	2374.33333
175.746	3928
179.875	5771
184.002	7524.33333
188.124	8712
192.244	9097.66667
196.36	9065
200.472	8869
204.581	8684
208.687	8591.66667
212.79	8545
216.889	8596.33333
220.984	8741.33333
225.077	8849.33333
229.165	8995
233.251	9144.66667
237.333	9273.66667
241.412	9287
245.487	9277.33333
249.559	9269
253.628	9125.33333
257.694	8991.33333
261.756	8856.66667
265.814	8691.66667
269.87	8422
273.922	8081.33333
277.97	7776.33333
282.016	7409.66667
286.058	7050
290.097	6823.33333
294.132	6716.66667
298.164	6658.33333
302.193	6405.66667
306.219	6115.66667
310.241	5555.66667
314.26	5072.33333
318.276	4594
322.288	4271.66667
326.297	4032
330.303	3834.66667
334.305	3743.33333
338.305	3658.33333
342.301	3591.66667
346.294	3581.66667
350.283	3553.66667
354.269	3550.66667
358.252	3530.33333
362.232	3495.33333
366.209	3512.66667
370.182	3484
374.152	3474.33333
378.119	3498.33333
382.083	3475.66667
386.043	3517.33333
390	3464.33333
393.954	3455.33333
397.905	3381.33333
401.852	3342.33333
405.797	3263
409.738	3204.66667
413.676	3178
417.61	3105
421.542	3081
425.47	3024
429.396	2991
433.318	2976.33333
437.236	2933.33333
441.152	2937.66667
445.065	2862
448.974	2883.66667
452.88	2829
456.783	2816.33333
460.683	2795
464.58	2798.66667
468.473	2799
472.364	2786.66667
476.251	2783
480.135	2836.66667
484.016	2844
487.894	2834.66667
491.769	2860.66667
495.641	2849
499.509	2848.33333
503.375	2826.33333
507.237	2821.33333
511.096	2823
514.952	2832.33333
518.805	2815.66667
522.655	2835.66667
526.502	2788
530.346	2772.66667
534.187	2815
538.024	2801
541.859	2818
545.69	2836.66667
549.519	2822
553.344	2786.66667
557.166	2773.66667
560.985	2729
564.802	2697.66667
568.615	2665.33333
572.425	2629
576.232	2594.66667
580.036	2610
583.836	2626.66667
587.634	2621
591.429	2630.66667
595.221	2662
599.01	2678
602.796	2703
606.578	2735.33333
610.358	2739.66667
614.135	2718.33333
617.909	2745
621.679	2715.66667
625.447	2685.66667
629.212	2696.33333
632.973	2701
636.732	2718.33333
640.488	2708
644.241	2692.66667
647.991	2678
651.737	2725.33333
655.481	2682.33333
659.222	2714.66667
662.96	2707
666.695	2727.33333
670.427	2741.33333
674.156	2740.66667
677.882	2748
681.605	2698
685.325	2654.66667
689.043	2691.33333
692.757	2703
696.468	2679.33333
700.177	2708.33333
703.882	2686.33333
707.585	2685.33333
711.284	2687.66667
714.981	2688
718.675	2677.66667
722.366	2698
726.054	2667.33333
729.739	2698.33333
733.421	2685.66667
737.1	2680
740.777	2699
744.45	2709.66667
748.121	2727.66667
751.789	2771.33333
755.453	2765.33333
759.115	2810.66667
762.774	2814.33333
766.431	2833.33333
770.084	2860.33333
773.734	2903
777.382	2943.66667
781.027	2961.66667
784.669	3002.33333
788.308	3015
791.944	3033
795.577	3053.33333
799.208	3092
802.835	3113.33333
806.46	3166.33333
810.082	3220.66667
813.701	3227.33333
817.317	3265.66667
820.931	3263.66667
824.542	3238
828.149	3182.33333
831.754	3173.33333
835.357	3122.33333
838.956	3113.33333
842.553	3110.33333
846.146	3083
849.737	3086
853.326	3079
856.911	3095.66667
860.493	3165
864.073	3166.33333
867.65	3204.33333
871.225	3236
874.796	3246.33333
878.365	3256.33333
881.931	3281.66667
885.494	3314.66667
889.054	3305.66667
892.612	3324.33333
896.166	3273
899.719	3250.66667
903.268	3219
906.814	3218.33333
910.358	3206
913.899	3206
917.438	3211.66667
920.973	3208
924.506	3219.33333
928.036	3297
931.564	3314.33333
935.088	3364
938.61	3366.33333
942.129	3362
945.646	3475
949.16	3517
952.671	3627
956.179	3687.66667
959.685	3669.66667
963.188	3678
966.688	3617.66667
970.185	3550.66667
973.68	3436.66667
977.173	3414.66667
980.662	3393.66667
984.149	3408.66667
987.633	3435.33333
991.114	3477
994.593	3567
998.069	3707.33333
1001.542	3857.66667
1005.013	3784.33333
1008.481	3538
1011.947	3459
1015.409	3458
1018.869	3460.33333
1022.327	3428
1025.782	3420.33333
1029.234	3446.66667
1032.683	3389.66667
1036.13	3283
1039.574	3156.66667
1043.016	3091.66667
1046.455	3014
1049.891	2983
1053.325	2971
1056.756	2963.66667
1060.184	2978.33333
1063.61	3006
1067.033	3013.66667
1070.454	3006.33333
1073.872	3044.33333
1077.287	3046.33333
1080.7	3054.33333
1084.11	3032.66667
1087.517	3020.33333
1090.922	2989.33333
1094.325	2944.66667
1097.724	2918.33333
1101.122	2932.33333
1104.516	2889
1107.908	2925.66667
1111.298	2985.33333
1114.684	2998
1118.069	3036
1121.45	3039
1124.83	3025.66667
1128.206	3051
1131.58	3084
1134.951	3161.33333
1138.32	3245.33333
1141.687	3378
1145.05	3479.33333
1148.412	3545
1151.77	3533
1155.126	3512
1158.48	3534.33333
1161.831	3539.33333
1165.18	3558.66667
1168.525	3625.66667
1171.869	3656.33333
1175.21	3703.66667
1178.548	3740
1181.884	3771.33333
1185.217	3845.33333
1188.548	3876.66667
1191.877	3950.33333
1195.202	4047
1198.526	4097.33333
1201.846	4096.66667
1205.165	4062.33333
1208.48	4072.33333
1211.794	4051.66667
1215.104	4053.33333
1218.413	4031.66667
1221.719	4026.66667
1225.022	3982.66667
1228.323	3947.66667
1231.621	3917.66667
1234.917	3930.66667
1238.21	3947.33333
1241.501	3934
1244.79	3920.33333
1248.076	3974
1251.359	3962
1254.64	4046
1257.919	4074.33333
1261.195	4122.33333
1264.468	4180.66667
1267.74	4256
1271.008	4272.33333
1274.275	4266.33333
1277.538	4234.66667
1280.8	4245
1284.059	4221.66667
1287.315	4277.33333
1290.569	4285.33333
1293.821	4310.66667
1297.07	4325
1300.317	4365
1303.562	4363.33333
1306.803	4343
1310.043	4311
1313.28	4242.66667
1316.515	4208.33333
1319.747	4190
1322.977	4129
1326.204	4078.66667
1329.429	4039.66667
1332.652	4014.66667
1335.872	3994
1339.09	3989
1342.306	3995
1345.519	4002.66667
1348.729	3942
1351.938	3957
1355.144	3854.66667
1358.347	3806.33333
1361.548	3822.33333
1364.747	3834
1367.944	3847.66667
1371.138	3855.33333
1374.329	3843.66667
1377.518	3909
1380.705	3951.33333
1383.89	3918.66667
1387.072	3824.66667
1390.252	3646.33333
1393.429	3546.66667
1396.605	3421.33333
1399.777	3335.33333
1402.948	3287.66667
1406.116	3272
1409.282	3276.33333
1412.445	3253.33333
1415.606	3307.33333
1418.765	3317
1421.921	3397.33333
1425.075	3451.66667
1428.227	3591.66667
1431.376	3743.66667
1434.524	3931.66667
1437.668	4010
1440.811	4056.66667
1443.951	4044.33333
1447.089	4049
1450.224	4040
1453.357	4001.66667
1456.488	3971.66667
1459.617	3939.33333
1462.743	3869
1465.867	3796.66667
1468.989	3733.66667
1472.108	3695.66667
1475.225	3654.66667
1478.34	3611.33333
1481.453	3604
1484.563	3605.66667
1487.671	3657.33333
1490.776	3718
1493.88	3806.66667
1496.981	3865.66667
1500.08	3959.33333
1503.176	4022
1506.271	4079.66667
1509.363	4184.66667
1512.452	4216.66667
1515.54	4306.66667
1518.625	4422.66667
1521.708	4634.33333
1524.789	4910.66667
1527.867	5253.66667
1530.944	5540.66667
1534.018	5715.33333
1537.089	5790.66667
1540.159	5642.33333
1543.226	5425
1546.291	5236
1549.354	5060
1552.415	4909.66667
1555.473	4796
1558.529	4711
1561.583	4675
1564.634	4664.33333
1567.684	4665.33333
1570.731	4714
1573.776	4800.33333
1576.819	4853.66667
1579.859	4906
1582.898	4963.66667
1585.934	5002
1588.968	5012.66667
1591.999	5000.66667
1595.029	5008.66667
1598.056	5067.33333
1601.081	5063.66667
1604.104	5031.66667
1607.125	5015.33333
1610.144	4907
1613.16	4822.33333
1616.174	4716.33333
1619.186	4635.66667
1622.196	4520.33333
1625.203	4423.66667
1628.209	4383.33333
1631.212	4362.66667
1634.213	4356
1637.212	4351.66667
1640.209	4264
1643.203	4172
1646.196	4059.33333
1649.186	3880.33333
1652.174	3761
1655.16	3665.33333
1658.144	3535.33333
1661.125	3385.66667
1664.105	3210.33333
1667.082	3040.66667
1670.057	2871.33333
1673.03	2709.66667
1676.001	2505.66667
1678.97	2337.66667
1681.937	2181.66667
1684.901	2096.33333
1687.863	1991.33333
1690.824	1930.66667
1693.782	1848.33333
1696.738	1804
1699.692	1765.33333
1702.643	1741.33333
1705.593	1688
1708.54	1705.33333
1711.486	1678.33333
1714.429	1642.66667
1717.37	1632
1720.309	1617
1723.246	1593
1726.181	1565
1729.113	1570.33333
1732.044	1537.66667
1734.972	1530.33333
1737.899	1524.66667
1740.823	1525.66667
1743.745	1502
1746.665	1457
1749.583	1440.66667
1752.499	1418
1755.413	1406
1758.325	1363.66667
1761.235	1359.33333
1764.142	1347
1767.048	1320.66667
1769.951	1314.66667
1772.852	1310.33333
1775.752	1311
1778.649	1302.33333
1781.544	1294.66667
1784.437	1268.33333
1787.328	1287.66667
1790.217	1262.66667
1793.104	1234
1795.989	1248.33333
1798.872	1233.66667
1801.753	1247
1804.631	1259.66667
1807.508	1254.33333
1810.383	1244.33333
1813.255	1223
1816.126	1224.66667
1818.994	1204
1821.861	1201.33333
1824.725	1209
1827.587	1195.66667
1830.448	1197.66667
1833.306	1177
1836.162	1177
1839.017	1175.33333
1841.869	1181.33333
1844.719	1172.66667
1847.567	1143.33333
1850.414	1153.33333
1853.258	1144.33333
1856.1	1152
1858.94	1164.33333
1861.778	1142.66667
1864.614	1131.66667
1867.448	1156.33333
1870.28	1131
1873.111	1161.33333
1875.939	1143.66667
1878.765	1163.66667
1881.589	1126.66667
1884.411	1117
1887.231	1141.33333
1890.049	1122.33333
1892.865	1120
1895.68	1108.33333
1898.492	1116
1901.302	1102.33333
1904.11	1094.66667
1906.916	1082
1909.721	1071.33333
1912.523	1099
1915.323	1075
1918.122	1066.33333
1920.918	1085.33333
1923.712	1080.33333
1926.505	1078
1929.295	1048
1932.084	1080.66667
1934.87	1072.66667
1937.655	1054
1940.438	1046.66667
1943.218	1067
1945.997	1059.66667
1948.774	1068
1951.549	1053.66667
1954.322	1058.66667
1957.093	1050
1959.862	1052.33333
1962.629	1045.33333
1965.394	1042.33333
1968.157	1027.66667
1970.918	1033.66667
1973.678	1027
1976.435	1025
1979.19	1022.33333
1981.944	1015.33333
1984.696	1006
1987.445	996
1990.193	1009.33333
1992.939	1021.66667
1995.683	1008.66667
1998.425	988
2001.165	1016.33333
2003.903	989.33333
2006.639	996.66667
2009.374	993
2012.106	996
2014.837	973.33333
2017.566	988.66667
2020.292	984
2023.017	992
2025.74	984.66667
2028.461	981
2031.18	977.33333
2033.898	967
2036.613	980.66667
2039.327	980
2042.038	943.66667
2044.748	964.66667
2047.456	961.66667
2050.162	943.66667
2052.866	954.66667
2055.568	960.33333
2058.268	954.66667
2060.967	956.66667
2063.663	937.66667
2066.358	953
2069.051	943
2071.742	952.66667
2074.431	949.66667
2077.118	935.66667
2079.804	919.66667
2082.487	941.66667
2085.169	938.33333
2087.849	964
2090.527	932.33333
2093.203	968.33333
2095.877	961.66667
2098.55	953
2101.22	972.33333
2103.889	976.33333
2106.556	965.33333
2109.221	984
2111.884	1003.33333
2114.546	1057.33333
2117.205	1083
2119.863	1170
2122.519	1240.33333
2125.173	1319
2127.825	1420
2130.475	1465
2133.124	1460.66667
2135.771	1438
2138.416	1405
2141.059	1331
2143.7	1288.66667
2146.339	1209.33333
2148.977	1145
2151.613	1125
2154.247	1103.33333
2156.879	1087.33333
2159.51	1086
2162.138	1077.66667
2164.765	1072.66667
2167.39	1058.33333
2170.013	1084.33333
2172.634	1092.66667
2175.254	1083.33333
2177.872	1120.33333
2180.488	1072
2183.102	1079.33333
2185.714	1053
2188.325	1030.66667
2190.934	1019.66667
2193.541	1008
2196.146	970.66667
2198.75	953.66667
2201.351	944
2203.951	907.66667
2206.549	929
2209.146	892.33333
2211.74	886
2214.333	895.66667
2216.924	866
2219.514	870.66667
2222.101	860.66667
2224.687	873.66667
2227.271	864
2229.853	854.33333
2232.433	842
2235.012	859.66667
2237.589	870.33333
2240.164	853.33333
2242.738	841
2245.309	816.33333
2247.879	833.66667
2250.448	838.33333
2253.014	798.33333
2255.579	786.33333
2258.142	786.33333
2260.703	781.33333
2263.262	759.33333
2265.82	770.66667
2268.376	773.33333
2270.93	748.33333
2273.483	749.33333
2276.033	751
2278.583	746.66667
2281.13	747
2283.675	736.66667
2286.219	748.33333
2288.761	735.66667
2291.302	747
2293.841	731.33333
2296.377	723.33333
2298.913	715
2301.446	734
2303.978	725.66667
2306.508	716.33333
2309.037	720
2311.563	718
2314.088	725
2316.612	699.33333
2319.133	714.66667
2321.653	705.66667
2324.171	683.66667
2326.688	696.66667
2329.202	693
2331.715	695.33333
2334.227	691.33333
2336.736	684
2339.244	688.33333
2341.751	673.33333
2344.255	685
2346.758	681.33333
2349.259	669
2351.759	681
2354.257	659.66667
2356.753	661.66667
2359.247	669.33333
2361.74	676
2364.231	656.66667
2366.721	671.33333
2369.209	663.66667
2371.695	652.66667
2374.179	657
2376.662	643.33333
2379.143	662.66667
2381.622	646.66667
2384.1	661.66667
2386.576	646.66667
2389.051	674
2391.524	665.66667
2393.995	659
2396.464	643
2398.932	652.33333
2401.398	641
2403.863	646.66667
2406.325	637.33333
2408.787	648.66667
2411.246	640.66667
2413.704	641
2416.16	618.33333
2418.615	644
2421.068	633.66667
2423.519	633.33333
2425.969	627
2428.417	640.66667
2430.863	653.33333
2433.308	631.33333
2435.751	634.33333
2438.193	624.66667
2440.633	632
2443.071	625.66667
2445.508	624.66667
2447.943	624
2450.376	604.66667
2452.808	620.33333
2455.238	602.33333
2457.667	642.66667
2460.093	607.33333
2462.519	605.66667
2464.942	607.33333
2467.365	624.33333
2469.785	600.66667
2472.204	597
2474.621	602.33333
2477.037	623.33333
2479.451	589.33333
2481.863	591.33333
2484.274	587.33333
2486.683	590.33333
2489.091	604.33333
2491.497	598.33333
2493.901	594.66667
2496.304	587.66667
2498.705	596
2501.105	577
2503.503	610.33333
2505.899	594
2508.294	605.33333
2510.687	588.33333
2513.079	580.33333
2515.469	575.33333
2517.858	576
2520.245	586
2522.63	579
2525.014	576.66667
2527.396	570.33333
2529.776	570
2532.156	579.33333
2534.533	568
2536.909	577.33333
2539.283	557.33333
2541.656	560.33333
2544.027	586.66667
2546.397	571.33333
2548.765	560.66667
2551.131	571.66667
2553.496	562.66667
2555.86	570
2558.221	566
2560.582	560.66667
2562.94	551.66667
2565.298	566.33333
2567.653	579
2570.007	543
2572.36	567.66667
2574.711	559.33333
2577.06	576
2579.408	564
2581.754	564
2584.099	561.33333
2586.442	554
2588.784	557.33333
2591.124	554.33333
2593.463	555
2595.8	541
2598.135	535.33333
2600.469	548.33333
2602.802	569
2605.133	561
2607.462	549
2609.79	544
2612.116	562.66667
2614.441	546.33333
2616.764	550.33333
2619.086	553.66667
2621.406	549.33333
2623.725	555.33333
2626.042	551.66667
2628.358	557.66667
2630.672	548.66667
2632.985	560
2635.296	551.33333
2637.606	554
2639.914	543.66667
2642.22	545.66667
2644.525	552.33333
2646.829	556
2649.131	557.33333
2651.432	572
2653.731	557
2656.028	559.66667
2658.324	554.66667
2660.619	548
2662.912	561
2665.204	557
2667.494	567.33333
2669.782	552.66667
2672.07	567
2674.355	569
2676.639	543.66667
2678.922	557.66667
2681.203	568.33333
2683.483	549.33333
2685.761	539.66667
2688.038	563.66667
2690.313	578.66667
2692.587	557.33333
2694.859	548
2697.13	557.66667
2699.399	563
2701.667	576
2703.933	572.66667
2706.198	578
2708.461	588
2710.723	586.33333
2712.984	592
2715.243	594.66667
2717.5	586.33333
2719.757	598
2722.011	593.33333
2724.264	611.33333
2726.516	618
2728.766	600
2731.015	598
2733.262	598.33333
2735.508	587.66667
2737.753	595.66667
2739.996	580.33333
2742.237	583
2744.477	594.66667
2746.716	590.33333
2748.953	575
2751.189	582.66667
2753.423	572.33333
2755.656	571.66667
2757.887	559
2760.117	561.33333
2762.346	556.66667
2764.573	550.66667
2766.798	549
2769.022	563.33333
2771.245	553
2773.467	551
2775.686	558
2777.905	567.66667
2780.122	565
2782.337	571
2784.552	563
2786.764	575.66667
2788.976	580.33333
2791.186	576.33333
2793.394	584.66667
2795.601	601
2797.807	600.66667
2800.011	608.33333
2802.214	616.33333
2804.415	620.33333
2806.615	620.33333
2808.814	641
2811.011	637.66667
2813.206	634.33333
2815.401	656
2817.594	660
2819.785	676.33333
2821.975	668.66667
2824.164	684.33333
2826.351	695.66667
2828.537	718.66667
2830.722	746
2832.905	748.66667
2835.086	787.66667
2837.267	837
2839.445	858.66667
2841.623	902
2843.799	934.66667
2845.974	982
2848.147	1033.33333
2850.319	1061
2852.489	1100.66667
2854.659	1115
2856.826	1128
2858.993	1162
2861.158	1145.33333
2863.321	1143
2865.483	1171
2867.644	1193.33333
2869.804	1182.66667
2871.962	1175.66667
2874.118	1170
2876.274	1171
2878.428	1171.33333
2880.58	1165
2882.731	1162
2884.881	1173
2887.03	1170
2889.177	1159
2891.322	1185.33333
2893.467	1186
2895.61	1190.66667
2897.751	1226.33333
2899.892	1204
2902.03	1216
2904.168	1239.66667
2906.304	1249.33333
2908.439	1261
2910.572	1235.33333
2912.704	1273.33333
2914.835	1273
2916.965	1269
2919.093	1286.33333
2921.219	1233.66667
2923.345	1268.66667
2925.469	1252.33333
2927.591	1227.33333
2929.712	1199.66667
2931.832	1184
2933.951	1143.33333
2936.068	1124.33333
2938.184	1101
2940.299	1060
2942.412	1033.66667
2944.524	993.33333
2946.634	971
2948.744	912.33333
2950.851	918.66667
2952.958	868.66667
2955.063	862
2957.167	839.33333
2959.269	789.66667
2961.371	818
2963.471	765
2965.569	758.66667
2967.666	721.66667
2969.762	705.33333
2971.857	695.33333
2973.95	674.33333
2976.042	663
2978.133	642.33333
2980.222	635.33333
2982.31	603.33333
2984.396	587.33333
2986.482	581
2988.566	580
2990.648	562.66667
2992.73	568.66667
2994.81	544.66667
2996.889	555
2998.966	539.66667
3001.042	548.66667
3003.117	530.66667
3005.191	525.33333
3007.263	526
3009.334	515
3011.403	517
3013.472	485.66667
3015.539	503.33333
3017.604	502.66667
3019.669	469.33333
3021.732	473
3023.794	468.66667
3025.854	462.33333
3027.914	456.33333
3029.971	463.66667
3032.028	454
3034.083	455.66667
3036.137	447
3038.19	430
3040.242	418.66667
3042.292	418.66667
3044.341	414
3046.388	428
3048.435	402.33333
3050.48	420
3052.524	406.66667
3054.566	385.66667
3056.607	401.66667
3058.647	390.66667
3060.686	366.33333
3062.723	358
3064.759	351
3066.794	0.33333
3068.828	0
3070.86	-1.66667
