-0.839	455.625
3.438	494.95833
7.711	132.95833
11.981	55.29167
16.247	48.29167
20.509	43.95833
24.768	48.29167
29.024	46.29167
33.276	44.95833
37.524	50.625
41.769	40.625
46.01	40.29167
50.247	49.29167
54.481	62.625
58.712	63.625
62.939	49.29167
67.162	61.95833
71.382	62.95833
75.599	50.625
79.812	65.625
84.021	81.625
88.227	63.95833
92.429	65.29167
96.628	48.625
100.823	67.95833
105.015	78.625
109.204	81.29167
113.388	82.625
117.57	76.95833
121.748	93.29167
125.922	87.29167
130.093	112.29167
134.261	113.95833
138.425	105.95833
142.585	153.29167
146.742	157.625
150.896	181.95833
155.046	238.625
159.193	388.29167
163.336	665.625
167.476	1230.29167
171.613	2249.625
175.746	3733.95833
179.875	5528.95833
184.002	7130.625
188.124	8213.29167
192.244	8597.95833
196.36	8507.625
200.472	8334.625
204.581	8122.95833
208.687	7888.95833
212.79	7892.625
216.889	7911.29167
220.984	7947.625
225.077	8049.625
229.165	8139.95833
233.251	8285.625
237.333	8385.29167
241.412	8378.29167
245.487	8378.29167
249.559	8323.625
253.628	8235.625
257.694	8159.95833
261.756	8088.95833
265.814	7965.29167
269.87	7716.625
273.922	7379.625
277.97	7169.625
282.016	6874.95833
286.058	6631.625
290.097	6519.29167
294.132	6478.625
298.164	6360.29167
302.193	6166.625
306.219	5778.29167
310.241	5281.95833
314.26	4740.625
318.276	4323.625
322.288	4033.625
326.297	3775.625
330.303	3623.95833
334.305	3506.29167
338.305	3411.625
342.301	3351.625
346.294	3293.95833
350.283	3255.29167
354.269	3220.95833
358.252	3217.29167
362.232	3166.95833
366.209	3158.625
370.182	3083.625
374.152	3089.29167
378.119	3096.625
382.083	3100.95833
386.043	3088.29167
390	3087.95833
393.954	3037.625
397.905	2998.95833
401.852	2984.625
405.797	2951.29167
409.738	2912.625
413.676	2897.95833
417.61	2901.29167
421.542	2829.29167
425.47	2797.625
429.396	2745.95833
433.318	2726.95833
437.236	2721.95833
441.152	2727.625
445.065	2670.625
448.974	2663.95833
452.88	2641.29167
456.783	2639.95833
460.683	2597.29167
464.58	2601.95833
468.473	2610.29167
472.364	2604.95833
476.251	2608.95833
480.135	2611.95833
484.016	2651.625
487.894	2661.95833
491.769	2688.95833
495.641	2659.95833
499.509	2659.95833
503.375	2694.95833
507.237	2667.29167
511.096	2642.625
514.952	2667.625
518.805	2677.95833
522.655	2669.95833
526.502	2640.625
530.346	2655.29167
534.187	2673.29167
538.024	2647.625
541.859	2667.625
545.69	2718.625
549.519	2687.95833
553.344	2644.625
557.166	2615.29167
560.985	2584.29167
564.802	2537.625
568.615	2502.95833
572.425	2461.95833
576.232	2450.625
580.036	2431.95833
583.836	2445.95833
587.634	2458.29167
591.429	2454.95833
595.221	2495.29167
599.01	2519.625
602.796	2562.95833
606.578	2604.625
610.358	2591.95833
614.135	2570.95833
617.909	2598.95833
621.679	2549.29167
625.447	2525.95833
629.212	2538.29167
632.973	2556.29167
636.732	2538.625
640.488	2534.95833
644.241	2515.625
647.991	2524.625
651.737	2544.625
655.481	2526.625
659.222	2535.625
662.96	2525.625
666.695	2518.95833
670.427	2557.95833
674.156	2552.29167
677.882	2562.625
681.605	2537.625
685.325	2526.625
689.043	2501.95833
692.757	2483.29167
696.468	2510.29167
700.177	2521.95833
703.882	2504.625
707.585	2483.625
711.284	2478.625
714.981	2480.29167
718.675	2518.625
722.366	2527.625
726.054	2487.29167
729.739	2488.625
733.421	2512.29167
737.1	2492.95833
740.777	2528.29167
744.45	2533.625
748.121	2531.625
751.789	2606.95833
755.453	2604.625
759.115	2607.95833
762.774	2655.625
766.431	2677.29167
770.084	2712.29167
773.734	2743.625
777.382	2808.625
781.027	2831.29167
784.669	2842.95833
788.308	2863.29167
791.944	2860.625
795.577	2891.625
799.208	2901.625
802.835	2922.95833
806.46	2952.95833
810.082	3019.29167
813.701	3013.95833
817.317	3046.29167
820.931	3040.29167
824.542	3039.95833
828.149	3009.29167
831.754	2991.29167
835.357	2968.625
838.956	2974.95833
842.553	2971.625
846.146	2955.29167
849.737	2936.29167
853.326	2948.625
856.911	2978.95833
860.493	2994.95833
864.073	3044.95833
867.65	3080.625
871.225	3128.625
874.796	3107.625
878.365	3142.95833
881.931	3139.625
885.494	3179.625
889.054	3177.95833
892.612	3159.29167
896.166	3142.95833
899.719	3105.95833
903.268	3073.29167
906.814	3069.29167
910.358	3065.95833
913.899	3048.29167
917.438	3054.625
920.973	3038.29167
924.506	3091.625
928.036	3124.95833
931.564	3156.95833
935.088	3203.95833
938.61	3207.29167
942.129	3218.29167
945.646	3310.29167
949.16	3375.95833
952.671	3482.95833
956.179	3506.625
959.685	3503.29167
963.188	3526.95833
966.688	3455.95833
970.185	3356.29167
973.68	3268.625
977.173	3200.29167
980.662	3194.29167
984.149	3208.29167
987.633	3211.95833
991.114	3248.625
994.593	3356.625
998.069	3454.625
1001.542	3615.29167
1005.013	3529.625
1008.481	3318.95833
1011.947	3277.29167
1015.409	3286.95833
1018.869	3285.625
1022.327	3255.29167
1025.782	3208.29167
1029.234	3213.95833
1032.683	3202.95833
1036.13	3082.95833
1039.574	2957.625
1043.016	2866.95833
1046.455	2827.95833
1049.891	2786.95833
1053.325	2783.95833
1056.756	2792.625
1060.184	2771.95833
1063.61	2819.625
1067.033	2853.95833
1070.454	2817.95833
1073.872	2880.95833
1077.287	2872.625
1080.7	2861.95833
1084.11	2863.625
1087.517	2835.29167
1090.922	2815.95833
1094.325	2781.625
1097.724	2755.95833
1101.122	2752.29167
1104.516	2757.625
1107.908	2773.95833
1111.298	2837.29167
1114.684	2864.625
1118.069	2898.95833
1121.45	2928.95833
1124.83	2928.29167
1128.206	2926.625
1131.58	2998.625
1134.951	3076.29167
1138.32	3210.95833
1141.687	3343.95833
1145.05	3456.625
1148.412	3512.625
1151.77	3498.29167
1155.126	3496.95833
1158.48	3498.95833
1161.831	3523.95833
1165.18	3547.29167
1168.525	3568.625
1171.869	3646.95833
1175.21	3654.29167
1178.548	3748.29167
1181.884	3782.625
1185.217	3787.625
1188.548	3841.625
1191.877	3896.29167
1195.202	3963.29167
1198.526	4020.95833
1201.846	4001.95833
1205.165	3987.625
1208.48	3952.625
1211.794	3951.625
1215.104	3913.95833
1218.413	3934.95833
1221.719	3896.95833
1225.022	3865.95833
1228.323	3826.29167
1231.621	3805.29167
1234.917	3793.95833
1238.21	3797.29167
1241.501	3823.625
1244.79	3797.29167
1248.076	3787.29167
1251.359	3830.29167
1254.64	3889.625
1257.919	3925.625
1261.195	3963.29167
1264.468	4068.625
1267.74	4137.95833
1271.008	4160.29167
1274.275	4130.95833
1277.538	4122.625
1280.8	4082.625
1284.059	4062.95833
1287.315	4117.29167
1290.569	4141.95833
1293.821	4190.625
1297.07	4174.29167
1300.317	4229.625
1303.562	4188.95833
1306.803	4178.625
1310.043	4129.29167
1313.28	4076.625
1316.515	4048.29167
1319.747	3996.95833
1322.977	3967.625
1326.204	3912.29167
1329.429	3846.625
1332.652	3810.29167
1335.872	3811.625
1339.09	3770.29167
1342.306	3773.29167
1345.519	3725.95833
1348.729	3688.625
1351.938	3642.95833
1355.144	3602.29167
1358.347	3549.625
1361.548	3547.95833
1364.747	3529.95833
1367.944	3530.625
1371.138	3558.625
1374.329	3587.95833
1377.518	3617.95833
1380.705	3672.625
1383.89	3663.29167
1387.072	3547.95833
1390.252	3438.29167
1393.429	3314.29167
1396.605	3182.95833
1399.777	3108.95833
1402.948	3066.29167
1406.116	3034.625
1409.282	3046.29167
1412.445	3024.625
1415.606	3085.29167
1418.765	3119.29167
1421.921	3151.625
1425.075	3251.625
1428.227	3350.29167
1431.376	3546.29167
1434.524	3686.29167
1437.668	3788.625
1440.811	3827.95833
1443.951	3870.625
1447.089	3895.95833
1450.224	3864.29167
1453.357	3870.29167
1456.488	3851.95833
1459.617	3764.29167
1462.743	3750.29167
1465.867	3668.29167
1468.989	3634.95833
1472.108	3593.625
1475.225	3530.29167
1478.34	3491.95833
1481.453	3497.625
1484.563	3513.625
1487.671	3576.29167
1490.776	3628.95833
1493.88	3709.625
1496.981	3810.625
1500.08	3882.29167
1503.176	3955.625
1506.271	3999.95833
1509.363	4068.625
1512.452	4135.29167
1515.54	4216.29167
1518.625	4309.95833
1521.708	4505.29167
1524.789	4710.95833
1527.867	5034.95833
1530.944	5306.95833
1534.018	5511.29167
1537.089	5579.625
1540.159	5489.625
1543.226	5343.95833
1546.291	5142.95833
1549.354	4959.625
1552.415	4850.29167
1555.473	4740.625
1558.529	4662.95833
1561.583	4631.29167
1564.634	4586.95833
1567.684	4616.95833
1570.731	4625.625
1573.776	4704.95833
1576.819	4759.29167
1579.859	4816.625
1582.898	4878.29167
1585.934	4927.95833
1588.968	4964.95833
1591.999	4917.95833
1595.029	4920.625
1598.056	4906.625
1601.081	4935.29167
1604.104	4923.625
1607.125	4855.29167
1610.144	4757.625
1613.16	4659.29167
1616.174	4549.95833
1619.186	4437.29167
1622.196	4339.95833
1625.203	4254.29167
1628.209	4185.625
1631.212	4122.625
1634.213	4093.625
1637.212	4043.625
1640.209	3969.29167
1643.203	3851.95833
1646.196	3701.625
1649.186	3536.95833
1652.174	3399.29167
1655.16	3276.29167
1658.144	3156.95833
1661.125	3037.29167
1664.105	2848.625
1667.082	2712.625
1670.057	2585.95833
1673.03	2406.95833
1676.001	2251.29167
1678.97	2119.95833
1681.937	1970.95833
1684.901	1880.625
1687.863	1798.625
1690.824	1741.625
1693.782	1692.625
1696.738	1640.625
1699.692	1590.29167
1702.643	1565.625
1705.593	1541.95833
1708.54	1509.95833
1711.486	1507.29167
1714.429	1461.29167
1717.37	1453.95833
1720.309	1421.625
1723.246	1440.95833
1726.181	1400.625
1729.113	1396.625
1732.044	1387.95833
1734.972	1358.625
1737.899	1368.625
1740.823	1358.625
1743.745	1321.95833
1746.665	1296.625
1749.583	1296.625
1752.499	1257.29167
1755.413	1251.29167
1758.325	1212.625
1761.235	1216.29167
1764.142	1181.95833
1767.048	1182.29167
1769.951	1181.625
1772.852	1168.29167
1775.752	1156.95833
1778.649	1166.625
1781.544	1162.29167
1784.437	1122.95833
1787.328	1140.29167
1790.217	1134.95833
1793.104	1094.625
1795.989	1087.95833
1798.872	1087.95833
1801.753	1117.625
1804.631	1092.95833
1807.508	1108.29167
1810.383	1089.625
1813.255	1088.625
1816.126	1074.95833
1818.994	1074.95833
1821.861	1061.95833
1824.725	1061.29167
1827.587	1052.625
1830.448	1057.625
1833.306	1020.625
1836.162	1047.625
1839.017	1031.95833
1841.869	1034.625
1844.719	1032.95833
1847.567	1010.625
1850.414	1004.95833
1853.258	1012.29167
1856.1	1017.625
1858.94	1029.625
1861.778	1018.29167
1864.614	992.625
1867.448	1019.625
1870.28	1002.95833
1873.111	1028.95833
1875.939	1007.625
1878.765	1020.95833
1881.589	993.625
1884.411	995.29167
1887.231	998.95833
1890.049	990.95833
1892.865	997.95833
1895.68	974.95833
1898.492	981.95833
1901.302	964.29167
1904.11	970.29167
1906.916	964.95833
1909.721	946.29167
1912.523	973.625
1915.323	939.29167
1918.122	975.95833
1920.918	957.95833
1923.712	943.95833
1926.505	950.29167
1929.295	926.29167
1932.084	949.29167
1934.87	951.29167
1937.655	927.625
1940.438	927.95833
1943.218	928.95833
1945.997	941.625
1948.774	933.29167
1951.549	941.625
1954.322	923.95833
1957.093	932.625
1959.862	916.95833
1962.629	917.29167
1965.394	910.29167
1968.157	899.29167
1970.918	912.95833
1973.678	904.95833
1976.435	899.95833
1979.19	907.29167
1981.944	890.95833
1984.696	888.95833
1987.445	881.625
1990.193	893.29167
1992.939	899.29167
1995.683	883.95833
1998.425	864.29167
2001.165	896.29167
2003.903	888.29167
2006.639	880.625
2009.374	878.95833
2012.106	890.29167
2014.837	857.95833
2017.566	876.29167
2020.292	875.625
2023.017	873.95833
2025.74	874.29167
2028.461	867.625
2031.18	878.625
2033.898	853.29167
2036.613	857.29167
2039.327	864.95833
2042.038	833.29167
2044.748	844.95833
2047.456	846.95833
2050.162	838.29167
2052.866	841.625
2055.568	846.95833
2058.268	845.95833
2060.967	841.625
2063.663	814.95833
2066.358	843.29167
2069.051	823.29167
2071.742	824.95833
2074.431	846.95833
2077.118	837.625
2079.804	817.95833
2082.487	831.95833
2085.169	826.625
2087.849	854.95833
2090.527	822.95833
2093.203	842.625
2095.877	842.625
2098.55	836.625
2101.22	838.625
2103.889	841.625
2106.556	835.95833
2109.221	862.29167
2111.884	867.625
2114.546	913.625
2117.205	942.625
2119.863	997.29167
2122.519	1064.95833
2125.173	1151.625
2127.825	1235.95833
2130.475	1267.625
2133.124	1256.95833
2135.771	1235.29167
2138.416	1195.625
2141.059	1133.29167
2143.7	1077.625
2146.339	1021.29167
2148.977	972.95833
2151.613	970.29167
2154.247	928.29167
2156.879	932.95833
2159.51	906.625
2162.138	893.95833
2164.765	894.625
2167.39	880.625
2170.013	904.625
2172.634	904.95833
2175.254	898.95833
2177.872	914.625
2180.488	881.95833
2183.102	887.625
2185.714	867.625
2188.325	852.29167
2190.934	838.625
2193.541	842.625
2196.146	815.625
2198.75	817.95833
2201.351	812.29167
2203.951	781.95833
2206.549	799.29167
2209.146	779.95833
2211.74	774.29167
2214.333	769.625
2216.924	756.29167
2219.514	758.95833
2222.101	748.95833
2224.687	779.95833
2227.271	761.625
2229.853	743.95833
2232.433	737.29167
2235.012	756.625
2237.589	747.29167
2240.164	754.29167
2242.738	747.29167
2245.309	719.29167
2247.879	727.625
2250.448	730.625
2253.014	699.29167
2255.579	688.29167
2258.142	689.625
2260.703	686.29167
2263.262	677.29167
2265.82	677.29167
2268.376	678.95833
2270.93	660.625
2273.483	662.29167
2276.033	659.625
2278.583	653.625
2281.13	644.29167
2283.675	641.29167
2286.219	656.29167
2288.761	656.625
2291.302	647.29167
2293.841	648.95833
2296.377	625.625
2298.913	625.95833
2301.446	645.95833
2303.978	640.95833
2306.508	620.625
2309.037	635.29167
2311.563	632.95833
2314.088	639.625
2316.612	605.29167
2319.133	633.29167
2321.653	619.95833
2324.171	612.29167
2326.688	633.29167
2329.202	607.625
2331.715	617.29167
2334.227	606.625
2336.736	606.95833
2339.244	596.95833
2341.751	593.29167
2344.255	601.95833
2346.758	597.95833
2349.259	584.95833
2351.759	578.625
2354.257	584.29167
2356.753	591.95833
2359.247	595.625
2361.74	602.95833
2364.231	581.95833
2366.721	591.625
2369.209	573.29167
2371.695	586.625
2374.179	572.95833
2376.662	571.95833
2379.143	584.625
2381.622	577.95833
2384.1	575.625
2386.576	579.95833
2389.051	582.95833
2391.524	595.625
2393.995	583.29167
2396.464	571.95833
2398.932	562.625
2401.398	568.29167
2403.863	559.29167
2406.325	564.29167
2408.787	573.95833
2411.246	561.625
2413.704	561.625
2416.16	561.625
2418.615	563.95833
2421.068	566.625
2423.519	570.29167
2425.969	543.625
2428.417	570.95833
2430.863	570.29167
2433.308	569.625
2435.751	549.625
2438.193	552.95833
2440.633	567.29167
2443.071	565.95833
2445.508	537.29167
2447.943	545.625
2450.376	535.625
2452.808	550.95833
2455.238	534.29167
2457.667	581.95833
2460.093	545.29167
2462.519	531.29167
2464.942	539.95833
2467.365	541.95833
2469.785	545.29167
2472.204	536.95833
2474.621	531.95833
2477.037	545.29167
2479.451	523.625
2481.863	514.29167
2484.274	515.625
2486.683	529.29167
2489.091	539.95833
2491.497	524.29167
2493.901	532.625
2496.304	514.625
2498.705	533.29167
2501.105	522.95833
2503.503	541.625
2505.899	510.29167
2508.294	547.625
2510.687	520.29167
2513.079	511.95833
2515.469	508.29167
2517.858	520.95833
2520.245	517.625
2522.63	507.95833
2525.014	512.625
2527.396	505.29167
2529.776	511.95833
2532.156	522.29167
2534.533	505.625
2536.909	510.95833
2539.283	496.625
2541.656	499.29167
2544.027	520.95833
2546.397	513.29167
2548.765	509.29167
2551.131	500.625
2553.496	507.29167
2555.86	517.625
2558.221	510.29167
2560.582	508.95833
2562.94	500.625
2565.298	502.29167
2567.653	515.29167
2570.007	483.95833
2572.36	509.625
2574.711	490.29167
2577.06	514.95833
2579.408	497.29167
2581.754	485.95833
2584.099	501.95833
2586.442	492.29167
2588.784	498.95833
2591.124	497.95833
2593.463	493.95833
2595.8	494.29167
2598.135	480.95833
2600.469	490.29167
2602.802	501.625
2605.133	504.29167
2607.462	487.95833
2609.79	479.625
2612.116	494.29167
2614.441	489.95833
2616.764	490.95833
2619.086	494.625
2621.406	494.95833
2623.725	508.95833
2626.042	502.625
2628.358	493.29167
2630.672	487.625
2632.985	503.95833
2635.296	489.625
2637.606	491.29167
2639.914	486.29167
2642.22	497.29167
2644.525	488.95833
2646.829	490.29167
2649.131	503.95833
2651.432	505.95833
2653.731	496.95833
2656.028	511.95833
2658.324	504.625
2660.619	490.95833
2662.912	505.29167
2665.204	486.625
2667.494	509.29167
2669.782	494.95833
2672.07	508.95833
2674.355	512.95833
2676.639	499.95833
2678.922	491.29167
2681.203	512.29167
2683.483	488.95833
2685.761	485.29167
2688.038	503.625
2690.313	516.625
2692.587	512.95833
2694.859	498.95833
2697.13	500.625
2699.399	515.29167
2701.667	517.95833
2703.933	514.29167
2706.198	524.95833
2708.461	530.95833
2710.723	533.29167
2712.984	529.95833
2715.243	536.29167
2717.5	530.29167
2719.757	548.95833
2722.011	532.29167
2724.264	553.625
2726.516	556.95833
2728.766	544.95833
2731.015	544.95833
2733.262	542.29167
2735.508	530.625
2737.753	537.29167
2739.996	517.625
2742.237	527.95833
2744.477	536.29167
2746.716	536.95833
2748.953	520.625
2751.189	527.29167
2753.423	515.625
2755.656	509.625
2757.887	496.29167
2760.117	509.95833
2762.346	506.625
2764.573	495.29167
2766.798	495.95833
2769.022	514.29167
2771.245	512.625
2773.467	502.95833
2775.686	505.95833
2777.905	515.625
2780.122	520.95833
2782.337	518.95833
2784.552	513.95833
2786.764	523.95833
2788.976	525.625
2791.186	528.625
2793.394	529.95833
2795.601	539.95833
2797.807	550.625
2800.011	554.29167
2802.214	567.95833
2804.415	569.625
2806.615	566.29167
2808.814	587.29167
2811.011	573.29167
2813.206	576.95833
2815.401	595.29167
2817.594	605.625
2819.785	616.95833
2821.975	609.29167
2824.164	619.625
2826.351	640.625
2828.537	674.95833
2830.722	677.95833
2832.905	695.29167
2835.086	728.29167
2837.267	772.625
2839.445	804.625
2841.623	825.95833
2843.799	874.95833
2845.974	909.95833
2848.147	962.29167
2850.319	988.625
2852.489	1035.95833
2854.659	1030.625
2856.826	1067.29167
2858.993	1096.29167
2861.158	1080.29167
2863.321	1081.625
2865.483	1107.29167
2867.644	1108.625
2869.804	1116.29167
2871.962	1108.29167
2874.118	1113.29167
2876.274	1144.95833
2878.428	1125.625
2880.58	1114.29167
2882.731	1096.95833
2884.881	1104.29167
2887.03	1097.29167
2889.177	1097.625
2891.322	1102.95833
2893.467	1106.625
2895.61	1108.29167
2897.751	1142.95833
2899.892	1124.625
2902.03	1145.625
2904.168	1163.29167
2906.304	1170.95833
2908.439	1177.95833
2910.572	1169.29167
2912.704	1193.29167
2914.835	1188.29167
2916.965	1197.95833
2919.093	1210.625
2921.219	1158.29167
2923.345	1183.29167
2925.469	1154.29167
2927.591	1156.95833
2929.712	1125.29167
2931.832	1120.29167
2933.951	1091.95833
2936.068	1064.29167
2938.184	1022.95833
2940.299	1000.29167
2942.412	970.95833
2944.524	911.95833
2946.634	912.95833
2948.744	850.95833
2950.851	860.95833
2952.958	810.95833
2955.063	785.95833
2957.167	768.29167
2959.269	731.95833
2961.371	758.95833
2963.471	714.29167
2965.569	720.625
2967.666	665.95833
2969.762	658.625
2971.857	642.29167
2973.95	624.625
2976.042	619.95833
2978.133	602.625
2980.222	580.29167
2982.31	555.625
2984.396	549.29167
2986.482	543.95833
2988.566	547.95833
2990.648	523.95833
2992.73	524.95833
2994.81	506.29167
2996.889	505.29167
2998.966	498.625
3001.042	511.95833
3003.117	492.29167
3005.191	496.625
3007.263	485.95833
3009.334	478.625
3011.403	469.29167
3013.472	450.95833
3015.539	458.95833
3017.604	470.29167
3019.669	425.29167
3021.732	435.95833
3023.794	435.95833
3025.854	416.29167
3027.914	413.29167
3029.971	420.95833
3032.028	417.29167
3034.083	417.95833
3036.137	418.625
3038.19	394.625
3040.242	389.29167
3042.292	377.29167
3044.341	375.95833
3046.388	392.625
3048.435	362.95833
3050.48	380.625
3052.524	368.95833
3054.566	352.29167
3056.607	363.95833
3058.647	352.29167
3060.686	346.625
3062.723	330.95833
3064.759	315.95833
3066.794	0.625
3068.828	-1.375
3070.86	-1.375
