-0.839	484.70833
3.438	518.375
7.711	145.04167
11.981	58.375
16.247	52.375
20.509	45.70833
24.768	45.70833
29.024	47.375
33.276	46.375
37.524	52.70833
41.769	41.70833
46.01	44.04167
50.247	56.375
54.481	61.04167
58.712	67.04167
62.939	50.04167
67.162	63.375
71.382	61.04167
75.599	53.70833
79.812	68.375
84.021	85.04167
88.227	62.375
92.429	67.04167
96.628	50.70833
100.823	73.375
105.015	81.04167
109.204	79.70833
113.388	83.04167
117.57	82.70833
121.748	98.70833
125.922	92.04167
130.093	106.70833
134.261	114.04167
138.425	114.375
142.585	155.70833
146.742	163.04167
150.896	186.70833
155.046	235.04167
159.193	367.70833
163.336	647.70833
167.476	1192.375
171.613	2183.70833
175.746	3627.375
179.875	5371.70833
184.002	6975.375
188.124	8075.70833
192.244	8478.375
196.36	8419.375
200.472	8237.70833
204.581	8090.70833
208.687	7897.375
212.79	7905.375
216.889	7999.04167
220.984	8081.70833
225.077	8178.04167
229.165	8334.70833
233.251	8452.70833
237.333	8592.375
241.412	8641.375
245.487	8683.375
249.559	8569.70833
253.628	8503.70833
257.694	8404.375
261.756	8290.70833
265.814	8135.375
269.87	7872.70833
273.922	7573.70833
277.97	7268.04167
282.016	7001.70833
286.058	6757.375
290.097	6655.70833
294.132	6514.70833
298.164	6394.04167
302.193	6178.04167
306.219	5770.70833
310.241	5208.70833
314.26	4759.70833
318.276	4344.04167
322.288	4030.04167
326.297	3857.375
330.303	3709.04167
334.305	3593.375
338.305	3499.04167
342.301	3440.04167
346.294	3406.375
350.283	3394.375
354.269	3336.04167
358.252	3361.04167
362.232	3320.70833
366.209	3322.70833
370.182	3279.70833
374.152	3291.375
378.119	3296.70833
382.083	3279.70833
386.043	3292.375
390	3244.70833
393.954	3224.04167
397.905	3182.04167
401.852	3186.375
405.797	3101.04167
409.738	3058.70833
413.676	3050.375
417.61	3004.04167
421.542	2985.70833
425.47	2909.04167
429.396	2908.375
433.318	2888.04167
437.236	2868.375
441.152	2871.70833
445.065	2806.70833
448.974	2794.04167
452.88	2779.04167
456.783	2746.70833
460.683	2750.70833
464.58	2736.70833
468.473	2745.04167
472.364	2733.375
476.251	2736.04167
480.135	2762.04167
484.016	2781.70833
487.894	2791.375
491.769	2802.70833
495.641	2829.04167
499.509	2801.375
503.375	2809.375
507.237	2792.04167
511.096	2780.04167
514.952	2803.375
518.805	2835.70833
522.655	2854.375
526.502	2770.70833
530.346	2741.04167
534.187	2794.04167
538.024	2748.04167
541.859	2773.70833
545.69	2801.04167
549.519	2791.04167
553.344	2754.70833
557.166	2745.375
560.985	2721.04167
564.802	2683.70833
568.615	2630.04167
572.425	2599.70833
576.232	2578.375
580.036	2572.70833
583.836	2570.375
587.634	2582.70833
591.429	2583.70833
595.221	2641.70833
599.01	2648.04167
602.796	2667.70833
606.578	2703.04167
610.358	2718.70833
614.135	2698.70833
617.909	2677.375
621.679	2676.70833
625.447	2673.04167
629.212	2655.70833
632.973	2652.04167
636.732	2672.70833
640.488	2678.70833
644.241	2633.375
647.991	2640.375
651.737	2662.375
655.481	2651.375
659.222	2669.70833
662.96	2651.04167
666.695	2670.375
670.427	2672.375
674.156	2678.70833
677.882	2678.04167
681.605	2663.04167
685.325	2641.70833
689.043	2658.70833
692.757	2622.04167
696.468	2629.375
700.177	2660.04167
703.882	2635.375
707.585	2656.70833
711.284	2613.04167
714.981	2653.375
718.675	2641.375
722.366	2657.70833
726.054	2637.04167
729.739	2640.70833
733.421	2642.70833
737.1	2628.04167
740.777	2682.04167
744.45	2666.04167
748.121	2702.04167
751.789	2728.04167
755.453	2739.70833
759.115	2732.375
762.774	2775.04167
766.431	2799.375
770.084	2838.04167
773.734	2860.70833
777.382	2923.70833
781.027	2926.375
784.669	2950.04167
788.308	2977.70833
791.944	2971.70833
795.577	3009.375
799.208	3049.375
802.835	3053.375
806.46	3098.04167
810.082	3117.70833
813.701	3147.70833
817.317	3176.70833
820.931	3181.04167
824.542	3185.70833
828.149	3133.375
831.754	3096.70833
835.357	3088.70833
838.956	3061.375
842.553	3039.70833
846.146	3045.375
849.737	3025.375
853.326	3041.375
856.911	3058.375
860.493	3091.04167
864.073	3108.70833
867.65	3153.375
871.225	3172.04167
874.796	3171.04167
878.365	3175.04167
881.931	3190.375
885.494	3228.70833
889.054	3209.375
892.612	3238.375
896.166	3189.375
899.719	3154.375
903.268	3134.70833
906.814	3153.375
910.358	3129.70833
913.899	3097.70833
917.438	3121.70833
920.973	3106.375
924.506	3133.70833
928.036	3159.04167
931.564	3192.70833
935.088	3248.70833
938.61	3261.70833
942.129	3299.04167
945.646	3350.375
949.16	3429.04167
952.671	3514.70833
956.179	3574.70833
959.685	3522.70833
963.188	3528.375
966.688	3533.375
970.185	3398.70833
973.68	3366.375
977.173	3315.70833
980.662	3302.70833
984.149	3312.375
987.633	3350.375
991.114	3382.70833
994.593	3472.04167
998.069	3584.04167
1001.542	3704.70833
1005.013	3641.04167
1008.481	3423.375
1011.947	3373.375
1015.409	3352.70833
1018.869	3343.04167
1022.327	3357.70833
1025.782	3324.70833
1029.234	3331.04167
1032.683	3292.375
1036.13	3166.04167
1039.574	3080.375
1043.016	2987.70833
1046.455	2940.04167
1049.891	2896.70833
1053.325	2908.04167
1056.756	2893.70833
1060.184	2906.375
1063.61	2916.04167
1067.033	2955.375
1070.454	2951.375
1073.872	2962.04167
1077.287	2994.04167
1080.7	2992.375
1084.11	2988.70833
1087.517	2965.375
1090.922	2916.375
1094.325	2887.70833
1097.724	2845.70833
1101.122	2851.70833
1104.516	2855.04167
1107.908	2864.375
1111.298	2896.70833
1114.684	2921.70833
1118.069	2960.04167
1121.45	3007.70833
1124.83	2977.375
1128.206	2989.04167
1131.58	3043.70833
1134.951	3105.375
1138.32	3213.04167
1141.687	3349.04167
1145.05	3404.70833
1148.412	3441.04167
1151.77	3472.375
1155.126	3430.70833
1158.48	3452.04167
1161.831	3462.375
1165.18	3470.70833
1168.525	3525.375
1171.869	3551.04167
1175.21	3612.04167
1178.548	3655.70833
1181.884	3699.04167
1185.217	3703.04167
1188.548	3775.04167
1191.877	3818.375
1195.202	3893.04167
1198.526	3972.375
1201.846	3977.375
1205.165	3970.04167
1208.48	3916.375
1211.794	3938.04167
1215.104	3906.70833
1218.413	3949.04167
1221.719	3938.04167
1225.022	3912.04167
1228.323	3859.375
1231.621	3833.375
1234.917	3836.04167
1238.21	3862.04167
1241.501	3820.375
1244.79	3817.375
1248.076	3803.04167
1251.359	3873.70833
1254.64	3944.70833
1257.919	3947.70833
1261.195	4023.70833
1264.468	4082.04167
1267.74	4163.04167
1271.008	4188.70833
1274.275	4180.70833
1277.538	4121.375
1280.8	4099.375
1284.059	4096.375
1287.315	4154.04167
1290.569	4167.70833
1293.821	4205.70833
1297.07	4183.375
1300.317	4234.04167
1303.562	4204.70833
1306.803	4154.70833
1310.043	4153.04167
1313.28	4101.04167
1316.515	4076.70833
1319.747	4035.375
1322.977	3964.04167
1326.204	3939.70833
1329.429	3887.375
1332.652	3854.70833
1335.872	3860.70833
1339.09	3838.70833
1342.306	3804.375
1345.519	3826.04167
1348.729	3798.04167
1351.938	3763.70833
1355.144	3730.04167
1358.347	3630.70833
1361.548	3650.04167
1364.747	3673.375
1367.944	3663.375
1371.138	3689.04167
1374.329	3703.04167
1377.518	3718.70833
1380.705	3777.04167
1383.89	3755.70833
1387.072	3666.375
1390.252	3543.70833
1393.429	3392.04167
1396.605	3274.04167
1399.777	3190.375
1402.948	3175.375
1406.116	3164.375
1409.282	3128.70833
1412.445	3153.70833
1415.606	3152.04167
1418.765	3201.375
1421.921	3264.375
1425.075	3334.375
1428.227	3489.04167
1431.376	3643.04167
1434.524	3785.375
1437.668	3859.70833
1440.811	3901.04167
1443.951	3930.70833
1447.089	3941.375
1450.224	3933.70833
1453.357	3942.375
1456.488	3890.375
1459.617	3815.04167
1462.743	3757.375
1465.867	3683.70833
1468.989	3649.70833
1472.108	3565.70833
1475.225	3518.70833
1478.34	3506.375
1481.453	3500.375
1484.563	3489.375
1487.671	3544.04167
1490.776	3570.04167
1493.88	3644.04167
1496.981	3719.70833
1500.08	3803.375
1503.176	3849.70833
1506.271	3942.04167
1509.363	3993.04167
1512.452	4063.375
1515.54	4136.04167
1518.625	4248.375
1521.708	4428.70833
1524.789	4691.04167
1527.867	5013.04167
1530.944	5306.375
1534.018	5512.375
1537.089	5615.70833
1540.159	5514.375
1543.226	5341.70833
1546.291	5104.70833
1549.354	4955.04167
1552.415	4783.70833
1555.473	4648.04167
1558.529	4569.04167
1561.583	4551.04167
1564.634	4518.04167
1567.684	4501.70833
1570.731	4539.04167
1573.776	4583.70833
1576.819	4604.70833
1579.859	4699.375
1582.898	4752.04167
1585.934	4762.375
1588.968	4791.375
1591.999	4760.70833
1595.029	4749.375
1598.056	4809.375
1601.081	4829.04167
1604.104	4800.04167
1607.125	4748.70833
1610.144	4671.04167
1613.16	4594.375
1616.174	4502.375
1619.186	4425.70833
1622.196	4350.375
1625.203	4247.70833
1628.209	4201.04167
1631.212	4165.04167
1634.213	4195.375
1637.212	4148.375
1640.209	4068.04167
1643.203	3981.04167
1646.196	3858.04167
1649.186	3727.70833
1652.174	3620.375
1655.16	3494.375
1658.144	3384.04167
1661.125	3225.375
1664.105	3084.04167
1667.082	2938.04167
1670.057	2774.375
1673.03	2597.70833
1676.001	2417.04167
1678.97	2268.70833
1681.937	2130.70833
1684.901	2006.70833
1687.863	1950.375
1690.824	1850.04167
1693.782	1834.70833
1696.738	1767.04167
1699.692	1713.70833
1702.643	1700.04167
1705.593	1658.04167
1708.54	1642.375
1711.486	1633.375
1714.429	1601.70833
1717.37	1578.70833
1720.309	1562.70833
1723.246	1561.375
1726.181	1510.375
1729.113	1510.70833
1732.044	1503.375
1734.972	1484.375
1737.899	1484.70833
1740.823	1497.375
1743.745	1428.04167
1746.665	1420.04167
1749.583	1393.04167
1752.499	1389.375
1755.413	1357.375
1758.325	1315.04167
1761.235	1328.375
1764.142	1296.04167
1767.048	1290.70833
1769.951	1272.04167
1772.852	1271.70833
1775.752	1259.04167
1778.649	1275.70833
1781.544	1261.375
1784.437	1239.70833
1787.328	1245.04167
1790.217	1234.70833
1793.104	1217.70833
1795.989	1217.375
1798.872	1214.04167
1801.753	1217.375
1804.631	1212.70833
1807.508	1226.70833
1810.383	1201.70833
1813.255	1192.70833
1816.126	1190.375
1818.994	1193.70833
1821.861	1173.70833
1824.725	1173.375
1827.587	1180.04167
1830.448	1155.04167
1833.306	1146.375
1836.162	1160.70833
1839.017	1146.04167
1841.869	1149.70833
1844.719	1136.04167
1847.567	1114.375
1850.414	1110.70833
1853.258	1117.375
1856.1	1122.70833
1858.94	1128.70833
1861.778	1123.375
1864.614	1110.04167
1867.448	1123.70833
1870.28	1113.375
1873.111	1109.375
1875.939	1116.375
1878.765	1133.375
1881.589	1103.375
1884.411	1103.70833
1887.231	1106.70833
1890.049	1107.04167
1892.865	1098.375
1895.68	1086.70833
1898.492	1081.375
1901.302	1073.04167
1904.11	1071.375
1906.916	1068.04167
1909.721	1065.70833
1912.523	1067.375
1915.323	1052.375
1918.122	1042.04167
1920.918	1044.375
1923.712	1055.70833
1926.505	1053.04167
1929.295	1038.04167
1932.084	1057.04167
1934.87	1039.04167
1937.655	1034.70833
1940.438	1033.70833
1943.218	1031.04167
1945.997	1047.375
1948.774	1058.70833
1951.549	1032.70833
1954.322	1039.04167
1957.093	1035.375
1959.862	1009.375
1962.629	1018.04167
1965.394	1006.375
1968.157	1002.04167
1970.918	1011.375
1973.678	987.375
1976.435	1004.04167
1979.19	1000.375
1981.944	993.375
1984.696	988.70833
1987.445	977.375
1990.193	983.375
1992.939	1016.04167
1995.683	1014.70833
1998.425	957.375
2001.165	1000.04167
2003.903	978.04167
2006.639	982.70833
2009.374	976.375
2012.106	980.70833
2014.837	949.04167
2017.566	967.70833
2020.292	972.04167
2023.017	970.375
2025.74	964.70833
2028.461	956.70833
2031.18	958.04167
2033.898	955.04167
2036.613	950.04167
2039.327	963.04167
2042.038	933.70833
2044.748	951.04167
2047.456	942.04167
2050.162	925.375
2052.866	931.04167
2055.568	939.70833
2058.268	935.04167
2060.967	941.375
2063.663	926.375
2066.358	938.04167
2069.051	933.70833
2071.742	933.375
2074.431	932.70833
2077.118	920.70833
2079.804	909.375
2082.487	922.375
2085.169	934.70833
2087.849	944.04167
2090.527	922.04167
2093.203	929.70833
2095.877	929.70833
2098.55	946.70833
2101.22	951.70833
2103.889	951.70833
2106.556	939.04167
2109.221	982.375
2111.884	989.70833
2114.546	1021.70833
2117.205	1057.70833
2119.863	1142.375
2122.519	1202.70833
2125.173	1281.70833
2127.825	1378.375
2130.475	1413.70833
2133.124	1404.70833
2135.771	1370.70833
2138.416	1344.04167
2141.059	1271.04167
2143.7	1232.04167
2146.339	1177.04167
2148.977	1108.04167
2151.613	1100.70833
2154.247	1070.375
2156.879	1045.70833
2159.51	1039.04167
2162.138	1021.04167
2164.765	1038.70833
2167.39	1014.70833
2170.013	1050.375
2172.634	1032.70833
2175.254	1044.375
2177.872	1058.04167
2180.488	1017.375
2183.102	1032.70833
2185.714	1006.04167
2188.325	976.375
2190.934	974.04167
2193.541	950.375
2196.146	921.04167
2198.75	907.70833
2201.351	903.04167
2203.951	881.04167
2206.549	887.375
2209.146	876.375
2211.74	865.70833
2214.333	868.70833
2216.924	854.70833
2219.514	849.04167
2222.101	830.04167
2224.687	860.70833
2227.271	830.70833
2229.853	816.04167
2232.433	814.70833
2235.012	832.375
2237.589	837.375
2240.164	848.375
2242.738	835.375
2245.309	811.04167
2247.879	814.70833
2250.448	807.375
2253.014	775.375
2255.579	777.375
2258.142	771.70833
2260.703	754.70833
2263.262	764.375
2265.82	752.375
2268.376	761.04167
2270.93	737.04167
2273.483	743.70833
2276.033	739.375
2278.583	738.70833
2281.13	732.375
2283.675	714.375
2286.219	739.375
2288.761	726.70833
2291.302	735.04167
2293.841	707.375
2296.377	711.375
2298.913	715.70833
2301.446	733.04167
2303.978	706.04167
2306.508	709.04167
2309.037	714.04167
2311.563	708.70833
2314.088	717.70833
2316.612	695.70833
2319.133	701.375
2321.653	698.04167
2324.171	679.70833
2326.688	694.375
2329.202	696.375
2331.715	693.70833
2334.227	691.04167
2336.736	667.70833
2339.244	682.04167
2341.751	674.375
2344.255	686.04167
2346.758	677.70833
2349.259	668.375
2351.759	667.04167
2354.257	670.04167
2356.753	659.70833
2359.247	661.70833
2361.74	664.70833
2364.231	664.70833
2366.721	670.70833
2369.209	657.70833
2371.695	659.04167
2374.179	640.04167
2376.662	645.70833
2379.143	675.70833
2381.622	662.375
2384.1	662.04167
2386.576	651.375
2389.051	668.04167
2391.524	673.04167
2393.995	654.04167
2396.464	646.04167
2398.932	650.375
2401.398	639.70833
2403.863	645.70833
2406.325	640.375
2408.787	637.70833
2411.246	632.04167
2413.704	639.70833
2416.16	630.70833
2418.615	633.375
2421.068	647.375
2423.519	625.375
2425.969	628.375
2428.417	636.04167
2430.863	650.70833
2433.308	653.375
2435.751	637.04167
2438.193	627.70833
2440.633	636.04167
2443.071	636.04167
2445.508	615.375
2447.943	619.70833
2450.376	616.375
2452.808	621.04167
2455.238	602.70833
2457.667	646.70833
2460.093	619.70833
2462.519	605.04167
2464.942	606.375
2467.365	619.04167
2469.785	616.04167
2472.204	614.375
2474.621	603.375
2477.037	635.04167
2479.451	609.04167
2481.863	597.375
2484.274	590.70833
2486.683	606.375
2489.091	600.04167
2491.497	604.375
2493.901	611.04167
2496.304	599.70833
2498.705	621.04167
2501.105	595.375
2503.503	634.70833
2505.899	588.04167
2508.294	615.375
2510.687	594.04167
2513.079	602.70833
2515.469	586.70833
2517.858	586.375
2520.245	606.375
2522.63	588.375
2525.014	583.375
2527.396	581.375
2529.776	587.70833
2532.156	585.375
2534.533	572.04167
2536.909	574.70833
2539.283	573.375
2541.656	581.375
2544.027	595.04167
2546.397	583.70833
2548.765	583.70833
2551.131	582.04167
2553.496	576.04167
2555.86	594.375
2558.221	582.375
2560.582	578.375
2562.94	572.375
2565.298	576.375
2567.653	597.70833
2570.007	569.70833
2572.36	592.04167
2574.711	582.04167
2577.06	589.70833
2579.408	576.04167
2581.754	589.04167
2584.099	570.375
2586.442	569.70833
2588.784	576.70833
2591.124	573.375
2593.463	565.70833
2595.8	570.04167
2598.135	554.04167
2600.469	570.04167
2602.802	588.04167
2605.133	578.70833
2607.462	556.70833
2609.79	560.70833
2612.116	572.04167
2614.441	565.375
2616.764	580.70833
2619.086	570.04167
2621.406	574.04167
2623.725	588.70833
2626.042	580.04167
2628.358	564.04167
2630.672	577.70833
2632.985	586.04167
2635.296	575.04167
2637.606	575.375
2639.914	571.70833
2642.22	581.04167
2644.525	578.04167
2646.829	580.70833
2649.131	587.70833
2651.432	585.70833
2653.731	572.375
2656.028	598.70833
2658.324	578.70833
2660.619	581.04167
2662.912	592.375
2665.204	574.04167
2667.494	591.70833
2669.782	571.04167
2672.07	583.375
2674.355	596.375
2676.639	584.70833
2678.922	587.04167
2681.203	594.04167
2683.483	578.375
2685.761	572.375
2688.038	590.70833
2690.313	607.70833
2692.587	587.04167
2694.859	581.04167
2697.13	596.70833
2699.399	595.375
2701.667	603.70833
2703.933	597.04167
2706.198	593.375
2708.461	611.70833
2710.723	613.04167
2712.984	604.375
2715.243	627.375
2717.5	614.70833
2719.757	631.70833
2722.011	622.70833
2724.264	636.375
2726.516	651.375
2728.766	640.375
2731.015	627.70833
2733.262	641.375
2735.508	625.70833
2737.753	630.375
2739.996	616.375
2742.237	608.70833
2744.477	629.04167
2746.716	627.04167
2748.953	618.70833
2751.189	623.70833
2753.423	603.375
2755.656	610.375
2757.887	589.70833
2760.117	604.70833
2762.346	586.70833
2764.573	582.375
2766.798	588.04167
2769.022	600.375
2771.245	598.375
2773.467	598.04167
2775.686	598.04167
2777.905	607.04167
2780.122	614.04167
2782.337	615.375
2784.552	607.375
2786.764	620.70833
2788.976	625.375
2791.186	625.375
2793.394	628.04167
2795.601	642.70833
2797.807	651.375
2800.011	639.04167
2802.214	673.04167
2804.415	668.04167
2806.615	656.70833
2808.814	684.70833
2811.011	693.04167
2813.206	683.375
2815.401	698.04167
2817.594	709.70833
2819.785	711.70833
2821.975	709.04167
2824.164	721.04167
2826.351	745.375
2828.537	765.04167
2830.722	779.375
2832.905	793.70833
2835.086	822.375
2837.267	865.70833
2839.445	895.375
2841.623	931.70833
2843.799	973.70833
2845.974	1020.375
2848.147	1055.70833
2850.319	1083.375
2852.489	1120.375
2854.659	1124.375
2856.826	1163.70833
2858.993	1181.375
2861.158	1163.70833
2863.321	1158.04167
2865.483	1199.70833
2867.644	1197.04167
2869.804	1185.70833
2871.962	1176.375
2874.118	1199.04167
2876.274	1188.70833
2878.428	1172.375
2880.58	1175.04167
2882.731	1157.04167
2884.881	1176.04167
2887.03	1176.04167
2889.177	1193.375
2891.322	1192.04167
2893.467	1189.04167
2895.61	1198.04167
2897.751	1229.70833
2899.892	1236.375
2902.03	1228.375
2904.168	1244.70833
2906.304	1242.375
2908.439	1278.04167
2910.572	1260.375
2912.704	1277.04167
2914.835	1281.375
2916.965	1246.04167
2919.093	1282.70833
2921.219	1244.04167
2923.345	1256.04167
2925.469	1242.375
2927.591	1230.375
2929.712	1173.04167
2931.832	1171.375
2933.951	1143.04167
2936.068	1123.70833
2938.184	1102.70833
2940.299	1070.04167
2942.412	1021.70833
2944.524	978.70833
2946.634	962.70833
2948.744	919.375
2950.851	936.70833
2952.958	889.04167
2955.063	869.70833
2957.167	851.04167
2959.269	827.04167
2961.371	836.70833
2963.471	796.375
2965.569	788.70833
2967.666	748.70833
2969.762	744.70833
2971.857	724.04167
2973.95	702.04167
2976.042	701.375
2978.133	679.70833
2980.222	656.375
2982.31	644.70833
2984.396	625.375
2986.482	626.375
2988.566	623.70833
2990.648	598.375
2992.73	598.375
2994.81	577.375
2996.889	588.375
2998.966	576.375
3001.042	587.70833
3003.117	573.70833
3005.191	571.70833
3007.263	566.375
3009.334	565.04167
3011.403	553.375
3013.472	533.70833
3015.539	537.375
3017.604	548.375
3019.669	507.70833
3021.732	508.375
3023.794	515.04167
3025.854	502.375
3027.914	501.375
3029.971	508.04167
3032.028	496.04167
3034.083	503.04167
3036.137	486.70833
3038.19	470.70833
3040.242	457.375
3042.292	448.04167
3044.341	445.04167
3046.388	459.70833
3048.435	426.375
3050.48	449.70833
3052.524	446.70833
3054.566	424.04167
3056.607	433.04167
3058.647	425.375
3060.686	403.04167
3062.723	396.04167
3064.759	387.375
3066.794	-0.95833
3068.828	-0.625
3070.86	-1.625
