-0.839	453.625
3.438	497.625
7.711	134.625
11.981	56.29167
16.247	46.95833
20.509	47.625
24.768	47.29167
29.024	49.29167
33.276	45.29167
37.524	51.29167
41.769	43.29167
46.01	38.95833
50.247	53.29167
54.481	60.625
58.712	67.625
62.939	52.29167
67.162	61.29167
71.382	59.29167
75.599	49.625
79.812	66.95833
84.021	84.95833
88.227	61.95833
92.429	68.95833
96.628	53.29167
100.823	71.95833
105.015	85.625
109.204	88.95833
113.388	87.29167
117.57	86.95833
121.748	93.625
125.922	88.625
130.093	105.95833
134.261	119.625
138.425	118.29167
142.585	158.95833
146.742	166.29167
150.896	200.95833
155.046	251.95833
159.193	395.29167
163.336	691.29167
167.476	1274.95833
171.613	2352.29167
175.746	3907.625
179.875	5731.625
184.002	7428.625
188.124	8570.95833
192.244	8972.95833
196.36	8862.29167
200.472	8713.625
204.581	8500.29167
208.687	8361.625
212.79	8300.625
216.889	8300.95833
220.984	8454.29167
225.077	8577.29167
229.165	8685.625
233.251	8836.95833
237.333	8900.95833
241.412	8958.29167
245.487	8964.29167
249.559	8857.95833
253.628	8743.95833
257.694	8616.95833
261.756	8583.29167
265.814	8372.625
269.87	8059.625
273.922	7675.29167
277.97	7361.95833
282.016	7105.95833
286.058	6889.95833
290.097	6733.29167
294.132	6644.29167
298.164	6511.95833
302.193	6263.95833
306.219	5850.625
310.241	5338.29167
314.26	4860.95833
318.276	4495.95833
322.288	4181.29167
326.297	3987.95833
330.303	3836.29167
334.305	3720.95833
338.305	3644.625
342.301	3590.625
346.294	3551.625
350.283	3510.95833
354.269	3494.29167
358.252	3488.95833
362.232	3439.29167
366.209	3435.29167
370.182	3393.625
374.152	3388.95833
378.119	3381.95833
382.083	3395.625
386.043	3427.29167
390	3373.95833
393.954	3360.29167
397.905	3301.29167
401.852	3268.29167
405.797	3234.625
409.738	3190.625
413.676	3175.29167
417.61	3112.625
421.542	3085.625
425.47	3036.29167
429.396	3012.625
433.318	2978.625
437.236	2982.625
441.152	2974.95833
445.065	2903.95833
448.974	2891.29167
452.88	2862.29167
456.783	2854.29167
460.683	2821.625
464.58	2856.29167
468.473	2869.625
472.364	2832.625
476.251	2845.95833
480.135	2889.95833
484.016	2906.29167
487.894	2903.95833
491.769	2924.29167
495.641	2931.29167
499.509	2909.625
503.375	2926.29167
507.237	2906.625
511.096	2895.95833
514.952	2901.29167
518.805	2891.29167
522.655	2887.95833
526.502	2836.95833
530.346	2876.29167
534.187	2869.29167
538.024	2899.95833
541.859	2884.625
545.69	2902.29167
549.519	2861.95833
553.344	2854.29167
557.166	2817.29167
560.985	2782.95833
564.802	2785.95833
568.615	2730.95833
572.425	2693.625
576.232	2690.625
580.036	2679.29167
583.836	2673.625
587.634	2675.625
591.429	2677.625
595.221	2712.95833
599.01	2741.29167
602.796	2774.95833
606.578	2824.95833
610.358	2812.95833
614.135	2786.625
617.909	2825.29167
621.679	2802.625
625.447	2775.625
629.212	2791.95833
632.973	2760.95833
636.732	2761.625
640.488	2769.29167
644.241	2758.29167
647.991	2724.95833
651.737	2773.625
655.481	2744.29167
659.222	2773.625
662.96	2777.95833
666.695	2782.95833
670.427	2781.29167
674.156	2783.29167
677.882	2773.29167
681.605	2784.625
685.325	2742.95833
689.043	2760.95833
692.757	2708.625
696.468	2749.625
700.177	2736.625
703.882	2741.95833
707.585	2746.29167
711.284	2733.625
714.981	2727.29167
718.675	2746.625
722.366	2735.29167
726.054	2744.95833
729.739	2730.625
733.421	2748.625
737.1	2720.95833
740.777	2764.625
744.45	2770.625
748.121	2792.95833
751.789	2840.29167
755.453	2828.625
759.115	2851.95833
762.774	2883.29167
766.431	2911.95833
770.084	2938.625
773.734	2942.625
777.382	3027.95833
781.027	3025.95833
784.669	3036.29167
788.308	3069.95833
791.944	3072.625
795.577	3133.625
799.208	3140.95833
802.835	3167.29167
806.46	3211.625
810.082	3239.29167
813.701	3263.625
817.317	3273.29167
820.931	3265.29167
824.542	3290.625
828.149	3255.29167
831.754	3215.29167
835.357	3212.29167
838.956	3181.95833
842.553	3161.29167
846.146	3135.625
849.737	3110.625
853.326	3142.95833
856.911	3142.95833
860.493	3191.29167
864.073	3205.95833
867.65	3225.95833
871.225	3312.625
874.796	3291.625
878.365	3285.29167
881.931	3303.29167
885.494	3365.95833
889.054	3333.29167
892.612	3355.29167
896.166	3304.95833
899.719	3284.95833
903.268	3271.625
906.814	3257.29167
910.358	3241.95833
913.899	3216.95833
917.438	3237.95833
920.973	3209.29167
924.506	3261.625
928.036	3284.29167
931.564	3333.29167
935.088	3363.29167
938.61	3377.625
942.129	3392.29167
945.646	3457.95833
949.16	3547.29167
952.671	3649.95833
956.179	3694.625
959.685	3676.95833
963.188	3682.95833
966.688	3627.95833
970.185	3545.625
973.68	3468.625
977.173	3444.29167
980.662	3413.29167
984.149	3440.95833
987.633	3449.625
991.114	3516.625
994.593	3573.29167
998.069	3687.95833
1001.542	3816.625
1005.013	3740.625
1008.481	3513.625
1011.947	3462.95833
1015.409	3449.625
1018.869	3435.625
1022.327	3425.29167
1025.782	3414.29167
1029.234	3419.625
1032.683	3389.29167
1036.13	3285.95833
1039.574	3158.625
1043.016	3085.625
1046.455	3029.625
1049.891	2974.625
1053.325	2974.625
1056.756	2961.95833
1060.184	2954.29167
1063.61	2995.95833
1067.033	2996.625
1070.454	2995.29167
1073.872	3050.625
1077.287	3026.29167
1080.7	3057.29167
1084.11	3032.95833
1087.517	3030.29167
1090.922	2976.29167
1094.325	2941.29167
1097.724	2930.625
1101.122	2914.95833
1104.516	2924.29167
1107.908	2913.29167
1111.298	2983.95833
1114.684	2985.625
1118.069	3031.625
1121.45	3053.29167
1124.83	3039.625
1128.206	3046.95833
1131.58	3086.625
1134.951	3181.625
1138.32	3272.95833
1141.687	3400.625
1145.05	3484.95833
1148.412	3547.95833
1151.77	3526.95833
1155.126	3510.95833
1158.48	3503.95833
1161.831	3562.29167
1165.18	3563.29167
1168.525	3641.29167
1171.869	3685.95833
1175.21	3701.29167
1178.548	3773.95833
1181.884	3798.95833
1185.217	3822.29167
1188.548	3902.95833
1191.877	3967.29167
1195.202	4051.29167
1198.526	4106.95833
1201.846	4095.29167
1205.165	4065.95833
1208.48	4094.29167
1211.794	4060.29167
1215.104	4078.625
1218.413	4066.29167
1221.719	4008.625
1225.022	4014.95833
1228.323	3923.625
1231.621	3944.625
1234.917	3939.29167
1238.21	3979.95833
1241.501	3931.95833
1244.79	3940.625
1248.076	3946.29167
1251.359	3957.625
1254.64	4024.95833
1257.919	4068.95833
1261.195	4097.625
1264.468	4183.95833
1267.74	4232.95833
1271.008	4260.29167
1274.275	4270.625
1277.538	4229.625
1280.8	4214.95833
1284.059	4202.95833
1287.315	4229.29167
1290.569	4256.95833
1293.821	4300.625
1297.07	4287.625
1300.317	4315.29167
1303.562	4310.95833
1306.803	4259.625
1310.043	4235.625
1313.28	4205.625
1316.515	4160.625
1319.747	4143.29167
1322.977	4077.29167
1326.204	4036.95833
1329.429	3984.95833
1332.652	3950.29167
1335.872	3953.29167
1339.09	3928.95833
1342.306	3928.29167
1345.519	3897.95833
1348.729	3844.625
1351.938	3852.625
1355.144	3793.625
1358.347	3770.95833
1361.548	3716.625
1364.747	3734.95833
1367.944	3696.95833
1371.138	3713.95833
1374.329	3742.95833
1377.518	3766.625
1380.705	3799.29167
1383.89	3766.95833
1387.072	3678.95833
1390.252	3551.29167
1393.429	3437.625
1396.605	3333.625
1399.777	3224.95833
1402.948	3203.29167
1406.116	3193.29167
1409.282	3203.29167
1412.445	3183.29167
1415.606	3230.625
1418.765	3238.625
1421.921	3317.95833
1425.075	3388.625
1428.227	3507.29167
1431.376	3672.29167
1434.524	3827.625
1437.668	3903.625
1440.811	3937.29167
1443.951	3968.95833
1447.089	3973.625
1450.224	3990.95833
1453.357	3945.625
1456.488	3914.625
1459.617	3866.625
1462.743	3799.95833
1465.867	3716.95833
1468.989	3675.29167
1472.108	3602.29167
1475.225	3594.29167
1478.34	3529.95833
1481.453	3528.29167
1484.563	3543.29167
1487.671	3617.29167
1490.776	3664.29167
1493.88	3736.625
1496.981	3799.95833
1500.08	3882.625
1503.176	3936.625
1506.271	4001.95833
1509.363	4058.625
1512.452	4122.95833
1515.54	4205.95833
1518.625	4302.29167
1521.708	4460.625
1524.789	4725.95833
1527.867	5023.95833
1530.944	5363.625
1534.018	5541.625
1537.089	5636.29167
1540.159	5533.29167
1543.226	5362.95833
1546.291	5166.95833
1549.354	5000.95833
1552.415	4829.29167
1555.473	4698.29167
1558.529	4628.625
1561.583	4611.95833
1564.634	4554.95833
1567.684	4588.95833
1570.731	4585.95833
1573.776	4640.95833
1576.819	4710.29167
1579.859	4768.625
1582.898	4832.29167
1585.934	4889.95833
1588.968	4900.95833
1591.999	4856.29167
1595.029	4864.29167
1598.056	4921.29167
1601.081	4928.95833
1604.104	4900.29167
1607.125	4858.95833
1610.144	4756.625
1613.16	4652.29167
1616.174	4545.95833
1619.186	4440.625
1622.196	4362.625
1625.203	4287.625
1628.209	4226.95833
1631.212	4203.29167
1634.213	4168.625
1637.212	4139.95833
1640.209	4103.29167
1643.203	4011.29167
1646.196	3891.95833
1649.186	3708.29167
1652.174	3601.95833
1655.16	3472.625
1658.144	3378.95833
1661.125	3219.95833
1664.105	3056.625
1667.082	2917.95833
1670.057	2734.625
1673.03	2575.95833
1676.001	2422.29167
1678.97	2260.29167
1681.937	2127.95833
1684.901	1999.95833
1687.863	1931.29167
1690.824	1853.625
1693.782	1808.29167
1696.738	1748.95833
1699.692	1716.95833
1702.643	1660.625
1705.593	1644.625
1708.54	1626.625
1711.486	1625.95833
1714.429	1580.29167
1717.37	1577.29167
1720.309	1533.625
1723.246	1548.29167
1726.181	1515.625
1729.113	1515.95833
1732.044	1489.29167
1734.972	1462.625
1737.899	1484.29167
1740.823	1453.625
1743.745	1432.625
1746.665	1409.625
1749.583	1404.625
1752.499	1372.29167
1755.413	1353.625
1758.325	1335.95833
1761.235	1321.29167
1764.142	1295.625
1767.048	1288.625
1769.951	1278.625
1772.852	1270.95833
1775.752	1265.625
1778.649	1270.95833
1781.544	1258.29167
1784.437	1239.95833
1787.328	1234.95833
1790.217	1232.29167
1793.104	1201.625
1795.989	1219.29167
1798.872	1203.29167
1801.753	1218.95833
1804.631	1213.625
1807.508	1214.95833
1810.383	1193.29167
1813.255	1187.29167
1816.126	1189.625
1818.994	1183.95833
1821.861	1180.625
1824.725	1166.29167
1827.587	1163.625
1830.448	1147.95833
1833.306	1128.95833
1836.162	1150.625
1839.017	1138.95833
1841.869	1147.625
1844.719	1129.625
1847.567	1114.29167
1850.414	1100.95833
1853.258	1115.29167
1856.1	1107.29167
1858.94	1135.29167
1861.778	1111.625
1864.614	1103.95833
1867.448	1101.29167
1870.28	1106.95833
1873.111	1127.95833
1875.939	1101.29167
1878.765	1119.95833
1881.589	1095.29167
1884.411	1090.95833
1887.231	1092.625
1890.049	1100.625
1892.865	1087.625
1895.68	1066.625
1898.492	1082.625
1901.302	1068.625
1904.11	1065.29167
1906.916	1064.625
1909.721	1047.625
1912.523	1062.95833
1915.323	1036.625
1918.122	1036.625
1920.918	1045.625
1923.712	1035.95833
1926.505	1035.625
1929.295	1029.95833
1932.084	1049.625
1934.87	1039.625
1937.655	1030.625
1940.438	1017.29167
1943.218	1026.625
1945.997	1022.95833
1948.774	1018.625
1951.549	1041.29167
1954.322	1017.625
1957.093	1014.95833
1959.862	1020.95833
1962.629	1012.95833
1965.394	995.625
1968.157	990.29167
1970.918	1001.625
1973.678	986.95833
1976.435	995.625
1979.19	980.95833
1981.944	969.95833
1984.696	971.29167
1987.445	964.625
1990.193	974.95833
1992.939	992.29167
1995.683	966.95833
1998.425	948.625
2001.165	1000.625
2003.903	956.95833
2006.639	964.95833
2009.374	954.625
2012.106	968.625
2014.837	931.29167
2017.566	950.95833
2020.292	959.29167
2023.017	963.29167
2025.74	951.95833
2028.461	937.625
2031.18	935.29167
2033.898	948.29167
2036.613	947.29167
2039.327	947.95833
2042.038	923.95833
2044.748	923.29167
2047.456	926.95833
2050.162	903.95833
2052.866	919.625
2055.568	908.625
2058.268	907.29167
2060.967	915.29167
2063.663	904.95833
2066.358	914.625
2069.051	908.625
2071.742	911.625
2074.431	911.625
2077.118	903.95833
2079.804	890.95833
2082.487	887.95833
2085.169	904.95833
2087.849	923.29167
2090.527	908.625
2093.203	917.29167
2095.877	920.95833
2098.55	911.625
2101.22	920.29167
2103.889	939.95833
2106.556	938.625
2109.221	960.625
2111.884	968.625
2114.546	1025.625
2117.205	1070.625
2119.863	1157.29167
2122.519	1215.29167
2125.173	1322.625
2127.825	1409.29167
2130.475	1446.95833
2133.124	1434.625
2135.771	1409.29167
2138.416	1367.625
2141.059	1295.625
2143.7	1241.29167
2146.339	1159.29167
2148.977	1099.625
2151.613	1083.95833
2154.247	1073.29167
2156.879	1034.625
2159.51	1042.625
2162.138	1008.625
2164.765	1013.29167
2167.39	999.29167
2170.013	1031.625
2172.634	1031.625
2175.254	1026.95833
2177.872	1050.29167
2180.488	1006.29167
2183.102	1001.95833
2185.714	983.29167
2188.325	962.625
2190.934	955.29167
2193.541	930.625
2196.146	911.95833
2198.75	889.95833
2201.351	880.29167
2203.951	845.29167
2206.549	863.625
2209.146	839.625
2211.74	841.625
2214.333	852.29167
2216.924	817.95833
2219.514	823.95833
2222.101	807.95833
2224.687	828.625
2227.271	807.95833
2229.853	796.625
2232.433	777.625
2235.012	813.29167
2237.589	808.95833
2240.164	814.95833
2242.738	797.95833
2245.309	774.29167
2247.879	782.95833
2250.448	775.625
2253.014	752.95833
2255.579	736.29167
2258.142	743.95833
2260.703	722.29167
2263.262	726.625
2265.82	728.95833
2268.376	727.29167
2270.93	714.29167
2273.483	709.95833
2276.033	711.29167
2278.583	701.95833
2281.13	698.29167
2283.675	689.95833
2286.219	696.625
2288.761	679.29167
2291.302	692.95833
2293.841	693.625
2296.377	673.29167
2298.913	669.29167
2301.446	685.29167
2303.978	671.95833
2306.508	664.625
2309.037	671.29167
2311.563	672.95833
2314.088	671.625
2316.612	656.29167
2319.133	663.29167
2321.653	656.625
2324.171	653.95833
2326.688	673.95833
2329.202	655.95833
2331.715	650.29167
2334.227	649.29167
2336.736	638.29167
2339.244	639.29167
2341.751	624.95833
2344.255	637.625
2346.758	631.29167
2349.259	626.29167
2351.759	624.625
2354.257	622.95833
2356.753	620.29167
2359.247	621.95833
2361.74	633.29167
2364.231	620.29167
2366.721	621.625
2369.209	606.95833
2371.695	611.95833
2374.179	602.29167
2376.662	612.29167
2379.143	609.95833
2381.622	601.95833
2384.1	620.95833
2386.576	599.625
2389.051	617.625
2391.524	628.29167
2393.995	614.29167
2396.464	602.625
2398.932	594.95833
2401.398	596.625
2403.863	599.95833
2406.325	592.95833
2408.787	593.95833
2411.246	593.29167
2413.704	584.95833
2416.16	593.29167
2418.615	585.29167
2421.068	599.29167
2423.519	592.95833
2425.969	588.29167
2428.417	592.625
2430.863	595.29167
2433.308	589.625
2435.751	576.95833
2438.193	565.29167
2440.633	580.29167
2443.071	578.95833
2445.508	559.95833
2447.943	579.625
2450.376	569.625
2452.808	567.29167
2455.238	552.625
2457.667	585.95833
2460.093	566.29167
2462.519	560.95833
2464.942	561.29167
2467.365	571.625
2469.785	562.95833
2472.204	561.29167
2474.621	541.95833
2477.037	567.29167
2479.451	540.625
2481.863	543.95833
2484.274	538.95833
2486.683	549.625
2489.091	549.29167
2491.497	552.29167
2493.901	542.29167
2496.304	545.95833
2498.705	552.95833
2501.105	535.95833
2503.503	560.625
2505.899	533.29167
2508.294	560.29167
2510.687	526.625
2513.079	521.625
2515.469	522.29167
2517.858	530.29167
2520.245	539.625
2522.63	533.95833
2525.014	528.29167
2527.396	513.95833
2529.776	509.625
2532.156	523.625
2534.533	516.625
2536.909	518.625
2539.283	504.625
2541.656	515.29167
2544.027	527.29167
2546.397	512.625
2548.765	518.95833
2551.131	519.625
2553.496	514.625
2555.86	527.29167
2558.221	516.29167
2560.582	518.625
2562.94	497.625
2565.298	501.95833
2567.653	516.95833
2570.007	492.625
2572.36	505.95833
2574.711	497.625
2577.06	515.625
2579.408	504.625
2581.754	500.29167
2584.099	495.625
2586.442	493.95833
2588.784	500.625
2591.124	500.625
2593.463	504.95833
2595.8	498.625
2598.135	483.29167
2600.469	492.95833
2602.802	508.95833
2605.133	503.625
2607.462	489.625
2609.79	489.95833
2612.116	490.29167
2614.441	495.95833
2616.764	495.95833
2619.086	484.95833
2621.406	485.95833
2623.725	502.625
2626.042	493.29167
2628.358	497.625
2630.672	481.625
2632.985	506.29167
2635.296	490.625
2637.606	494.95833
2639.914	480.29167
2642.22	495.625
2644.525	489.29167
2646.829	492.625
2649.131	504.95833
2651.432	496.95833
2653.731	493.95833
2656.028	500.625
2658.324	491.95833
2660.619	481.95833
2662.912	498.29167
2665.204	473.625
2667.494	497.95833
2669.782	489.625
2672.07	491.29167
2674.355	505.625
2676.639	487.625
2678.922	497.95833
2681.203	502.95833
2683.483	482.95833
2685.761	474.95833
2688.038	490.625
2690.313	517.625
2692.587	498.29167
2694.859	478.29167
2697.13	498.625
2699.399	499.29167
2701.667	509.29167
2703.933	506.29167
2706.198	510.29167
2708.461	519.29167
2710.723	511.625
2712.984	514.29167
2715.243	521.29167
2717.5	515.95833
2719.757	532.95833
2722.011	526.625
2724.264	526.95833
2726.516	538.29167
2728.766	531.95833
2731.015	525.625
2733.262	525.29167
2735.508	520.625
2737.753	524.95833
2739.996	502.95833
2742.237	509.29167
2744.477	520.95833
2746.716	519.95833
2748.953	505.625
2751.189	517.95833
2753.423	498.625
2755.656	496.95833
2757.887	481.625
2760.117	494.625
2762.346	479.29167
2764.573	481.95833
2766.798	484.625
2769.022	486.95833
2771.245	479.29167
2773.467	495.625
2775.686	491.29167
2777.905	492.625
2780.122	489.625
2782.337	497.625
2784.552	496.625
2786.764	507.625
2788.976	509.95833
2791.186	506.625
2793.394	507.29167
2795.601	526.29167
2797.807	526.29167
2800.011	534.625
2802.214	544.625
2804.415	544.29167
2806.615	541.95833
2808.814	559.625
2811.011	562.29167
2813.206	561.29167
2815.401	583.625
2817.594	583.625
2819.785	608.625
2821.975	588.625
2824.164	607.29167
2826.351	619.95833
2828.537	643.95833
2830.722	666.95833
2832.905	668.29167
2835.086	708.95833
2837.267	739.29167
2839.445	760.625
2841.623	787.29167
2843.799	832.95833
2845.974	886.29167
2848.147	917.29167
2850.319	942.95833
2852.489	987.95833
2854.659	995.625
2856.826	1019.29167
2858.993	1040.95833
2861.158	1025.29167
2863.321	1022.95833
2865.483	1052.95833
2867.644	1050.29167
2869.804	1042.625
2871.962	1031.29167
2874.118	1056.95833
2876.274	1055.625
2878.428	1032.29167
2880.58	1034.625
2882.731	1021.29167
2884.881	1044.29167
2887.03	1036.95833
2889.177	1032.29167
2891.322	1064.625
2893.467	1054.29167
2895.61	1061.95833
2897.751	1075.29167
2899.892	1072.29167
2902.03	1082.625
2904.168	1092.95833
2906.304	1107.95833
2908.439	1114.95833
2910.572	1090.625
2912.704	1124.625
2914.835	1113.29167
2916.965	1115.29167
2919.093	1139.625
2921.219	1094.625
2923.345	1114.29167
2925.469	1083.95833
2927.591	1069.95833
2929.712	1041.95833
2931.832	1029.95833
2933.951	1006.29167
2936.068	979.625
2938.184	961.29167
2940.299	923.95833
2942.412	894.95833
2944.524	842.625
2946.634	846.29167
2948.744	773.95833
2950.851	803.29167
2952.958	740.625
2955.063	733.95833
2957.167	707.29167
2959.269	687.95833
2961.371	696.29167
2963.471	663.625
2965.569	654.625
2967.666	612.29167
2969.762	598.95833
2971.857	575.95833
2973.95	567.625
2976.042	557.95833
2978.133	539.625
2980.222	521.625
2982.31	502.625
2984.396	480.625
2986.482	481.95833
2988.566	477.29167
2990.648	468.29167
2992.73	457.625
2994.81	450.625
2996.889	457.29167
2998.966	447.29167
3001.042	441.625
3003.117	440.95833
3005.191	430.95833
3007.263	421.95833
3009.334	413.29167
3011.403	422.29167
3013.472	398.29167
3015.539	408.29167
3017.604	406.625
3019.669	367.95833
3021.732	381.29167
3023.794	376.29167
3025.854	362.95833
3027.914	357.29167
3029.971	373.95833
3032.028	362.95833
3034.083	359.29167
3036.137	363.625
3038.19	342.625
3040.242	336.29167
3042.292	318.29167
3044.341	322.625
3046.388	335.95833
3048.435	311.29167
3050.48	339.95833
3052.524	324.29167
3054.566	300.95833
3056.607	312.95833
3058.647	304.95833
3060.686	288.625
3062.723	282.625
3064.759	270.95833
3066.794	-0.375
3068.828	0.625
3070.86	-1.70833
