-0.839	420.29167
3.438	476.625
7.711	135.29167
11.981	56.95833
16.247	48.625
20.509	43.29167
24.768	47.29167
29.024	49.29167
33.276	46.95833
37.524	54.29167
41.769	44.29167
46.01	38.625
50.247	55.29167
54.481	63.625
58.712	66.95833
62.939	50.29167
67.162	64.95833
71.382	62.29167
75.599	53.29167
79.812	65.95833
84.021	85.625
88.227	63.95833
92.429	68.95833
96.628	57.625
100.823	75.29167
105.015	90.625
109.204	88.95833
113.388	86.29167
117.57	85.95833
121.748	99.625
125.922	93.29167
130.093	114.95833
134.261	119.29167
138.425	117.95833
142.585	161.29167
146.742	163.29167
150.896	196.625
155.046	253.95833
159.193	410.625
163.336	696.95833
167.476	1297.95833
171.613	2359.625
175.746	3941.625
179.875	5775.95833
184.002	7531.95833
188.124	8714.625
192.244	9157.95833
196.36	9122.29167
200.472	8933.625
204.581	8752.29167
208.687	8595.95833
212.79	8582.625
216.889	8661.625
220.984	8743.95833
225.077	8955.95833
229.165	9101.95833
233.251	9220.625
237.333	9301.95833
241.412	9434.95833
245.487	9405.95833
249.559	9334.29167
253.628	9196.29167
257.694	9069.95833
261.756	8969.95833
265.814	8805.95833
269.87	8522.29167
273.922	8148.625
277.97	7831.29167
282.016	7461.95833
286.058	7143.29167
290.097	6952.95833
294.132	6816.95833
298.164	6724.95833
302.193	6476.95833
306.219	6105.95833
310.241	5530.29167
314.26	5005.95833
318.276	4554.625
322.288	4285.29167
326.297	4018.29167
330.303	3881.29167
334.305	3733.29167
338.305	3648.95833
342.301	3571.625
346.294	3532.95833
350.283	3538.95833
354.269	3503.95833
358.252	3486.95833
362.232	3473.29167
366.209	3454.625
370.182	3410.625
374.152	3409.95833
378.119	3418.625
382.083	3402.625
386.043	3439.95833
390	3387.29167
393.954	3378.95833
397.905	3328.625
401.852	3298.625
405.797	3214.29167
409.738	3130.625
413.676	3119.29167
417.61	3056.95833
421.542	3043.95833
425.47	2983.95833
429.396	2919.95833
433.318	2920.29167
437.236	2898.625
441.152	2911.29167
445.065	2807.29167
448.974	2805.625
452.88	2796.625
456.783	2785.625
460.683	2746.29167
464.58	2762.29167
468.473	2740.95833
472.364	2760.625
476.251	2770.29167
480.135	2762.95833
484.016	2775.95833
487.894	2774.29167
491.769	2782.625
495.641	2788.625
499.509	2780.95833
503.375	2816.95833
507.237	2774.625
511.096	2794.95833
514.952	2781.29167
518.805	2762.625
522.655	2767.625
526.502	2752.625
530.346	2774.95833
534.187	2779.95833
538.024	2769.29167
541.859	2770.625
545.69	2780.625
549.519	2748.29167
553.344	2750.29167
557.166	2713.95833
560.985	2694.95833
564.802	2643.95833
568.615	2632.625
572.425	2581.29167
576.232	2571.95833
580.036	2583.95833
583.836	2571.95833
587.634	2569.625
591.429	2572.95833
595.221	2630.29167
599.01	2621.95833
602.796	2669.95833
606.578	2696.95833
610.358	2708.29167
614.135	2687.625
617.909	2726.625
621.679	2694.625
625.447	2636.29167
629.212	2680.95833
632.973	2699.29167
636.732	2675.95833
640.488	2669.29167
644.241	2650.625
647.991	2658.29167
651.737	2675.625
655.481	2645.625
659.222	2669.95833
662.96	2694.95833
666.695	2678.95833
670.427	2685.95833
674.156	2698.95833
677.882	2689.95833
681.605	2661.625
685.325	2632.95833
689.043	2649.625
692.757	2636.95833
696.468	2650.29167
700.177	2667.29167
703.882	2637.29167
707.585	2649.29167
711.284	2650.95833
714.981	2639.29167
718.675	2633.29167
722.366	2674.29167
726.054	2625.95833
729.739	2660.29167
733.421	2642.29167
737.1	2639.95833
740.777	2684.625
744.45	2659.95833
748.121	2689.29167
751.789	2747.625
755.453	2727.95833
759.115	2749.29167
762.774	2800.29167
766.431	2805.95833
770.084	2823.95833
773.734	2861.95833
777.382	2920.95833
781.027	2960.29167
784.669	2977.29167
788.308	2983.625
791.944	3025.95833
795.577	3042.625
799.208	3078.95833
802.835	3094.625
806.46	3123.95833
810.082	3206.95833
813.701	3223.625
817.317	3234.95833
820.931	3242.95833
824.542	3239.29167
828.149	3210.29167
831.754	3143.625
835.357	3131.29167
838.956	3127.625
842.553	3111.95833
846.146	3087.29167
849.737	3042.625
853.326	3062.29167
856.911	3071.29167
860.493	3151.95833
864.073	3163.95833
867.65	3205.95833
871.225	3240.29167
874.796	3222.625
878.365	3249.625
881.931	3298.625
885.494	3305.95833
889.054	3305.95833
892.612	3308.29167
896.166	3271.625
899.719	3242.29167
903.268	3238.625
906.814	3209.29167
910.358	3210.625
913.899	3204.95833
917.438	3228.625
920.973	3187.95833
924.506	3228.625
928.036	3295.95833
931.564	3323.29167
935.088	3326.29167
938.61	3360.29167
942.129	3363.625
945.646	3434.95833
949.16	3528.625
952.671	3613.29167
956.179	3690.29167
959.685	3681.625
963.188	3685.29167
966.688	3596.29167
970.185	3528.29167
973.68	3418.29167
977.173	3411.625
980.662	3384.625
984.149	3403.29167
987.633	3399.95833
991.114	3464.625
994.593	3569.29167
998.069	3673.95833
1001.542	3822.95833
1005.013	3723.29167
1008.481	3527.29167
1011.947	3490.95833
1015.409	3445.625
1018.869	3479.29167
1022.327	3442.29167
1025.782	3425.29167
1029.234	3432.625
1032.683	3429.29167
1036.13	3300.625
1039.574	3131.625
1043.016	3056.95833
1046.455	3008.625
1049.891	2981.95833
1053.325	2964.625
1056.756	2950.95833
1060.184	2986.625
1063.61	2985.95833
1067.033	2997.29167
1070.454	2997.625
1073.872	3027.29167
1077.287	3026.29167
1080.7	3040.29167
1084.11	3047.625
1087.517	3017.29167
1090.922	2992.625
1094.325	2935.95833
1097.724	2925.625
1101.122	2931.95833
1104.516	2903.95833
1107.908	2915.625
1111.298	2962.29167
1114.684	3038.29167
1118.069	3025.625
1121.45	3058.95833
1124.83	3029.95833
1128.206	3044.625
1131.58	3085.29167
1134.951	3161.625
1138.32	3268.625
1141.687	3399.625
1145.05	3524.29167
1148.412	3552.95833
1151.77	3549.625
1155.126	3572.625
1158.48	3561.625
1161.831	3589.29167
1165.18	3586.625
1168.525	3655.625
1171.869	3697.95833
1175.21	3727.625
1178.548	3765.625
1181.884	3833.29167
1185.217	3863.625
1188.548	3926.95833
1191.877	3989.625
1195.202	4051.95833
1198.526	4087.29167
1201.846	4102.29167
1205.165	4092.625
1208.48	4093.625
1211.794	4050.625
1215.104	4055.95833
1218.413	4040.625
1221.719	4057.625
1225.022	3998.95833
1228.323	3966.95833
1231.621	3979.95833
1234.917	3951.625
1238.21	3975.625
1241.501	4002.29167
1244.79	3978.95833
1248.076	3932.95833
1251.359	3995.625
1254.64	4048.95833
1257.919	4077.625
1261.195	4157.95833
1264.468	4206.95833
1267.74	4262.95833
1271.008	4319.29167
1274.275	4292.95833
1277.538	4243.29167
1280.8	4238.95833
1284.059	4230.95833
1287.315	4292.29167
1290.569	4318.95833
1293.821	4364.29167
1297.07	4370.29167
1300.317	4413.95833
1303.562	4373.95833
1306.803	4353.29167
1310.043	4315.95833
1313.28	4278.625
1316.515	4232.625
1319.747	4196.95833
1322.977	4148.95833
1326.204	4075.95833
1329.429	4017.95833
1332.652	3992.29167
1335.872	4004.29167
1339.09	3992.625
1342.306	3967.29167
1345.519	3950.29167
1348.729	3937.95833
1351.938	3953.625
1355.144	3880.95833
1358.347	3801.625
1361.548	3810.29167
1364.747	3818.625
1367.944	3830.95833
1371.138	3818.95833
1374.329	3844.625
1377.518	3896.95833
1380.705	3913.29167
1383.89	3885.625
1387.072	3795.95833
1390.252	3649.29167
1393.429	3550.95833
1396.605	3446.29167
1399.777	3312.625
1402.948	3293.95833
1406.116	3261.29167
1409.282	3287.29167
1412.445	3266.625
1415.606	3307.95833
1418.765	3336.29167
1421.921	3417.625
1425.075	3477.29167
1428.227	3610.29167
1431.376	3775.625
1434.524	3909.95833
1437.668	4013.625
1440.811	4044.95833
1443.951	4061.29167
1447.089	4075.29167
1450.224	4041.29167
1453.357	4047.95833
1456.488	4001.625
1459.617	3960.95833
1462.743	3901.95833
1465.867	3817.625
1468.989	3798.625
1472.108	3701.625
1475.225	3654.95833
1478.34	3622.29167
1481.453	3617.625
1484.563	3627.95833
1487.671	3667.625
1490.776	3726.625
1493.88	3804.95833
1496.981	3883.625
1500.08	3993.95833
1503.176	4050.29167
1506.271	4117.625
1509.363	4183.29167
1512.452	4237.625
1515.54	4357.625
1518.625	4461.625
1521.708	4678.95833
1524.789	4949.95833
1527.867	5312.29167
1530.944	5593.625
1534.018	5791.95833
1537.089	5822.95833
1540.159	5703.625
1543.226	5519.29167
1546.291	5298.95833
1549.354	5132.95833
1552.415	4944.95833
1555.473	4834.625
1558.529	4771.29167
1561.583	4751.95833
1564.634	4727.625
1567.684	4736.625
1570.731	4756.625
1573.776	4818.95833
1576.819	4882.95833
1579.859	4943.29167
1582.898	5035.625
1585.934	5054.95833
1588.968	5099.29167
1591.999	5077.625
1595.029	5066.29167
1598.056	5101.29167
1601.081	5096.95833
1604.104	5084.95833
1607.125	5057.625
1610.144	4953.29167
1613.16	4860.95833
1616.174	4755.625
1619.186	4632.625
1622.196	4563.625
1625.203	4452.29167
1628.209	4389.95833
1631.212	4347.625
1634.213	4323.29167
1637.212	4309.29167
1640.209	4271.95833
1643.203	4121.29167
1646.196	4018.95833
1649.186	3857.29167
1652.174	3772.29167
1655.16	3615.625
1658.144	3498.29167
1661.125	3334.625
1664.105	3131.29167
1667.082	2973.95833
1670.057	2845.625
1673.03	2660.95833
1676.001	2470.29167
1678.97	2325.625
1681.937	2174.29167
1684.901	2064.29167
1687.863	1999.625
1690.824	1896.625
1693.782	1863.29167
1696.738	1805.95833
1699.692	1762.95833
1702.643	1731.625
1705.593	1693.95833
1708.54	1667.95833
1711.486	1674.95833
1714.429	1632.625
1717.37	1608.625
1720.309	1592.625
1723.246	1572.29167
1726.181	1548.95833
1729.113	1554.29167
1732.044	1531.29167
1734.972	1508.29167
1737.899	1497.95833
1740.823	1499.29167
1743.745	1472.625
1746.665	1429.95833
1749.583	1413.29167
1752.499	1416.625
1755.413	1389.29167
1758.325	1368.29167
1761.235	1357.625
1764.142	1330.95833
1767.048	1323.29167
1769.951	1319.29167
1772.852	1304.625
1775.752	1295.95833
1778.649	1280.95833
1781.544	1288.625
1784.437	1251.625
1787.328	1267.625
1790.217	1258.95833
1793.104	1233.95833
1795.989	1233.29167
1798.872	1210.625
1801.753	1242.95833
1804.631	1227.95833
1807.508	1245.95833
1810.383	1224.29167
1813.255	1215.29167
1816.126	1216.29167
1818.994	1190.95833
1821.861	1192.625
1824.725	1191.29167
1827.587	1193.95833
1830.448	1180.95833
1833.306	1158.625
1836.162	1168.625
1839.017	1159.625
1841.869	1155.95833
1844.719	1153.29167
1847.567	1149.625
1850.414	1142.625
1853.258	1122.29167
1856.1	1137.95833
1858.94	1141.29167
1861.778	1134.95833
1864.614	1123.625
1867.448	1124.29167
1870.28	1136.29167
1873.111	1134.95833
1875.939	1127.625
1878.765	1144.95833
1881.589	1133.29167
1884.411	1109.29167
1887.231	1128.95833
1890.049	1107.625
1892.865	1102.625
1895.68	1084.95833
1898.492	1110.625
1901.302	1083.29167
1904.11	1080.95833
1906.916	1082.29167
1909.721	1065.625
1912.523	1090.29167
1915.323	1058.29167
1918.122	1059.625
1920.918	1065.29167
1923.712	1055.95833
1926.505	1075.29167
1929.295	1052.625
1932.084	1071.29167
1934.87	1073.95833
1937.655	1045.625
1940.438	1044.625
1943.218	1046.625
1945.997	1040.29167
1948.774	1057.29167
1951.549	1053.625
1954.322	1021.29167
1957.093	1037.625
1959.862	1034.625
1962.629	1037.29167
1965.394	1035.29167
1968.157	1029.625
1970.918	1028.625
1973.678	1013.95833
1976.435	1026.95833
1979.19	1006.29167
1981.944	1003.29167
1984.696	1016.625
1987.445	998.95833
1990.193	1002.625
1992.939	1011.95833
1995.683	1003.625
1998.425	986.95833
2001.165	1009.95833
2003.903	989.29167
2006.639	989.29167
2009.374	997.95833
2012.106	981.95833
2014.837	957.29167
2017.566	987.29167
2020.292	984.95833
2023.017	976.625
2025.74	974.95833
2028.461	965.95833
2031.18	980.29167
2033.898	966.95833
2036.613	968.95833
2039.327	991.625
2042.038	948.625
2044.748	952.29167
2047.456	954.29167
2050.162	927.29167
2052.866	942.29167
2055.568	957.625
2058.268	947.95833
2060.967	954.29167
2063.663	939.625
2066.358	944.625
2069.051	934.29167
2071.742	938.29167
2074.431	943.625
2077.118	932.625
2079.804	921.29167
2082.487	945.95833
2085.169	950.29167
2087.849	962.625
2090.527	930.29167
2093.203	944.625
2095.877	951.29167
2098.55	943.29167
2101.22	962.625
2103.889	978.29167
2106.556	967.29167
2109.221	985.29167
2111.884	993.95833
2114.546	1044.625
2117.205	1084.625
2119.863	1169.95833
2122.519	1233.29167
2125.173	1346.95833
2127.825	1444.29167
2130.475	1500.95833
2133.124	1502.29167
2135.771	1456.95833
2138.416	1415.95833
2141.059	1338.29167
2143.7	1298.95833
2146.339	1214.29167
2148.977	1158.625
2151.613	1142.95833
2154.247	1115.95833
2156.879	1093.29167
2159.51	1078.29167
2162.138	1077.29167
2164.765	1069.29167
2167.39	1072.625
2170.013	1082.625
2172.634	1086.95833
2175.254	1083.95833
2177.872	1110.95833
2180.488	1073.625
2183.102	1073.625
2185.714	1047.625
2188.325	1007.625
2190.934	1023.95833
2193.541	1009.95833
2196.146	977.625
2198.75	949.29167
2201.351	954.29167
2203.951	909.29167
2206.549	924.29167
2209.146	898.29167
2211.74	886.29167
2214.333	897.95833
2216.924	871.29167
2219.514	869.29167
2222.101	854.29167
2224.687	867.29167
2227.271	853.625
2229.853	839.29167
2232.433	834.29167
2235.012	861.625
2237.589	852.29167
2240.164	860.29167
2242.738	840.95833
2245.309	815.29167
2247.879	814.625
2250.448	812.29167
2253.014	791.625
2255.579	782.29167
2258.142	777.625
2260.703	766.95833
2263.262	756.29167
2265.82	766.625
2268.376	769.625
2270.93	748.625
2273.483	746.95833
2276.033	749.29167
2278.583	744.625
2281.13	744.95833
2283.675	724.29167
2286.219	728.29167
2288.761	724.95833
2291.302	722.95833
2293.841	740.29167
2296.377	707.95833
2298.913	708.95833
2301.446	728.95833
2303.978	717.95833
2306.508	700.95833
2309.037	713.29167
2311.563	711.29167
2314.088	717.29167
2316.612	689.95833
2319.133	700.29167
2321.653	694.95833
2324.171	686.625
2326.688	696.625
2329.202	685.625
2331.715	688.29167
2334.227	676.95833
2336.736	680.625
2339.244	668.95833
2341.751	660.29167
2344.255	685.625
2346.758	676.29167
2349.259	669.29167
2351.759	664.625
2354.257	654.29167
2356.753	647.29167
2359.247	662.29167
2361.74	660.95833
2364.231	657.95833
2366.721	671.625
2369.209	647.29167
2371.695	644.29167
2374.179	648.29167
2376.662	637.95833
2379.143	673.625
2381.622	649.29167
2384.1	663.95833
2386.576	641.625
2389.051	660.95833
2391.524	655.95833
2393.995	653.29167
2396.464	637.625
2398.932	622.95833
2401.398	635.625
2403.863	629.95833
2406.325	624.625
2408.787	632.29167
2411.246	629.29167
2413.704	627.29167
2416.16	619.95833
2418.615	618.625
2421.068	636.29167
2423.519	613.625
2425.969	626.625
2428.417	623.95833
2430.863	643.625
2433.308	632.625
2435.751	619.95833
2438.193	620.625
2440.633	605.95833
2443.071	622.95833
2445.508	594.95833
2447.943	605.95833
2450.376	591.625
2452.808	611.29167
2455.238	588.29167
2457.667	629.625
2460.093	599.29167
2462.519	590.29167
2464.942	584.95833
2467.365	601.625
2469.785	600.625
2472.204	586.29167
2474.621	591.95833
2477.037	608.95833
2479.451	577.95833
2481.863	589.95833
2484.274	578.29167
2486.683	586.29167
2489.091	595.625
2491.497	594.625
2493.901	577.29167
2496.304	571.625
2498.705	585.29167
2501.105	567.29167
2503.503	592.95833
2505.899	570.95833
2508.294	596.95833
2510.687	562.29167
2513.079	567.29167
2515.469	556.95833
2517.858	566.625
2520.245	576.625
2522.63	561.625
2525.014	553.95833
2527.396	555.95833
2529.776	558.29167
2532.156	562.95833
2534.533	551.95833
2536.909	554.95833
2539.283	541.625
2541.656	550.29167
2544.027	577.29167
2546.397	557.625
2548.765	554.29167
2551.131	545.29167
2553.496	557.625
2555.86	560.95833
2558.221	550.29167
2560.582	550.625
2562.94	537.625
2565.298	539.29167
2567.653	567.625
2570.007	537.95833
2572.36	549.29167
2574.711	535.625
2577.06	556.95833
2579.408	546.625
2581.754	541.625
2584.099	541.625
2586.442	537.625
2588.784	540.625
2591.124	544.625
2593.463	535.29167
2595.8	534.95833
2598.135	527.625
2600.469	530.29167
2602.802	545.625
2605.133	547.95833
2607.462	535.95833
2609.79	525.95833
2612.116	539.95833
2614.441	536.29167
2616.764	538.95833
2619.086	529.29167
2621.406	520.29167
2623.725	542.625
2626.042	521.95833
2628.358	530.95833
2630.672	522.625
2632.985	537.95833
2635.296	528.29167
2637.606	537.29167
2639.914	530.95833
2642.22	535.95833
2644.525	526.29167
2646.829	537.95833
2649.131	545.625
2651.432	547.625
2653.731	539.29167
2656.028	543.95833
2658.324	533.625
2660.619	519.95833
2662.912	549.95833
2665.204	533.95833
2667.494	541.625
2669.782	525.95833
2672.07	546.625
2674.355	551.29167
2676.639	535.95833
2678.922	526.625
2681.203	549.95833
2683.483	526.29167
2685.761	529.95833
2688.038	540.29167
2690.313	550.625
2692.587	538.29167
2694.859	537.95833
2697.13	545.29167
2699.399	544.625
2701.667	550.625
2703.933	551.625
2706.198	552.95833
2708.461	566.95833
2710.723	567.29167
2712.984	566.29167
2715.243	562.95833
2717.5	567.95833
2719.757	576.625
2722.011	574.29167
2724.264	579.95833
2726.516	598.29167
2728.766	572.95833
2731.015	575.95833
2733.262	581.29167
2735.508	580.95833
2737.753	565.95833
2739.996	549.625
2742.237	558.625
2744.477	575.625
2746.716	568.29167
2748.953	550.625
2751.189	559.95833
2753.423	544.625
2755.656	549.29167
2757.887	536.625
2760.117	528.625
2762.346	540.29167
2764.573	513.625
2766.798	527.95833
2769.022	539.95833
2771.245	531.29167
2773.467	525.625
2775.686	538.29167
2777.905	537.29167
2780.122	542.29167
2782.337	542.625
2784.552	539.95833
2786.764	555.625
2788.976	553.625
2791.186	569.625
2793.394	561.29167
2795.601	578.625
2797.807	570.625
2800.011	571.29167
2802.214	590.625
2804.415	592.625
2806.615	597.95833
2808.814	612.625
2811.011	613.625
2813.206	604.625
2815.401	629.625
2817.594	632.625
2819.785	655.625
2821.975	644.625
2824.164	650.29167
2826.351	683.95833
2828.537	704.29167
2830.722	717.29167
2832.905	733.625
2835.086	769.95833
2837.267	812.625
2839.445	843.625
2841.623	885.29167
2843.799	923.625
2845.974	973.29167
2848.147	1006.29167
2850.319	1056.29167
2852.489	1099.29167
2854.659	1103.625
2856.826	1126.29167
2858.993	1167.625
2861.158	1133.95833
2863.321	1139.625
2865.483	1186.95833
2867.644	1171.625
2869.804	1173.29167
2871.962	1162.29167
2874.118	1164.95833
2876.274	1164.95833
2878.428	1169.625
2880.58	1138.29167
2882.731	1167.625
2884.881	1158.95833
2887.03	1159.95833
2889.177	1156.29167
2891.322	1187.95833
2893.467	1168.95833
2895.61	1177.625
2897.751	1212.625
2899.892	1190.625
2902.03	1218.95833
2904.168	1230.29167
2906.304	1222.625
2908.439	1272.625
2910.572	1239.95833
2912.704	1264.625
2914.835	1259.29167
2916.965	1249.625
2919.093	1265.95833
2921.219	1226.95833
2923.345	1264.29167
2925.469	1230.625
2927.591	1206.625
2929.712	1161.29167
2931.832	1157.29167
2933.951	1117.625
2936.068	1119.625
2938.184	1078.95833
2940.299	1038.625
2942.412	998.625
2944.524	962.95833
2946.634	946.29167
2948.744	874.95833
2950.851	899.29167
2952.958	839.625
2955.063	821.625
2957.167	797.95833
2959.269	769.29167
2961.371	777.625
2963.471	735.29167
2965.569	733.95833
2967.666	687.95833
2969.762	686.95833
2971.857	648.29167
2973.95	628.625
2976.042	628.29167
2978.133	600.625
2980.222	585.625
2982.31	567.29167
2984.396	542.29167
2986.482	539.95833
2988.566	540.625
2990.648	517.95833
2992.73	526.29167
2994.81	503.29167
2996.889	517.29167
2998.966	503.29167
3001.042	504.29167
3003.117	495.95833
3005.191	487.625
3007.263	480.95833
3009.334	471.95833
3011.403	468.625
3013.472	444.95833
3015.539	449.95833
3017.604	461.29167
3019.669	414.625
3021.732	427.95833
3023.794	424.625
3025.854	402.625
3027.914	414.95833
3029.971	417.29167
3032.028	407.95833
3034.083	407.29167
3036.137	407.29167
3038.19	391.95833
3040.242	382.29167
3042.292	374.29167
3044.341	359.625
3046.388	384.95833
3048.435	358.29167
3050.48	375.95833
3052.524	356.625
3054.566	345.95833
3056.607	352.29167
3058.647	346.95833
3060.686	329.95833
3062.723	321.95833
3064.759	307.95833
3066.794	-0.375
3068.828	-1.375
3070.86	-2.04167
