-0.839	444.83333
3.438	490.16667
7.711	134.83333
11.981	52.83333
16.247	46.16667
20.509	47.16667
24.768	46.5
29.024	47.5
33.276	40.83333
37.524	51.83333
41.769	42.83333
46.01	35.5
50.247	56.5
54.481	62.83333
58.712	68.5
62.939	50.5
67.162	64.83333
71.382	61.5
75.599	51.83333
79.812	65.83333
84.021	85.83333
88.227	65.83333
92.429	69.16667
96.628	54.83333
100.823	76.16667
105.015	85.16667
109.204	84.83333
113.388	86.83333
117.57	82.16667
121.748	97.5
125.922	90.5
130.093	114.83333
134.261	123.5
138.425	111.83333
142.585	158.5
146.742	167.83333
150.896	200.5
155.046	249.5
159.193	404.83333
163.336	703.5
167.476	1287.16667
171.613	2374.83333
175.746	3942.83333
179.875	5786.5
184.002	7503.83333
188.124	8694.16667
192.244	9084.5
196.36	8994.16667
200.472	8787.83333
204.581	8592.5
208.687	8364.16667
212.79	8315.16667
216.889	8338.83333
220.984	8436.83333
225.077	8544.16667
229.165	8643.16667
233.251	8756.83333
237.333	8846.5
241.412	8874.5
245.487	8859.5
249.559	8778.16667
253.628	8675.5
257.694	8577.83333
261.756	8498.83333
265.814	8256.16667
269.87	7951.83333
273.922	7626.16667
277.97	7341.83333
282.016	7112.83333
286.058	6870.16667
290.097	6727.83333
294.132	6632.5
298.164	6523.5
302.193	6231.83333
306.219	5797.5
310.241	5282.83333
314.26	4862.16667
318.276	4452.83333
322.288	4168.83333
326.297	3974.16667
330.303	3791.16667
334.305	3672.16667
338.305	3596.16667
342.301	3555.5
346.294	3503.16667
350.283	3459.16667
354.269	3431.16667
358.252	3401.16667
362.232	3381.16667
366.209	3363.16667
370.182	3342.83333
374.152	3331.83333
378.119	3323.16667
382.083	3306.5
386.043	3339.5
390	3288.16667
393.954	3258.83333
397.905	3210.5
401.852	3223.83333
405.797	3156.16667
409.738	3115.83333
413.676	3101.83333
417.61	3052.83333
421.542	2999.83333
425.47	2962.83333
429.396	2950.5
433.318	2922.83333
437.236	2935.83333
441.152	2918.83333
445.065	2826.16667
448.974	2834.16667
452.88	2812.16667
456.783	2792.16667
460.683	2772.5
464.58	2772.83333
468.473	2783.16667
472.364	2790.16667
476.251	2776.83333
480.135	2801.5
484.016	2825.16667
487.894	2866.16667
491.769	2850.5
495.641	2844.83333
499.509	2847.83333
503.375	2849.16667
507.237	2831.83333
511.096	2815.5
514.952	2838.83333
518.805	2838.16667
522.655	2831.83333
526.502	2809.83333
530.346	2810.83333
534.187	2812.83333
538.024	2817.5
541.859	2805.5
545.69	2845.5
549.519	2813.16667
553.344	2802.5
557.166	2783.5
560.985	2736.16667
564.802	2716.83333
568.615	2683.16667
572.425	2667.16667
576.232	2613.16667
580.036	2608.83333
583.836	2647.5
587.634	2626.83333
591.429	2618.83333
595.221	2680.16667
599.01	2700.16667
602.796	2743.16667
606.578	2757.16667
610.358	2751.83333
614.135	2742.83333
617.909	2752.16667
621.679	2742.83333
625.447	2707.5
629.212	2725.83333
632.973	2737.83333
636.732	2696.5
640.488	2721.83333
644.241	2700.16667
647.991	2673.5
651.737	2719.16667
655.481	2682.83333
659.222	2692.83333
662.96	2695.83333
666.695	2695.5
670.427	2709.16667
674.156	2723.83333
677.882	2709.5
681.605	2693.16667
685.325	2671.16667
689.043	2663.5
692.757	2665.16667
696.468	2686.83333
700.177	2694.5
703.882	2684.83333
707.585	2664.16667
711.284	2686.83333
714.981	2670.16667
718.675	2655.5
722.366	2681.16667
726.054	2671.5
729.739	2681.16667
733.421	2685.16667
737.1	2653.16667
740.777	2710.83333
744.45	2690.5
748.121	2729.5
751.789	2784.5
755.453	2772.16667
759.115	2791.83333
762.774	2827.16667
766.431	2845.5
770.084	2870.83333
773.734	2905.16667
777.382	2961.16667
781.027	2989.16667
784.669	3013.16667
788.308	3014.16667
791.944	3033.16667
795.577	3072.83333
799.208	3079.83333
802.835	3129.5
806.46	3159.83333
810.082	3206.16667
813.701	3188.83333
817.317	3238.5
820.931	3225.83333
824.542	3234.5
828.149	3214.83333
831.754	3177.83333
835.357	3111.16667
838.956	3155.5
842.553	3120.16667
846.146	3110.83333
849.737	3104.5
853.326	3135.5
856.911	3106.83333
860.493	3157.5
864.073	3193.83333
867.65	3241.5
871.225	3258.83333
874.796	3262.5
878.365	3287.5
881.931	3311.83333
885.494	3352.5
889.054	3325.5
892.612	3334.16667
896.166	3310.83333
899.719	3271.83333
903.268	3273.16667
906.814	3244.16667
910.358	3222.83333
913.899	3214.83333
917.438	3237.16667
920.973	3225.5
924.506	3248.16667
928.036	3270.83333
931.564	3309.83333
935.088	3349.16667
938.61	3354.5
942.129	3368.83333
945.646	3451.16667
949.16	3515.16667
952.671	3628.16667
956.179	3657.16667
959.685	3634.5
963.188	3648.5
966.688	3564.83333
970.185	3508.83333
973.68	3444.16667
977.173	3390.5
980.662	3370.83333
984.149	3406.16667
987.633	3398.16667
991.114	3427.5
994.593	3545.16667
998.069	3669.16667
1001.542	3805.16667
1005.013	3685.16667
1008.481	3473.16667
1011.947	3426.5
1015.409	3423.5
1018.869	3430.83333
1022.327	3387.16667
1025.782	3378.16667
1029.234	3397.16667
1032.683	3350.16667
1036.13	3231.16667
1039.574	3098.83333
1043.016	3051.83333
1046.455	3001.83333
1049.891	2935.83333
1053.325	2927.16667
1056.756	2936.16667
1060.184	2959.16667
1063.61	2950.5
1067.033	2976.16667
1070.454	2964.83333
1073.872	3010.16667
1077.287	2996.16667
1080.7	3003.83333
1084.11	2998.16667
1087.517	2978.83333
1090.922	2936.83333
1094.325	2909.83333
1097.724	2900.5
1101.122	2920.83333
1104.516	2877.5
1107.908	2897.5
1111.298	2936.16667
1114.684	2987.5
1118.069	3021.83333
1121.45	3040.5
1124.83	3023.5
1128.206	3039.5
1131.58	3102.5
1134.951	3170.83333
1138.32	3254.83333
1141.687	3376.16667
1145.05	3516.16667
1148.412	3529.5
1151.77	3500.83333
1155.126	3523.5
1158.48	3530.16667
1161.831	3564.83333
1165.18	3576.83333
1168.525	3650.5
1171.869	3713.5
1175.21	3715.5
1178.548	3790.83333
1181.884	3829.5
1185.217	3842.16667
1188.548	3914.5
1191.877	3957.16667
1195.202	4052.16667
1198.526	4129.83333
1201.846	4118.5
1205.165	4093.16667
1208.48	4048.5
1211.794	4069.16667
1215.104	4034.5
1218.413	4046.5
1221.719	4033.16667
1225.022	3995.5
1228.323	3971.83333
1231.621	3936.5
1234.917	3906.83333
1238.21	3950.16667
1241.501	3925.83333
1244.79	3953.83333
1248.076	3962.16667
1251.359	3954.83333
1254.64	4006.5
1257.919	4049.83333
1261.195	4132.5
1264.468	4189.5
1267.74	4250.83333
1271.008	4272.83333
1274.275	4257.83333
1277.538	4238.16667
1280.8	4206.5
1284.059	4201.16667
1287.315	4234.5
1290.569	4259.83333
1293.821	4304.16667
1297.07	4279.83333
1300.317	4320.16667
1303.562	4313.83333
1306.803	4286.5
1310.043	4245.83333
1313.28	4175.16667
1316.515	4136.5
1319.747	4099.5
1322.977	4026.16667
1326.204	3995.16667
1329.429	3956.5
1332.652	3927.83333
1335.872	3888.83333
1339.09	3897.5
1342.306	3877.16667
1345.519	3857.5
1348.729	3834.83333
1351.938	3851.5
1355.144	3753.83333
1358.347	3710.83333
1361.548	3676.5
1364.747	3693.16667
1367.944	3680.16667
1371.138	3697.5
1374.329	3717.5
1377.518	3729.16667
1380.705	3770.16667
1383.89	3741.5
1387.072	3647.16667
1390.252	3493.5
1393.429	3408.83333
1396.605	3324.16667
1399.777	3232.5
1402.948	3192.83333
1406.116	3152.83333
1409.282	3165.5
1412.445	3171.16667
1415.606	3209.83333
1418.765	3231.83333
1421.921	3284.16667
1425.075	3359.16667
1428.227	3514.83333
1431.376	3666.5
1434.524	3767.16667
1437.668	3876.83333
1440.811	3914.5
1443.951	3944.5
1447.089	3958.5
1450.224	3921.16667
1453.357	3915.5
1456.488	3906.83333
1459.617	3820.16667
1462.743	3805.16667
1465.867	3722.5
1468.989	3701.83333
1472.108	3638.83333
1475.225	3595.83333
1478.34	3532.5
1481.453	3533.83333
1484.563	3576.5
1487.671	3577.5
1490.776	3632.83333
1493.88	3715.83333
1496.981	3820.5
1500.08	3880.16667
1503.176	3979.16667
1506.271	4018.16667
1509.363	4064.16667
1512.452	4131.83333
1515.54	4205.16667
1518.625	4316.16667
1521.708	4502.83333
1524.789	4748.5
1527.867	5032.16667
1530.944	5334.5
1534.018	5560.5
1537.089	5646.16667
1540.159	5598.16667
1543.226	5408.83333
1546.291	5207.5
1549.354	5019.83333
1552.415	4872.16667
1555.473	4755.83333
1558.529	4678.5
1561.583	4635.83333
1564.634	4637.16667
1567.684	4640.5
1570.731	4645.5
1573.776	4693.83333
1576.819	4761.83333
1579.859	4801.83333
1582.898	4878.83333
1585.934	4917.5
1588.968	4937.83333
1591.999	4940.16667
1595.029	4911.16667
1598.056	4919.83333
1601.081	4961.16667
1604.104	4872.5
1607.125	4868.5
1610.144	4771.83333
1613.16	4701.5
1616.174	4535.16667
1619.186	4433.16667
1622.196	4364.83333
1625.203	4224.5
1628.209	4154.5
1631.212	4119.5
1634.213	4091.16667
1637.212	4077.16667
1640.209	3988.5
1643.203	3893.16667
1646.196	3798.16667
1649.186	3615.16667
1652.174	3508.83333
1655.16	3397.83333
1658.144	3260.83333
1661.125	3120.83333
1664.105	2958.83333
1667.082	2818.16667
1670.057	2693.5
1673.03	2519.16667
1676.001	2348.83333
1678.97	2207.83333
1681.937	2076.16667
1684.901	1961.16667
1687.863	1907.83333
1690.824	1824.83333
1693.782	1788.16667
1696.738	1741.5
1699.692	1701.83333
1702.643	1658.83333
1705.593	1632.16667
1708.54	1609.83333
1711.486	1601.83333
1714.429	1550.16667
1717.37	1556.83333
1720.309	1526.5
1723.246	1529.5
1726.181	1501.16667
1729.113	1496.83333
1732.044	1472.83333
1734.972	1463.5
1737.899	1463.16667
1740.823	1458.16667
1743.745	1414.5
1746.665	1399.5
1749.583	1367.83333
1752.499	1359.5
1755.413	1344.16667
1758.325	1285.83333
1761.235	1309.16667
1764.142	1272.16667
1767.048	1273.16667
1769.951	1252.83333
1772.852	1244.83333
1775.752	1244.83333
1778.649	1248.83333
1781.544	1231.83333
1784.437	1216.83333
1787.328	1217.83333
1790.217	1200.83333
1793.104	1208.5
1795.989	1181.16667
1798.872	1174.83333
1801.753	1197.83333
1804.631	1187.16667
1807.508	1191.5
1810.383	1167.83333
1813.255	1163.83333
1816.126	1156.83333
1818.994	1156.16667
1821.861	1160.16667
1824.725	1151.83333
1827.587	1138.83333
1830.448	1146.16667
1833.306	1116.5
1836.162	1130.5
1839.017	1110.16667
1841.869	1116.83333
1844.719	1102.83333
1847.567	1092.16667
1850.414	1081.16667
1853.258	1088.83333
1856.1	1102.16667
1858.94	1108.83333
1861.778	1091.83333
1864.614	1090.16667
1867.448	1079.83333
1870.28	1073.83333
1873.111	1092.16667
1875.939	1086.5
1878.765	1092.16667
1881.589	1075.16667
1884.411	1071.16667
1887.231	1086.16667
1890.049	1077.16667
1892.865	1075.5
1895.68	1066.16667
1898.492	1059.16667
1901.302	1039.5
1904.11	1045.83333
1906.916	1054.83333
1909.721	1030.5
1912.523	1036.5
1915.323	1022.5
1918.122	1021.16667
1920.918	1025.83333
1923.712	1013.83333
1926.505	1017.83333
1929.295	1008.16667
1932.084	1023.16667
1934.87	1017.5
1937.655	1013.83333
1940.438	1000.83333
1943.218	1007.83333
1945.997	1015.16667
1948.774	1014.5
1951.549	1010.16667
1954.322	1007.83333
1957.093	1019.83333
1959.862	981.83333
1962.629	988.5
1965.394	978.83333
1968.157	974.83333
1970.918	975.16667
1973.678	968.83333
1976.435	977.16667
1979.19	981.16667
1981.944	967.83333
1984.696	963.83333
1987.445	952.83333
1990.193	957.83333
1992.939	966.16667
1995.683	955.5
1998.425	927.83333
2001.165	967.83333
2003.903	950.83333
2006.639	945.16667
2009.374	950.5
2012.106	944.83333
2014.837	914.83333
2017.566	947.83333
2020.292	937.83333
2023.017	935.5
2025.74	927.5
2028.461	918.83333
2031.18	940.83333
2033.898	913.83333
2036.613	942.5
2039.327	939.16667
2042.038	912.16667
2044.748	911.83333
2047.456	897.5
2050.162	884.5
2052.866	899.5
2055.568	911.83333
2058.268	897.16667
2060.967	903.16667
2063.663	882.16667
2066.358	901.83333
2069.051	889.83333
2071.742	894.16667
2074.431	898.16667
2077.118	893.5
2079.804	895.83333
2082.487	892.5
2085.169	902.16667
2087.849	918.16667
2090.527	888.5
2093.203	904.5
2095.877	914.16667
2098.55	920.16667
2101.22	929.83333
2103.889	944.83333
2106.556	939.83333
2109.221	961.16667
2111.884	983.83333
2114.546	1026.16667
2117.205	1097.5
2119.863	1195.5
2122.519	1262.83333
2125.173	1355.5
2127.825	1471.5
2130.475	1505.16667
2133.124	1487.5
2135.771	1458.5
2138.416	1421.5
2141.059	1321.16667
2143.7	1266.5
2146.339	1192.5
2148.977	1122.5
2151.613	1107.5
2154.247	1069.5
2156.879	1040.16667
2159.51	1040.16667
2162.138	1008.5
2164.765	1020.5
2167.39	1019.5
2170.013	1025.16667
2172.634	1026.5
2175.254	1013.83333
2177.872	1041.16667
2180.488	987.5
2183.102	994.16667
2185.714	986.16667
2188.325	954.83333
2190.934	946.83333
2193.541	939.16667
2196.146	916.5
2198.75	893.83333
2201.351	881.16667
2203.951	851.83333
2206.549	874.16667
2209.146	845.5
2211.74	836.83333
2214.333	832.5
2216.924	801.5
2219.514	821.16667
2222.101	800.83333
2224.687	818.5
2227.271	803.16667
2229.853	784.16667
2232.433	793.16667
2235.012	807.16667
2237.589	807.16667
2240.164	805.83333
2242.738	794.83333
2245.309	753.5
2247.879	782.16667
2250.448	766.16667
2253.014	741.5
2255.579	742.83333
2258.142	740.83333
2260.703	709.16667
2263.262	708.83333
2265.82	711.5
2268.376	713.16667
2270.93	702.83333
2273.483	708.16667
2276.033	707.5
2278.583	700.5
2281.13	688.5
2283.675	680.5
2286.219	678.5
2288.761	690.5
2291.302	690.5
2293.841	688.83333
2296.377	665.16667
2298.913	663.5
2301.446	682.16667
2303.978	677.83333
2306.508	659.16667
2309.037	674.5
2311.563	668.16667
2314.088	667.5
2316.612	638.16667
2319.133	661.16667
2321.653	646.83333
2324.171	648.5
2326.688	658.5
2329.202	643.5
2331.715	649.5
2334.227	648.5
2336.736	639.16667
2339.244	625.83333
2341.751	635.16667
2344.255	641.5
2346.758	627.83333
2349.259	622.83333
2351.759	618.16667
2354.257	614.83333
2356.753	621.5
2359.247	621.16667
2361.74	627.16667
2364.231	616.83333
2366.721	618.5
2369.209	610.5
2371.695	598.83333
2374.179	607.5
2376.662	608.16667
2379.143	621.5
2381.622	597.5
2384.1	612.83333
2386.576	596.83333
2389.051	615.83333
2391.524	614.5
2393.995	610.16667
2396.464	600.5
2398.932	589.5
2401.398	598.83333
2403.863	591.16667
2406.325	592.83333
2408.787	586.83333
2411.246	593.5
2413.704	589.16667
2416.16	585.83333
2418.615	582.83333
2421.068	595.16667
2423.519	585.16667
2425.969	569.16667
2428.417	582.5
2430.863	589.16667
2433.308	594.83333
2435.751	575.16667
2438.193	566.16667
2440.633	573.5
2443.071	574.16667
2445.508	564.16667
2447.943	560.5
2450.376	549.16667
2452.808	563.16667
2455.238	546.5
2457.667	581.5
2460.093	559.5
2462.519	562.16667
2464.942	553.83333
2467.365	561.16667
2469.785	561.16667
2472.204	551.5
2474.621	541.16667
2477.037	562.5
2479.451	533.5
2481.863	546.16667
2484.274	539.5
2486.683	541.5
2489.091	539.83333
2491.497	542.16667
2493.901	538.83333
2496.304	544.83333
2498.705	543.83333
2501.105	527.16667
2503.503	560.16667
2505.899	528.16667
2508.294	549.83333
2510.687	523.5
2513.079	524.5
2515.469	512.5
2517.858	517.16667
2520.245	540.5
2522.63	525.5
2525.014	513.83333
2527.396	516.16667
2529.776	511.5
2532.156	517.5
2534.533	507.16667
2536.909	513.16667
2539.283	496.5
2541.656	510.5
2544.027	530.83333
2546.397	516.16667
2548.765	512.83333
2551.131	505.16667
2553.496	519.16667
2555.86	524.16667
2558.221	507.16667
2560.582	510.16667
2562.94	493.16667
2565.298	510.5
2567.653	514.16667
2570.007	490.83333
2572.36	504.83333
2574.711	502.16667
2577.06	511.5
2579.408	501.5
2581.754	500.83333
2584.099	497.5
2586.442	493.83333
2588.784	493.16667
2591.124	497.5
2593.463	493.83333
2595.8	486.16667
2598.135	492.83333
2600.469	490.16667
2602.802	507.5
2605.133	499.5
2607.462	487.5
2609.79	481.83333
2612.116	480.5
2614.441	490.16667
2616.764	486.16667
2619.086	490.83333
2621.406	480.83333
2623.725	495.5
2626.042	492.16667
2628.358	484.16667
2630.672	473.83333
2632.985	497.5
2635.296	488.83333
2637.606	487.83333
2639.914	483.83333
2642.22	483.83333
2644.525	477.5
2646.829	487.83333
2649.131	499.5
2651.432	497.16667
2653.731	484.5
2656.028	500.5
2658.324	483.83333
2660.619	486.83333
2662.912	502.16667
2665.204	477.83333
2667.494	501.83333
2669.782	487.83333
2672.07	494.5
2674.355	498.5
2676.639	492.16667
2678.922	484.16667
2681.203	501.16667
2683.483	482.83333
2685.761	476.5
2688.038	494.16667
2690.313	508.16667
2692.587	491.83333
2694.859	490.83333
2697.13	486.83333
2699.399	493.5
2701.667	501.83333
2703.933	503.16667
2706.198	501.5
2708.461	510.83333
2710.723	519.83333
2712.984	506.5
2715.243	524.83333
2717.5	509.83333
2719.757	523.5
2722.011	515.83333
2724.264	519.83333
2726.516	547.16667
2728.766	520.83333
2731.015	527.5
2733.262	521.83333
2735.508	522.16667
2737.753	521.16667
2739.996	502.16667
2742.237	501.16667
2744.477	515.5
2746.716	526.83333
2748.953	513.83333
2751.189	508.5
2753.423	500.16667
2755.656	492.5
2757.887	483.5
2760.117	482.5
2762.346	488.83333
2764.573	479.16667
2766.798	487.5
2769.022	490.16667
2771.245	489.16667
2773.467	483.16667
2775.686	488.5
2777.905	500.5
2780.122	498.16667
2782.337	503.83333
2784.552	502.5
2786.764	509.5
2788.976	502.83333
2791.186	515.16667
2793.394	517.83333
2795.601	525.5
2797.807	526.83333
2800.011	534.5
2802.214	556.16667
2804.415	544.16667
2806.615	534.83333
2808.814	558.5
2811.011	565.16667
2813.206	563.83333
2815.401	579.5
2817.594	592.5
2819.785	605.16667
2821.975	590.83333
2824.164	599.16667
2826.351	626.83333
2828.537	648.83333
2830.722	662.16667
2832.905	677.83333
2835.086	705.5
2837.267	737.5
2839.445	776.5
2841.623	787.16667
2843.799	844.16667
2845.974	870.16667
2848.147	919.83333
2850.319	944.83333
2852.489	984.83333
2854.659	979.16667
2856.826	1015.83333
2858.993	1020.83333
2861.158	1040.16667
2863.321	1024.16667
2865.483	1060.16667
2867.644	1056.83333
2869.804	1044.5
2871.962	1035.83333
2874.118	1053.83333
2876.274	1029.5
2878.428	1039.83333
2880.58	1024.16667
2882.731	1023.16667
2884.881	1034.83333
2887.03	1035.5
2889.177	1023.83333
2891.322	1042.5
2893.467	1038.16667
2895.61	1041.83333
2897.751	1082.83333
2899.892	1066.83333
2902.03	1074.16667
2904.168	1077.16667
2906.304	1083.5
2908.439	1104.5
2910.572	1082.16667
2912.704	1114.5
2914.835	1096.5
2916.965	1114.16667
2919.093	1124.16667
2921.219	1090.16667
2923.345	1107.83333
2925.469	1069.83333
2927.591	1068.5
2929.712	1022.83333
2931.832	1034.83333
2933.951	1002.5
2936.068	975.16667
2938.184	937.83333
2940.299	908.16667
2942.412	885.16667
2944.524	841.5
2946.634	824.5
2948.744	769.16667
2950.851	792.83333
2952.958	729.5
2955.063	715.5
2957.167	714.16667
2959.269	668.83333
2961.371	686.16667
2963.471	634.83333
2965.569	640.16667
2967.666	609.5
2969.762	585.83333
2971.857	566.16667
2973.95	559.83333
2976.042	547.83333
2978.133	531.83333
2980.222	501.16667
2982.31	491.16667
2984.396	475.16667
2986.482	474.16667
2988.566	464.16667
2990.648	454.16667
2992.73	450.5
2994.81	444.16667
2996.889	444.5
2998.966	422.16667
3001.042	439.83333
3003.117	421.5
3005.191	433.83333
3007.263	416.16667
3009.334	413.83333
3011.403	404.5
3013.472	384.16667
3015.539	389.16667
3017.604	395.83333
3019.669	365.16667
3021.732	367.5
3023.794	368.5
3025.854	358.16667
3027.914	354.5
3029.971	366.83333
3032.028	347.16667
3034.083	352.83333
3036.137	354.83333
3038.19	333.5
3040.242	324.5
3042.292	311.83333
3044.341	312.83333
3046.388	336.83333
3048.435	298.83333
3050.48	322.16667
3052.524	313.16667
3054.566	298.5
3056.607	308.16667
3058.647	301.16667
3060.686	278.16667
3062.723	271.5
3064.759	263.83333
3066.794	-1.5
3068.828	2.16667
3070.86	-2.16667
