-0.839	478.58333
3.438	517.91667
7.711	141.91667
11.981	58.25
16.247	46.91667
20.509	44.58333
24.768	52.58333
29.024	49.25
33.276	45.25
37.524	52.91667
41.769	43.91667
46.01	41.25
50.247	53.25
54.481	64.25
58.712	67.91667
62.939	52.58333
67.162	66.58333
71.382	59.91667
75.599	52.25
79.812	66.91667
84.021	86.91667
88.227	61.91667
92.429	64.91667
96.628	48.58333
100.823	71.58333
105.015	77.25
109.204	79.58333
113.388	84.25
117.57	80.58333
121.748	92.91667
125.922	89.25
130.093	104.58333
134.261	119.91667
138.425	106.25
142.585	152.91667
146.742	160.25
150.896	183.58333
155.046	233.25
159.193	372.25
163.336	657.25
167.476	1193.91667
171.613	2185.91667
175.746	3667.25
179.875	5406.91667
184.002	6963.25
188.124	8088.58333
192.244	8454.58333
196.36	8400.25
200.472	8230.58333
204.581	8030.25
208.687	7905.25
212.79	7870.58333
216.889	7929.58333
220.984	8033.58333
225.077	8179.91667
229.165	8278.91667
233.251	8445.25
237.333	8538.91667
241.412	8580.91667
245.487	8593.58333
249.559	8525.25
253.628	8455.91667
257.694	8327.58333
261.756	8249.91667
265.814	8074.91667
269.87	7825.91667
273.922	7508.58333
277.97	7218.91667
282.016	6963.58333
286.058	6730.91667
290.097	6588.91667
294.132	6514.58333
298.164	6390.91667
302.193	6116.25
306.219	5727.58333
310.241	5204.91667
314.26	4727.91667
318.276	4317.58333
322.288	4044.25
326.297	3802.91667
330.303	3649.25
334.305	3548.58333
338.305	3461.25
342.301	3410.91667
346.294	3377.58333
350.283	3343.58333
354.269	3313.58333
358.252	3301.91667
362.232	3309.58333
366.209	3276.25
370.182	3215.91667
374.152	3222.91667
378.119	3247.58333
382.083	3216.58333
386.043	3229.91667
390	3196.58333
393.954	3179.58333
397.905	3149.25
401.852	3134.25
405.797	3086.91667
409.738	3028.25
413.676	3003.25
417.61	2978.58333
421.542	2927.91667
425.47	2880.25
429.396	2864.58333
433.318	2838.58333
437.236	2815.25
441.152	2831.91667
445.065	2765.91667
448.974	2762.91667
452.88	2738.58333
456.783	2721.58333
460.683	2703.25
464.58	2715.25
468.473	2734.91667
472.364	2719.25
476.251	2715.91667
480.135	2722.25
484.016	2750.91667
487.894	2755.91667
491.769	2756.91667
495.641	2772.25
499.509	2777.58333
503.375	2755.58333
507.237	2756.25
511.096	2759.91667
514.952	2752.58333
518.805	2792.25
522.655	2793.25
526.502	2739.25
530.346	2750.25
534.187	2737.25
538.024	2746.25
541.859	2751.25
545.69	2780.25
549.519	2751.58333
553.344	2725.58333
557.166	2701.58333
560.985	2663.91667
564.802	2655.91667
568.615	2616.25
572.425	2567.58333
576.232	2545.91667
580.036	2540.58333
583.836	2545.91667
587.634	2541.91667
591.429	2554.25
595.221	2583.58333
599.01	2637.58333
602.796	2667.91667
606.578	2667.58333
610.358	2680.25
614.135	2651.91667
617.909	2648.25
621.679	2638.25
625.447	2634.58333
629.212	2641.58333
632.973	2650.91667
636.732	2620.91667
640.488	2645.58333
644.241	2609.25
647.991	2602.25
651.737	2626.58333
655.481	2626.58333
659.222	2624.91667
662.96	2618.58333
666.695	2639.91667
670.427	2630.25
674.156	2671.91667
677.882	2634.58333
681.605	2633.58333
685.325	2606.91667
689.043	2625.58333
692.757	2618.91667
696.468	2614.91667
700.177	2610.91667
703.882	2616.25
707.585	2596.58333
711.284	2594.58333
714.981	2596.58333
718.675	2636.25
722.366	2600.25
726.054	2611.91667
729.739	2586.58333
733.421	2601.25
737.1	2596.58333
740.777	2632.91667
744.45	2647.25
748.121	2658.91667
751.789	2723.91667
755.453	2712.25
759.115	2728.25
762.774	2738.91667
766.431	2788.58333
770.084	2780.91667
773.734	2839.58333
777.382	2888.91667
781.027	2887.25
784.669	2929.58333
788.308	2926.91667
791.944	2976.91667
795.577	2949.91667
799.208	3036.25
802.835	3032.91667
806.46	3053.25
810.082	3116.91667
813.701	3114.25
817.317	3157.25
820.931	3137.58333
824.542	3151.91667
828.149	3107.25
831.754	3080.25
835.357	3044.91667
838.956	3049.91667
842.553	3034.91667
846.146	3007.25
849.737	2982.25
853.326	2994.58333
856.911	3022.58333
860.493	3055.25
864.073	3087.58333
867.65	3122.91667
871.225	3162.58333
874.796	3160.91667
878.365	3164.58333
881.931	3192.58333
885.494	3201.58333
889.054	3201.91667
892.612	3214.91667
896.166	3181.58333
899.719	3183.58333
903.268	3120.91667
906.814	3096.58333
910.358	3093.91667
913.899	3077.58333
917.438	3107.91667
920.973	3094.25
924.506	3109.91667
928.036	3164.58333
931.564	3190.58333
935.088	3215.58333
938.61	3254.91667
942.129	3256.25
945.646	3327.58333
949.16	3422.58333
952.671	3489.25
956.179	3526.91667
959.685	3531.58333
963.188	3512.25
966.688	3477.25
970.185	3406.91667
973.68	3304.58333
977.173	3311.91667
980.662	3275.25
984.149	3321.25
987.633	3302.91667
991.114	3359.58333
994.593	3450.91667
998.069	3562.58333
1001.542	3667.25
1005.013	3605.25
1008.481	3406.91667
1011.947	3369.91667
1015.409	3344.58333
1018.869	3342.91667
1022.327	3329.58333
1025.782	3294.58333
1029.234	3311.91667
1032.683	3268.58333
1036.13	3157.25
1039.574	3036.58333
1043.016	2983.25
1046.455	2907.58333
1049.891	2886.25
1053.325	2894.25
1056.756	2865.91667
1060.184	2905.91667
1063.61	2904.58333
1067.033	2916.58333
1070.454	2926.25
1073.872	2954.25
1077.287	2951.58333
1080.7	2968.58333
1084.11	2961.25
1087.517	2926.58333
1090.922	2891.25
1094.325	2865.58333
1097.724	2843.91667
1101.122	2823.91667
1104.516	2847.25
1107.908	2841.25
1111.298	2899.91667
1114.684	2942.91667
1118.069	2965.91667
1121.45	2965.25
1124.83	2977.58333
1128.206	2979.91667
1131.58	3033.25
1134.951	3092.58333
1138.32	3214.25
1141.687	3307.25
1145.05	3409.25
1148.412	3436.91667
1151.77	3464.58333
1155.126	3443.25
1158.48	3429.25
1161.831	3460.91667
1165.18	3468.25
1168.525	3535.25
1171.869	3546.91667
1175.21	3597.58333
1178.548	3629.25
1181.884	3695.58333
1185.217	3709.58333
1188.548	3775.58333
1191.877	3845.58333
1195.202	3926.58333
1198.526	3956.58333
1201.846	3979.25
1205.165	3959.25
1208.48	3911.58333
1211.794	3929.25
1215.104	3929.58333
1218.413	3929.25
1221.719	3906.25
1225.022	3876.25
1228.323	3838.91667
1231.621	3822.91667
1234.917	3809.58333
1238.21	3835.25
1241.501	3818.58333
1244.79	3855.25
1248.076	3829.25
1251.359	3861.91667
1254.64	3938.58333
1257.919	3946.25
1261.195	4018.25
1264.468	4111.58333
1267.74	4148.25
1271.008	4165.91667
1274.275	4160.91667
1277.538	4101.58333
1280.8	4083.58333
1284.059	4112.91667
1287.315	4140.91667
1290.569	4146.58333
1293.821	4185.25
1297.07	4200.25
1300.317	4234.25
1303.562	4195.91667
1306.803	4163.25
1310.043	4155.58333
1313.28	4111.25
1316.515	4066.91667
1319.747	4030.25
1322.977	3984.58333
1326.204	3928.91667
1329.429	3891.91667
1332.652	3838.25
1335.872	3837.25
1339.09	3801.58333
1342.306	3849.25
1345.519	3796.25
1348.729	3768.58333
1351.938	3741.58333
1355.144	3663.25
1358.347	3632.25
1361.548	3631.91667
1364.747	3648.25
1367.944	3626.25
1371.138	3649.25
1374.329	3658.91667
1377.518	3694.91667
1380.705	3736.58333
1383.89	3698.91667
1387.072	3659.91667
1390.252	3474.25
1393.429	3348.91667
1396.605	3288.58333
1399.777	3199.91667
1402.948	3173.58333
1406.116	3120.25
1409.282	3120.91667
1412.445	3144.58333
1415.606	3144.25
1418.765	3216.58333
1421.921	3255.58333
1425.075	3330.91667
1428.227	3454.58333
1431.376	3613.58333
1434.524	3750.91667
1437.668	3868.25
1440.811	3889.25
1443.951	3930.91667
1447.089	3941.58333
1450.224	3901.91667
1453.357	3889.58333
1456.488	3863.25
1459.617	3795.91667
1462.743	3744.91667
1465.867	3670.58333
1468.989	3649.58333
1472.108	3578.58333
1475.225	3514.58333
1478.34	3471.91667
1481.453	3492.25
1484.563	3497.25
1487.671	3548.25
1490.776	3583.25
1493.88	3642.91667
1496.981	3739.91667
1500.08	3784.25
1503.176	3868.58333
1506.271	3923.58333
1509.363	3990.25
1512.452	4046.91667
1515.54	4144.58333
1518.625	4223.58333
1521.708	4427.91667
1524.789	4665.91667
1527.867	4994.91667
1530.944	5306.58333
1534.018	5529.91667
1537.089	5581.25
1540.159	5510.91667
1543.226	5345.58333
1546.291	5141.91667
1549.354	4941.25
1552.415	4770.91667
1555.473	4666.91667
1558.529	4585.91667
1561.583	4544.25
1564.634	4502.91667
1567.684	4481.91667
1570.731	4541.91667
1573.776	4613.91667
1576.819	4592.25
1579.859	4696.25
1582.898	4753.25
1585.934	4772.25
1588.968	4812.58333
1591.999	4795.25
1595.029	4793.91667
1598.056	4814.58333
1601.081	4826.25
1604.104	4803.58333
1607.125	4758.58333
1610.144	4679.91667
1613.16	4581.25
1616.174	4509.91667
1619.186	4380.58333
1622.196	4306.25
1625.203	4219.58333
1628.209	4208.91667
1631.212	4132.58333
1634.213	4136.25
1637.212	4109.58333
1640.209	4016.91667
1643.203	3959.58333
1646.196	3831.58333
1649.186	3660.58333
1652.174	3562.58333
1655.16	3451.25
1658.144	3340.25
1661.125	3221.91667
1664.105	3046.91667
1667.082	2906.25
1670.057	2749.91667
1673.03	2563.58333
1676.001	2413.91667
1678.97	2247.91667
1681.937	2126.25
1684.901	1981.58333
1687.863	1929.91667
1690.824	1850.58333
1693.782	1801.91667
1696.738	1728.25
1699.692	1725.25
1702.643	1663.25
1705.593	1658.25
1708.54	1614.58333
1711.486	1615.58333
1714.429	1578.91667
1717.37	1580.25
1720.309	1534.58333
1723.246	1530.91667
1726.181	1515.91667
1729.113	1496.91667
1732.044	1486.91667
1734.972	1485.25
1737.899	1468.58333
1740.823	1441.91667
1743.745	1409.58333
1746.665	1395.25
1749.583	1375.58333
1752.499	1370.58333
1755.413	1347.91667
1758.325	1304.25
1761.235	1319.91667
1764.142	1279.91667
1767.048	1289.58333
1769.951	1266.58333
1772.852	1260.58333
1775.752	1240.25
1778.649	1250.58333
1781.544	1248.58333
1784.437	1225.91667
1787.328	1237.25
1790.217	1226.25
1793.104	1205.91667
1795.989	1190.58333
1798.872	1190.91667
1801.753	1207.58333
1804.631	1204.25
1807.508	1212.91667
1810.383	1196.25
1813.255	1183.91667
1816.126	1189.25
1818.994	1186.58333
1821.861	1154.58333
1824.725	1178.58333
1827.587	1170.58333
1830.448	1151.58333
1833.306	1116.91667
1836.162	1151.58333
1839.017	1127.25
1841.869	1132.91667
1844.719	1122.58333
1847.567	1103.58333
1850.414	1093.25
1853.258	1110.25
1856.1	1114.91667
1858.94	1134.25
1861.778	1113.91667
1864.614	1085.91667
1867.448	1113.91667
1870.28	1098.91667
1873.111	1120.58333
1875.939	1089.58333
1878.765	1128.25
1881.589	1090.91667
1884.411	1083.91667
1887.231	1101.25
1890.049	1083.25
1892.865	1080.91667
1895.68	1072.25
1898.492	1062.25
1901.302	1055.91667
1904.11	1059.91667
1906.916	1044.25
1909.721	1059.58333
1912.523	1069.58333
1915.323	1028.58333
1918.122	1036.91667
1920.918	1047.25
1923.712	1018.25
1926.505	1037.91667
1929.295	1021.58333
1932.084	1045.58333
1934.87	1035.58333
1937.655	1023.91667
1940.438	1027.91667
1943.218	1029.25
1945.997	1029.58333
1948.774	1021.91667
1951.549	1036.91667
1954.322	1026.91667
1957.093	1036.91667
1959.862	1006.25
1962.629	1013.91667
1965.394	1006.58333
1968.157	1005.58333
1970.918	1007.91667
1973.678	986.25
1976.435	998.25
1979.19	989.25
1981.944	977.91667
1984.696	982.25
1987.445	976.58333
1990.193	975.58333
1992.939	999.25
1995.683	983.25
1998.425	947.58333
2001.165	997.58333
2003.903	964.25
2006.639	971.58333
2009.374	954.91667
2012.106	974.25
2014.837	952.25
2017.566	960.58333
2020.292	967.91667
2023.017	960.58333
2025.74	948.58333
2028.461	951.25
2031.18	954.25
2033.898	957.25
2036.613	959.91667
2039.327	955.58333
2042.038	934.58333
2044.748	942.25
2047.456	943.58333
2050.162	906.58333
2052.866	919.58333
2055.568	932.58333
2058.268	919.25
2060.967	943.25
2063.663	918.58333
2066.358	928.91667
2069.051	917.58333
2071.742	914.58333
2074.431	915.58333
2077.118	911.58333
2079.804	912.25
2082.487	914.91667
2085.169	929.91667
2087.849	932.25
2090.527	917.91667
2093.203	933.58333
2095.877	928.58333
2098.55	943.25
2101.22	933.25
2103.889	954.91667
2106.556	934.58333
2109.221	960.91667
2111.884	973.58333
2114.546	1012.91667
2117.205	1076.58333
2119.863	1136.58333
2122.519	1218.25
2125.173	1290.58333
2127.825	1378.25
2130.475	1424.25
2133.124	1411.25
2135.771	1385.25
2138.416	1350.25
2141.059	1271.91667
2143.7	1238.25
2146.339	1157.25
2148.977	1117.58333
2151.613	1099.58333
2154.247	1059.25
2156.879	1042.91667
2159.51	1031.58333
2162.138	1018.25
2164.765	1019.25
2167.39	1021.58333
2170.013	1036.25
2172.634	1043.25
2175.254	1025.58333
2177.872	1053.91667
2180.488	1025.58333
2183.102	1009.91667
2185.714	1000.25
2188.325	973.58333
2190.934	972.25
2193.541	958.25
2196.146	936.91667
2198.75	902.58333
2201.351	900.25
2203.951	860.25
2206.549	891.58333
2209.146	856.91667
2211.74	853.25
2214.333	849.58333
2216.924	834.58333
2219.514	836.91667
2222.101	832.25
2224.687	845.25
2227.271	821.91667
2229.853	805.25
2232.433	808.58333
2235.012	836.25
2237.589	829.91667
2240.164	837.25
2242.738	824.58333
2245.309	806.91667
2247.879	800.25
2250.448	801.91667
2253.014	781.25
2255.579	759.25
2258.142	770.91667
2260.703	745.25
2263.262	759.58333
2265.82	758.25
2268.376	756.25
2270.93	740.25
2273.483	738.25
2276.033	752.25
2278.583	731.91667
2281.13	733.91667
2283.675	718.58333
2286.219	723.91667
2288.761	716.91667
2291.302	732.91667
2293.841	733.25
2296.377	701.25
2298.913	705.91667
2301.446	714.91667
2303.978	707.58333
2306.508	705.91667
2309.037	708.91667
2311.563	710.58333
2314.088	705.58333
2316.612	694.25
2319.133	706.25
2321.653	693.25
2324.171	684.25
2326.688	698.91667
2329.202	692.58333
2331.715	691.58333
2334.227	678.58333
2336.736	674.91667
2339.244	667.25
2341.751	658.91667
2344.255	679.91667
2346.758	672.25
2349.259	663.58333
2351.759	666.58333
2354.257	657.91667
2356.753	653.25
2359.247	664.25
2361.74	674.25
2364.231	659.25
2366.721	663.58333
2369.209	649.58333
2371.695	654.91667
2374.179	655.58333
2376.662	639.58333
2379.143	667.58333
2381.622	647.58333
2384.1	650.91667
2386.576	642.91667
2389.051	656.91667
2391.524	664.58333
2393.995	653.91667
2396.464	649.91667
2398.932	638.25
2401.398	647.25
2403.863	635.91667
2406.325	641.25
2408.787	647.25
2411.246	633.58333
2413.704	631.58333
2416.16	636.25
2418.615	643.25
2421.068	638.91667
2423.519	638.58333
2425.969	620.25
2428.417	631.91667
2430.863	657.91667
2433.308	644.25
2435.751	624.58333
2438.193	624.58333
2440.633	630.25
2443.071	625.91667
2445.508	614.91667
2447.943	615.58333
2450.376	610.25
2452.808	618.25
2455.238	609.25
2457.667	644.58333
2460.093	613.25
2462.519	603.58333
2464.942	605.25
2467.365	618.25
2469.785	621.25
2472.204	611.25
2474.621	606.91667
2477.037	627.25
2479.451	596.25
2481.863	597.91667
2484.274	600.91667
2486.683	602.91667
2489.091	600.58333
2491.497	611.91667
2493.901	603.25
2496.304	596.25
2498.705	609.58333
2501.105	588.91667
2503.503	623.91667
2505.899	591.25
2508.294	605.91667
2510.687	586.25
2513.079	586.25
2515.469	586.58333
2517.858	586.25
2520.245	598.91667
2522.63	584.91667
2525.014	572.91667
2527.396	570.25
2529.776	578.91667
2532.156	589.25
2534.533	579.91667
2536.909	577.58333
2539.283	560.25
2541.656	585.58333
2544.027	598.58333
2546.397	578.58333
2548.765	579.25
2551.131	582.58333
2553.496	583.25
2555.86	592.91667
2558.221	575.58333
2560.582	573.25
2562.94	565.91667
2565.298	570.25
2567.653	602.25
2570.007	567.91667
2572.36	578.58333
2574.711	574.58333
2577.06	590.91667
2579.408	580.58333
2581.754	570.91667
2584.099	585.91667
2586.442	578.25
2588.784	570.25
2591.124	573.91667
2593.463	566.25
2595.8	580.25
2598.135	560.25
2600.469	568.25
2602.802	583.91667
2605.133	577.25
2607.462	568.91667
2609.79	555.58333
2612.116	572.58333
2614.441	561.58333
2616.764	579.25
2619.086	571.58333
2621.406	557.91667
2623.725	573.25
2626.042	566.58333
2628.358	561.91667
2630.672	567.91667
2632.985	581.58333
2635.296	571.25
2637.606	584.25
2639.914	555.91667
2642.22	566.91667
2644.525	572.91667
2646.829	571.58333
2649.131	572.91667
2651.432	573.58333
2653.731	587.25
2656.028	580.91667
2658.324	575.58333
2660.619	579.58333
2662.912	594.25
2665.204	575.91667
2667.494	591.58333
2669.782	574.25
2672.07	591.91667
2674.355	589.58333
2676.639	577.25
2678.922	569.91667
2681.203	590.25
2683.483	569.91667
2685.761	566.91667
2688.038	588.91667
2690.313	598.25
2692.587	580.25
2694.859	582.91667
2697.13	582.91667
2699.399	590.25
2701.667	595.58333
2703.933	619.91667
2706.198	611.58333
2708.461	617.91667
2710.723	615.25
2712.984	618.25
2715.243	618.25
2717.5	617.58333
2719.757	624.91667
2722.011	622.25
2724.264	630.25
2726.516	649.58333
2728.766	629.91667
2731.015	627.91667
2733.262	640.91667
2735.508	632.25
2737.753	628.58333
2739.996	602.91667
2742.237	622.25
2744.477	618.25
2746.716	619.91667
2748.953	611.58333
2751.189	614.25
2753.423	604.25
2755.656	589.58333
2757.887	587.91667
2760.117	589.91667
2762.346	584.58333
2764.573	584.58333
2766.798	583.91667
2769.022	598.91667
2771.245	595.25
2773.467	601.25
2775.686	592.91667
2777.905	599.58333
2780.122	603.25
2782.337	613.58333
2784.552	599.58333
2786.764	620.58333
2788.976	609.91667
2791.186	624.25
2793.394	622.91667
2795.601	646.58333
2797.807	642.25
2800.011	645.58333
2802.214	665.25
2804.415	650.91667
2806.615	666.58333
2808.814	683.58333
2811.011	681.91667
2813.206	677.25
2815.401	695.25
2817.594	709.25
2819.785	717.91667
2821.975	711.25
2824.164	726.58333
2826.351	745.58333
2828.537	769.58333
2830.722	788.58333
2832.905	794.91667
2835.086	841.58333
2837.267	868.25
2839.445	915.58333
2841.623	930.58333
2843.799	962.25
2845.974	1032.25
2848.147	1057.58333
2850.319	1078.58333
2852.489	1121.91667
2854.659	1132.25
2856.826	1158.91667
2858.993	1176.25
2861.158	1174.25
2863.321	1168.91667
2865.483	1186.91667
2867.644	1192.91667
2869.804	1193.58333
2871.962	1186.91667
2874.118	1181.25
2876.274	1191.25
2878.428	1200.58333
2880.58	1186.58333
2882.731	1158.58333
2884.881	1176.58333
2887.03	1189.91667
2889.177	1182.58333
2891.322	1203.58333
2893.467	1189.58333
2895.61	1200.25
2897.751	1212.58333
2899.892	1219.58333
2902.03	1238.25
2904.168	1233.25
2906.304	1258.91667
2908.439	1256.91667
2910.572	1244.58333
2912.704	1255.91667
2914.835	1271.25
2916.965	1279.25
2919.093	1281.91667
2921.219	1248.25
2923.345	1265.25
2925.469	1220.58333
2927.591	1222.58333
2929.712	1192.25
2931.832	1187.91667
2933.951	1153.25
2936.068	1115.25
2938.184	1099.25
2940.299	1051.58333
2942.412	1041.25
2944.524	989.25
2946.634	978.58333
2948.744	926.91667
2950.851	943.25
2952.958	871.91667
2955.063	872.58333
2957.167	853.25
2959.269	821.25
2961.371	828.25
2963.471	795.58333
2965.569	792.58333
2967.666	762.58333
2969.762	750.25
2971.857	722.91667
2973.95	698.91667
2976.042	695.91667
2978.133	675.58333
2980.222	669.58333
2982.31	638.25
2984.396	619.25
2986.482	626.91667
2988.566	611.91667
2990.648	602.58333
2992.73	598.58333
2994.81	590.91667
2996.889	589.25
2998.966	578.25
3001.042	587.25
3003.117	574.58333
3005.191	574.91667
3007.263	569.25
3009.334	559.91667
3011.403	560.91667
3013.472	534.91667
3015.539	536.58333
3017.604	540.25
3019.669	504.91667
3021.732	504.91667
3023.794	511.91667
3025.854	498.91667
3027.914	497.25
3029.971	505.91667
3032.028	491.91667
3034.083	501.58333
3036.137	487.25
3038.19	472.91667
3040.242	466.58333
3042.292	456.58333
3044.341	446.58333
3046.388	460.91667
3048.435	436.58333
3050.48	458.91667
3052.524	439.25
3054.566	427.91667
3056.607	442.58333
3058.647	425.58333
3060.686	401.58333
3062.723	393.58333
3064.759	386.91667
3066.794	0.91667
3068.828	-2.41667
3070.86	-2.41667
