-0.839	488.20833
3.438	532.875
7.711	144.875
11.981	59.875
16.247	49.875
20.509	47.20833
24.768	49.20833
29.024	48.54167
33.276	44.20833
37.524	53.20833
41.769	42.875
46.01	36.20833
50.247	52.54167
54.481	65.54167
58.712	65.54167
62.939	50.54167
67.162	61.54167
71.382	58.20833
75.599	49.875
79.812	64.54167
84.021	80.20833
88.227	63.54167
92.429	66.875
96.628	53.54167
100.823	73.20833
105.015	81.20833
109.204	78.875
113.388	82.54167
117.57	81.875
121.748	94.20833
125.922	85.875
130.093	110.875
134.261	117.875
138.425	108.20833
142.585	159.20833
146.742	154.20833
150.896	180.20833
155.046	228.20833
159.193	378.875
163.336	653.875
167.476	1206.54167
171.613	2200.54167
175.746	3656.54167
179.875	5415.875
184.002	6982.875
188.124	8099.54167
192.244	8433.20833
196.36	8400.54167
200.472	8202.54167
204.581	8059.20833
208.687	7894.875
212.79	7843.54167
216.889	7885.54167
220.984	7983.875
225.077	8125.54167
229.165	8268.875
233.251	8366.875
237.333	8458.20833
241.412	8521.20833
245.487	8546.20833
249.559	8466.875
253.628	8401.20833
257.694	8293.54167
261.756	8214.20833
265.814	8079.54167
269.87	7758.875
273.922	7475.54167
277.97	7204.20833
282.016	6932.54167
286.058	6697.875
290.097	6591.54167
294.132	6502.20833
298.164	6394.20833
302.193	6135.54167
306.219	5707.20833
310.241	5173.20833
314.26	4694.875
318.276	4316.20833
322.288	4003.54167
326.297	3788.20833
330.303	3615.20833
334.305	3534.54167
338.305	3433.54167
342.301	3396.54167
346.294	3355.54167
350.283	3310.20833
354.269	3298.54167
358.252	3279.875
362.232	3252.20833
366.209	3221.20833
370.182	3190.20833
374.152	3165.875
378.119	3184.54167
382.083	3175.54167
386.043	3203.20833
390	3148.54167
393.954	3113.875
397.905	3083.54167
401.852	3064.20833
405.797	3042.54167
409.738	2982.20833
413.676	2937.20833
417.61	2923.20833
421.542	2903.54167
425.47	2843.875
429.396	2835.875
433.318	2805.54167
437.236	2779.875
441.152	2810.54167
445.065	2730.54167
448.974	2738.875
452.88	2716.54167
456.783	2665.54167
460.683	2688.20833
464.58	2678.20833
468.473	2691.54167
472.364	2687.20833
476.251	2666.875
480.135	2700.20833
484.016	2726.875
487.894	2734.875
491.769	2756.20833
495.641	2727.54167
499.509	2722.875
503.375	2740.54167
507.237	2730.875
511.096	2725.54167
514.952	2755.20833
518.805	2758.20833
522.655	2766.54167
526.502	2725.20833
530.346	2721.875
534.187	2716.54167
538.024	2708.54167
541.859	2730.54167
545.69	2761.20833
549.519	2704.20833
553.344	2721.20833
557.166	2681.20833
560.985	2670.20833
564.802	2613.54167
568.615	2588.20833
572.425	2535.54167
576.232	2522.20833
580.036	2516.20833
583.836	2527.875
587.634	2526.54167
591.429	2521.20833
595.221	2576.54167
599.01	2579.875
602.796	2621.20833
606.578	2638.875
610.358	2661.20833
614.135	2628.20833
617.909	2625.20833
621.679	2628.875
625.447	2604.20833
629.212	2630.54167
632.973	2617.20833
636.732	2605.54167
640.488	2613.54167
644.241	2585.54167
647.991	2586.875
651.737	2597.875
655.481	2569.54167
659.222	2589.875
662.96	2582.54167
666.695	2608.875
670.427	2632.875
674.156	2622.875
677.882	2611.875
681.605	2600.20833
685.325	2599.20833
689.043	2621.875
692.757	2601.875
696.468	2597.875
700.177	2586.20833
703.882	2577.54167
707.585	2574.54167
711.284	2576.875
714.981	2582.54167
718.675	2580.54167
722.366	2585.54167
726.054	2579.54167
729.739	2575.54167
733.421	2579.875
737.1	2587.20833
740.777	2601.875
744.45	2611.20833
748.121	2632.54167
751.789	2679.875
755.453	2658.20833
759.115	2697.54167
762.774	2723.875
766.431	2751.875
770.084	2773.875
773.734	2784.875
777.382	2886.54167
781.027	2879.20833
784.669	2912.875
788.308	2938.54167
791.944	2948.20833
795.577	2969.20833
799.208	2996.875
802.835	3010.20833
806.46	3057.875
810.082	3064.875
813.701	3105.54167
817.317	3122.20833
820.931	3123.875
824.542	3097.20833
828.149	3078.875
831.754	3047.54167
835.357	3023.20833
838.956	3030.20833
842.553	3030.875
846.146	2977.20833
849.737	2997.54167
853.326	2988.20833
856.911	2991.54167
860.493	3050.54167
864.073	3091.875
867.65	3132.875
871.225	3146.20833
874.796	3150.54167
878.365	3174.875
881.931	3177.875
885.494	3209.54167
889.054	3195.54167
892.612	3217.54167
896.166	3189.20833
899.719	3140.20833
903.268	3114.54167
906.814	3108.20833
910.358	3089.54167
913.899	3087.20833
917.438	3096.20833
920.973	3060.20833
924.506	3115.875
928.036	3144.20833
931.564	3197.875
935.088	3228.20833
938.61	3220.20833
942.129	3263.875
945.646	3333.54167
949.16	3385.875
952.671	3474.54167
956.179	3529.20833
959.685	3494.20833
963.188	3487.875
966.688	3461.20833
970.185	3383.875
973.68	3292.875
977.173	3254.875
980.662	3252.20833
984.149	3278.54167
987.633	3278.20833
991.114	3323.20833
994.593	3412.20833
998.069	3530.54167
1001.542	3672.54167
1005.013	3587.20833
1008.481	3401.875
1011.947	3330.20833
1015.409	3320.54167
1018.869	3353.54167
1022.327	3332.54167
1025.782	3284.20833
1029.234	3281.54167
1032.683	3257.54167
1036.13	3118.20833
1039.574	3033.20833
1043.016	2949.20833
1046.455	2888.875
1049.891	2863.20833
1053.325	2865.54167
1056.756	2844.54167
1060.184	2879.875
1063.61	2882.54167
1067.033	2901.875
1070.454	2898.875
1073.872	2921.54167
1077.287	2940.20833
1080.7	2941.20833
1084.11	2930.20833
1087.517	2921.54167
1090.922	2870.875
1094.325	2861.20833
1097.724	2830.875
1101.122	2818.20833
1104.516	2833.54167
1107.908	2850.54167
1111.298	2874.20833
1114.684	2910.54167
1118.069	2945.20833
1121.45	2962.875
1124.83	2946.54167
1128.206	2968.875
1131.58	3019.20833
1134.951	3093.875
1138.32	3165.20833
1141.687	3293.54167
1145.05	3411.875
1148.412	3465.20833
1151.77	3456.54167
1155.126	3455.20833
1158.48	3435.54167
1161.831	3466.875
1165.18	3510.54167
1168.525	3547.875
1171.869	3578.20833
1175.21	3627.54167
1178.548	3660.20833
1181.884	3724.54167
1185.217	3712.875
1188.548	3779.20833
1191.877	3826.875
1195.202	3937.54167
1198.526	3989.20833
1201.846	3988.875
1205.165	3950.20833
1208.48	3935.20833
1211.794	3929.20833
1215.104	3931.875
1218.413	3919.875
1221.719	3895.20833
1225.022	3884.875
1228.323	3851.54167
1231.621	3855.875
1234.917	3802.20833
1238.21	3869.20833
1241.501	3829.54167
1244.79	3817.875
1248.076	3815.20833
1251.359	3866.20833
1254.64	3929.20833
1257.919	3957.875
1261.195	3999.54167
1264.468	4081.20833
1267.74	4159.875
1271.008	4175.875
1274.275	4143.54167
1277.538	4100.875
1280.8	4075.20833
1284.059	4090.20833
1287.315	4138.20833
1290.569	4154.54167
1293.821	4195.54167
1297.07	4181.54167
1300.317	4218.875
1303.562	4237.875
1306.803	4169.20833
1310.043	4119.875
1313.28	4073.20833
1316.515	4055.20833
1319.747	4017.20833
1322.977	3983.875
1326.204	3907.875
1329.429	3843.20833
1332.652	3822.54167
1335.872	3837.20833
1339.09	3784.20833
1342.306	3812.20833
1345.519	3774.54167
1348.729	3754.20833
1351.938	3716.54167
1355.144	3664.20833
1358.347	3632.20833
1361.548	3603.54167
1364.747	3618.54167
1367.944	3593.54167
1371.138	3605.54167
1374.329	3637.875
1377.518	3664.54167
1380.705	3732.20833
1383.89	3699.875
1387.072	3597.54167
1390.252	3470.54167
1393.429	3374.20833
1396.605	3270.875
1399.777	3150.20833
1402.948	3139.20833
1406.116	3114.875
1409.282	3100.875
1412.445	3095.875
1415.606	3149.20833
1418.765	3170.875
1421.921	3257.20833
1425.075	3307.875
1428.227	3446.875
1431.376	3590.875
1434.524	3741.54167
1437.668	3823.54167
1440.811	3885.875
1443.951	3910.54167
1447.089	3895.875
1450.224	3897.875
1453.357	3873.54167
1456.488	3849.20833
1459.617	3790.875
1462.743	3761.20833
1465.867	3663.54167
1468.989	3638.875
1472.108	3600.20833
1475.225	3515.54167
1478.34	3504.54167
1481.453	3461.20833
1484.563	3468.875
1487.671	3549.875
1490.776	3573.54167
1493.88	3650.54167
1496.981	3764.875
1500.08	3820.875
1503.176	3865.20833
1506.271	3948.54167
1509.363	4024.875
1512.452	4075.54167
1515.54	4200.54167
1518.625	4265.875
1521.708	4446.20833
1524.789	4683.20833
1527.867	5005.20833
1530.944	5312.20833
1534.018	5513.20833
1537.089	5654.20833
1540.159	5576.20833
1543.226	5407.20833
1546.291	5191.54167
1549.354	5041.875
1552.415	4840.875
1555.473	4731.875
1558.529	4636.875
1561.583	4585.54167
1564.634	4551.20833
1567.684	4541.20833
1570.731	4561.20833
1573.776	4626.20833
1576.819	4665.54167
1579.859	4722.54167
1582.898	4773.20833
1585.934	4799.54167
1588.968	4809.875
1591.999	4824.875
1595.029	4830.54167
1598.056	4852.54167
1601.081	4854.20833
1604.104	4854.20833
1607.125	4835.20833
1610.144	4722.20833
1613.16	4607.20833
1616.174	4521.20833
1619.186	4398.20833
1622.196	4312.54167
1625.203	4184.20833
1628.209	4151.54167
1631.212	4144.20833
1634.213	4089.875
1637.212	4081.875
1640.209	3981.54167
1643.203	3874.20833
1646.196	3779.54167
1649.186	3627.875
1652.174	3493.875
1655.16	3400.875
1658.144	3289.20833
1661.125	3131.875
1664.105	2985.875
1667.082	2827.54167
1670.057	2689.54167
1673.03	2549.875
1676.001	2381.20833
1678.97	2200.20833
1681.937	2097.20833
1684.901	1963.54167
1687.863	1922.875
1690.824	1826.875
1693.782	1772.54167
1696.738	1723.54167
1699.692	1683.54167
1702.643	1647.875
1705.593	1610.20833
1708.54	1607.875
1711.486	1605.54167
1714.429	1553.54167
1717.37	1538.20833
1720.309	1542.875
1723.246	1531.875
1726.181	1500.54167
1729.113	1491.20833
1732.044	1459.20833
1734.972	1454.20833
1737.899	1443.54167
1740.823	1434.54167
1743.745	1399.875
1746.665	1392.54167
1749.583	1375.20833
1752.499	1347.20833
1755.413	1350.54167
1758.325	1296.20833
1761.235	1295.20833
1764.142	1262.54167
1767.048	1278.54167
1769.951	1244.20833
1772.852	1239.54167
1775.752	1222.20833
1778.649	1241.20833
1781.544	1240.54167
1784.437	1213.20833
1787.328	1212.54167
1790.217	1218.875
1793.104	1180.54167
1795.989	1182.20833
1798.872	1170.875
1801.753	1194.875
1804.631	1170.54167
1807.508	1193.54167
1810.383	1174.54167
1813.255	1164.875
1816.126	1157.20833
1818.994	1148.20833
1821.861	1137.875
1824.725	1138.20833
1827.587	1146.875
1830.448	1131.875
1833.306	1110.875
1836.162	1118.54167
1839.017	1097.54167
1841.869	1105.20833
1844.719	1113.54167
1847.567	1079.20833
1850.414	1106.54167
1853.258	1079.20833
1856.1	1111.875
1858.94	1106.875
1861.778	1078.54167
1864.614	1084.54167
1867.448	1093.54167
1870.28	1081.875
1873.111	1095.875
1875.939	1078.20833
1878.765	1095.54167
1881.589	1072.875
1884.411	1084.875
1887.231	1076.875
1890.049	1070.54167
1892.865	1081.20833
1895.68	1057.54167
1898.492	1060.20833
1901.302	1041.54167
1904.11	1053.875
1906.916	1048.20833
1909.721	1038.54167
1912.523	1041.20833
1915.323	1023.875
1918.122	1020.875
1920.918	1043.54167
1923.712	1026.54167
1926.505	1020.875
1929.295	1014.20833
1932.084	1025.20833
1934.87	1021.20833
1937.655	1004.54167
1940.438	1010.54167
1943.218	1010.20833
1945.997	1010.20833
1948.774	1026.54167
1951.549	1025.875
1954.322	1003.54167
1957.093	1000.875
1959.862	996.875
1962.629	998.20833
1965.394	997.54167
1968.157	961.875
1970.918	995.54167
1973.678	986.54167
1976.435	989.54167
1979.19	972.54167
1981.944	965.20833
1984.696	954.54167
1987.445	951.875
1990.193	963.54167
1992.939	972.20833
1995.683	969.20833
1998.425	936.875
2001.165	991.875
2003.903	952.54167
2006.639	949.20833
2009.374	954.875
2012.106	964.875
2014.837	915.54167
2017.566	957.54167
2020.292	943.54167
2023.017	948.54167
2025.74	928.54167
2028.461	926.20833
2031.18	952.20833
2033.898	931.20833
2036.613	936.875
2039.327	937.54167
2042.038	916.54167
2044.748	924.875
2047.456	930.54167
2050.162	903.875
2052.866	917.54167
2055.568	923.20833
2058.268	902.54167
2060.967	922.20833
2063.663	905.875
2066.358	913.54167
2069.051	906.875
2071.742	913.20833
2074.431	912.20833
2077.118	898.54167
2079.804	900.54167
2082.487	898.875
2085.169	910.54167
2087.849	928.20833
2090.527	915.875
2093.203	920.20833
2095.877	911.875
2098.55	919.54167
2101.22	941.54167
2103.889	945.875
2106.556	935.54167
2109.221	958.54167
2111.884	961.20833
2114.546	1013.875
2117.205	1073.54167
2119.863	1147.20833
2122.519	1215.54167
2125.173	1327.20833
2127.825	1405.54167
2130.475	1447.54167
2133.124	1433.875
2135.771	1398.20833
2138.416	1364.875
2141.059	1285.20833
2143.7	1246.875
2146.339	1166.20833
2148.977	1107.20833
2151.613	1098.20833
2154.247	1074.20833
2156.879	1040.875
2159.51	1034.20833
2162.138	1024.875
2164.765	1028.54167
2167.39	1001.54167
2170.013	1029.875
2172.634	1032.875
2175.254	1028.54167
2177.872	1040.54167
2180.488	1012.54167
2183.102	1004.20833
2185.714	987.20833
2188.325	965.875
2190.934	962.875
2193.541	943.54167
2196.146	938.54167
2198.75	899.54167
2201.351	890.54167
2203.951	862.20833
2206.549	885.875
2209.146	847.20833
2211.74	849.875
2214.333	853.20833
2216.924	824.54167
2219.514	832.20833
2222.101	811.20833
2224.687	853.54167
2227.271	821.875
2229.853	822.20833
2232.433	791.54167
2235.012	815.875
2237.589	827.54167
2240.164	821.875
2242.738	807.20833
2245.309	788.54167
2247.879	799.875
2250.448	806.54167
2253.014	771.875
2255.579	753.875
2258.142	757.54167
2260.703	752.20833
2263.262	756.20833
2265.82	744.20833
2268.376	755.54167
2270.93	736.875
2273.483	736.875
2276.033	730.54167
2278.583	725.875
2281.13	719.875
2283.675	724.54167
2286.219	708.875
2288.761	714.875
2291.302	724.20833
2293.841	718.20833
2296.377	705.20833
2298.913	700.20833
2301.446	713.54167
2303.978	707.875
2306.508	697.20833
2309.037	688.875
2311.563	704.54167
2314.088	699.875
2316.612	692.20833
2319.133	697.875
2321.653	696.875
2324.171	674.875
2326.688	690.875
2329.202	675.54167
2331.715	682.54167
2334.227	675.20833
2336.736	672.875
2339.244	672.875
2341.751	659.20833
2344.255	673.20833
2346.758	658.54167
2349.259	651.875
2351.759	659.875
2354.257	652.54167
2356.753	652.20833
2359.247	662.875
2361.74	664.875
2364.231	653.20833
2366.721	668.54167
2369.209	651.54167
2371.695	663.875
2374.179	649.875
2376.662	638.875
2379.143	666.20833
2381.622	650.20833
2384.1	649.20833
2386.576	642.54167
2389.051	656.20833
2391.524	663.20833
2393.995	651.875
2396.464	626.20833
2398.932	636.20833
2401.398	631.54167
2403.863	637.20833
2406.325	637.875
2408.787	625.875
2411.246	634.20833
2413.704	625.54167
2416.16	627.875
2418.615	629.54167
2421.068	649.54167
2423.519	637.54167
2425.969	624.20833
2428.417	634.875
2430.863	658.875
2433.308	639.20833
2435.751	629.875
2438.193	623.54167
2440.633	627.875
2443.071	618.54167
2445.508	609.20833
2447.943	619.20833
2450.376	613.20833
2452.808	613.20833
2455.238	611.20833
2457.667	642.54167
2460.093	619.20833
2462.519	608.875
2464.942	609.20833
2467.365	617.875
2469.785	622.20833
2472.204	610.54167
2474.621	591.875
2477.037	629.20833
2479.451	590.20833
2481.863	595.54167
2484.274	594.20833
2486.683	604.54167
2489.091	609.875
2491.497	599.54167
2493.901	610.54167
2496.304	591.54167
2498.705	607.54167
2501.105	600.875
2503.503	634.20833
2505.899	583.20833
2508.294	612.875
2510.687	583.54167
2513.079	589.54167
2515.469	585.54167
2517.858	585.20833
2520.245	604.54167
2522.63	590.875
2525.014	587.54167
2527.396	576.20833
2529.776	582.54167
2532.156	594.20833
2534.533	573.54167
2536.909	585.875
2539.283	576.20833
2541.656	581.875
2544.027	596.54167
2546.397	583.875
2548.765	586.20833
2551.131	580.54167
2553.496	582.54167
2555.86	583.54167
2558.221	576.54167
2560.582	586.875
2562.94	563.875
2565.298	574.875
2567.653	588.875
2570.007	570.20833
2572.36	576.875
2574.711	574.54167
2577.06	593.20833
2579.408	582.875
2581.754	581.20833
2584.099	579.875
2586.442	578.875
2588.784	581.54167
2591.124	579.20833
2593.463	569.54167
2595.8	584.54167
2598.135	565.54167
2600.469	570.20833
2602.802	587.875
2605.133	583.875
2607.462	565.875
2609.79	557.20833
2612.116	564.875
2614.441	570.875
2616.764	580.54167
2619.086	580.54167
2621.406	564.20833
2623.725	587.20833
2626.042	579.54167
2628.358	571.875
2630.672	575.20833
2632.985	582.875
2635.296	578.20833
2637.606	576.54167
2639.914	564.54167
2642.22	574.20833
2644.525	574.20833
2646.829	582.20833
2649.131	581.20833
2651.432	590.54167
2653.731	581.20833
2656.028	604.54167
2658.324	593.54167
2660.619	580.875
2662.912	601.54167
2665.204	575.20833
2667.494	608.54167
2669.782	578.54167
2672.07	596.875
2674.355	597.875
2676.639	575.875
2678.922	579.20833
2681.203	591.875
2683.483	584.54167
2685.761	580.20833
2688.038	596.20833
2690.313	601.54167
2692.587	601.54167
2694.859	588.875
2697.13	586.54167
2699.399	594.54167
2701.667	613.875
2703.933	620.54167
2706.198	623.20833
2708.461	619.20833
2710.723	628.875
2712.984	607.20833
2715.243	629.875
2717.5	626.875
2719.757	641.20833
2722.011	633.54167
2724.264	642.54167
2726.516	650.875
2728.766	631.875
2731.015	643.20833
2733.262	648.20833
2735.508	640.875
2737.753	635.54167
2739.996	619.875
2742.237	616.875
2744.477	636.20833
2746.716	633.54167
2748.953	616.875
2751.189	628.54167
2753.423	608.20833
2755.656	618.875
2757.887	599.20833
2760.117	608.54167
2762.346	590.875
2764.573	589.875
2766.798	594.20833
2769.022	612.20833
2771.245	604.20833
2773.467	607.20833
2775.686	610.20833
2777.905	616.54167
2780.122	624.20833
2782.337	616.54167
2784.552	617.54167
2786.764	639.54167
2788.976	635.875
2791.186	641.54167
2793.394	646.54167
2795.601	653.54167
2797.807	664.20833
2800.011	670.20833
2802.214	668.54167
2804.415	674.20833
2806.615	681.54167
2808.814	692.875
2811.011	691.20833
2813.206	697.54167
2815.401	714.875
2817.594	737.54167
2819.785	731.20833
2821.975	727.20833
2824.164	744.54167
2826.351	765.20833
2828.537	790.20833
2830.722	809.20833
2832.905	816.875
2835.086	840.20833
2837.267	897.20833
2839.445	907.54167
2841.623	942.20833
2843.799	982.20833
2845.974	1040.54167
2848.147	1081.875
2850.319	1100.20833
2852.489	1147.54167
2854.659	1158.875
2856.826	1160.875
2858.993	1204.875
2861.158	1192.875
2863.321	1190.875
2865.483	1209.875
2867.644	1209.54167
2869.804	1216.875
2871.962	1194.54167
2874.118	1217.20833
2876.274	1194.54167
2878.428	1198.875
2880.58	1198.54167
2882.731	1172.20833
2884.881	1185.54167
2887.03	1187.20833
2889.177	1197.20833
2891.322	1207.20833
2893.467	1203.875
2895.61	1204.54167
2897.751	1251.54167
2899.892	1218.875
2902.03	1251.875
2904.168	1247.54167
2906.304	1249.875
2908.439	1292.20833
2910.572	1255.20833
2912.704	1268.20833
2914.835	1278.20833
2916.965	1285.54167
2919.093	1278.20833
2921.219	1252.875
2923.345	1269.20833
2925.469	1240.875
2927.591	1230.54167
2929.712	1191.54167
2931.832	1184.875
2933.951	1160.20833
2936.068	1138.54167
2938.184	1096.54167
2940.299	1064.20833
2942.412	1054.20833
2944.524	1005.54167
2946.634	988.20833
2948.744	937.20833
2950.851	941.54167
2952.958	898.54167
2955.063	896.20833
2957.167	876.875
2959.269	842.54167
2961.371	849.20833
2963.471	814.54167
2965.569	804.54167
2967.666	772.54167
2969.762	755.20833
2971.857	736.20833
2973.95	719.875
2976.042	712.20833
2978.133	697.875
2980.222	672.54167
2982.31	645.54167
2984.396	635.54167
2986.482	631.54167
2988.566	639.54167
2990.648	613.20833
2992.73	609.54167
2994.81	602.54167
2996.889	603.875
2998.966	590.875
3001.042	598.54167
3003.117	594.54167
3005.191	582.54167
3007.263	583.875
3009.334	581.20833
3011.403	569.20833
3013.472	544.20833
3015.539	553.20833
3017.604	560.54167
3019.669	523.54167
3021.732	524.20833
3023.794	525.54167
3025.854	512.54167
3027.914	512.54167
3029.971	522.875
3032.028	503.20833
3034.083	516.54167
3036.137	502.875
3038.19	479.54167
3040.242	471.20833
3042.292	460.875
3044.341	461.54167
3046.388	468.875
3048.435	457.54167
3050.48	476.54167
3052.524	461.875
3054.566	434.54167
3056.607	447.875
3058.647	436.20833
3060.686	415.54167
3062.723	406.20833
3064.759	394.875
3066.794	1.875
3068.828	-2.125
3070.86	-4.45833
