-0.839	456.29167
3.438	494.29167
7.711	138.625
11.981	57.625
16.247	45.29167
20.509	43.29167
24.768	47.625
29.024	47.95833
33.276	43.625
37.524	49.29167
41.769	44.625
46.01	40.29167
50.247	50.625
54.481	61.95833
58.712	64.625
62.939	52.29167
67.162	64.625
71.382	60.625
75.599	50.95833
79.812	66.29167
84.021	78.29167
88.227	55.95833
92.429	65.95833
96.628	54.625
100.823	69.95833
105.015	78.625
109.204	84.29167
113.388	81.625
117.57	79.625
121.748	98.29167
125.922	89.625
130.093	106.625
134.261	116.29167
138.425	109.29167
142.585	156.29167
146.742	155.29167
150.896	184.95833
155.046	241.29167
159.193	390.95833
163.336	670.95833
167.476	1223.95833
171.613	2248.29167
175.746	3774.95833
179.875	5519.95833
184.002	7145.95833
188.124	8282.625
192.244	8555.95833
196.36	8502.625
200.472	8295.29167
204.581	8095.625
208.687	7913.95833
212.79	7854.95833
216.889	7882.29167
220.984	7943.29167
225.077	8038.29167
229.165	8140.29167
233.251	8247.29167
237.333	8311.625
241.412	8359.625
245.487	8383.29167
249.559	8306.29167
253.628	8208.95833
257.694	8149.95833
261.756	8049.95833
265.814	7914.95833
269.87	7683.625
273.922	7388.29167
277.97	7130.95833
282.016	6860.625
286.058	6642.95833
290.097	6529.29167
294.132	6446.29167
298.164	6364.29167
302.193	6161.625
306.219	5785.95833
310.241	5255.625
314.26	4734.95833
318.276	4320.625
322.288	4023.29167
326.297	3788.29167
330.303	3611.29167
334.305	3475.625
338.305	3403.29167
342.301	3344.29167
346.294	3299.95833
350.283	3260.625
354.269	3212.29167
358.252	3193.625
362.232	3141.29167
366.209	3156.95833
370.182	3092.95833
374.152	3076.625
378.119	3071.625
382.083	3059.625
386.043	3097.95833
390	3049.29167
393.954	3033.29167
397.905	2995.95833
401.852	2953.625
405.797	2905.625
409.738	2911.625
413.676	2888.29167
417.61	2864.625
421.542	2798.29167
425.47	2757.95833
429.396	2729.29167
433.318	2727.95833
437.236	2721.95833
441.152	2706.625
445.065	2677.29167
448.974	2648.625
452.88	2638.95833
456.783	2617.29167
460.683	2586.29167
464.58	2584.95833
468.473	2607.29167
472.364	2594.29167
476.251	2599.625
480.135	2596.29167
484.016	2613.95833
487.894	2618.29167
491.769	2643.625
495.641	2661.625
499.509	2643.29167
503.375	2670.95833
507.237	2649.625
511.096	2635.625
514.952	2668.29167
518.805	2669.29167
522.655	2658.29167
526.502	2636.95833
530.346	2639.29167
534.187	2645.625
538.024	2670.29167
541.859	2660.625
545.69	2702.625
549.519	2674.95833
553.344	2636.29167
557.166	2598.625
560.985	2575.95833
564.802	2531.625
568.615	2503.625
572.425	2458.95833
576.232	2448.95833
580.036	2430.95833
583.836	2450.625
587.634	2466.625
591.429	2443.95833
595.221	2499.625
599.01	2503.625
602.796	2551.29167
606.578	2564.95833
610.358	2605.29167
614.135	2568.29167
617.909	2550.95833
621.679	2558.625
625.447	2529.29167
629.212	2534.95833
632.973	2527.625
636.732	2536.29167
640.488	2511.625
644.241	2501.29167
647.991	2511.29167
651.737	2522.95833
655.481	2522.95833
659.222	2514.29167
662.96	2509.625
666.695	2531.95833
670.427	2524.625
674.156	2540.29167
677.882	2542.95833
681.605	2527.625
685.325	2497.29167
689.043	2503.95833
692.757	2495.29167
696.468	2522.29167
700.177	2514.29167
703.882	2481.95833
707.585	2466.625
711.284	2485.625
714.981	2478.29167
718.675	2487.625
722.366	2491.95833
726.054	2485.29167
729.739	2477.95833
733.421	2491.29167
737.1	2460.625
740.777	2512.95833
744.45	2506.95833
748.121	2538.95833
751.789	2586.95833
755.453	2561.625
759.115	2619.29167
762.774	2659.95833
766.431	2674.625
770.084	2708.625
773.734	2748.95833
777.382	2804.625
781.027	2830.95833
784.669	2848.625
788.308	2851.95833
791.944	2846.625
795.577	2872.625
799.208	2913.29167
802.835	2930.95833
806.46	2927.625
810.082	2990.625
813.701	3017.625
817.317	3050.625
820.931	3035.625
824.542	3044.625
828.149	3017.625
831.754	2998.625
835.357	2988.29167
838.956	2972.625
842.553	2957.95833
846.146	2950.95833
849.737	2932.95833
853.326	2952.95833
856.911	2956.95833
860.493	3004.95833
864.073	3027.95833
867.65	3076.95833
871.225	3116.95833
874.796	3116.95833
878.365	3112.625
881.931	3139.29167
885.494	3160.29167
889.054	3179.95833
892.612	3199.29167
896.166	3173.625
899.719	3470.95833
903.268	3322.625
906.814	3084.29167
910.358	3058.95833
913.899	3055.29167
917.438	3073.29167
920.973	3029.95833
924.506	3079.625
928.036	3111.29167
931.564	3156.95833
935.088	3211.95833
938.61	3172.625
942.129	3223.95833
945.646	3266.95833
949.16	3395.29167
952.671	3511.95833
956.179	3536.95833
959.685	3491.625
963.188	3474.95833
966.688	3416.95833
970.185	3345.625
973.68	3247.625
977.173	3202.29167
980.662	3172.625
984.149	3184.625
987.633	3200.95833
991.114	3268.625
994.593	3345.29167
998.069	3465.95833
1001.542	3603.95833
1005.013	3517.29167
1008.481	3326.29167
1011.947	3279.29167
1015.409	3248.625
1018.869	3258.625
1022.327	3234.95833
1025.782	3199.95833
1029.234	3216.625
1032.683	3178.625
1036.13	3066.625
1039.574	2951.95833
1043.016	2885.29167
1046.455	2833.625
1049.891	2770.625
1053.325	2767.29167
1056.756	2752.625
1060.184	2817.29167
1063.61	2803.625
1067.033	2829.625
1070.454	2828.29167
1073.872	2883.625
1077.287	2851.29167
1080.7	2859.95833
1084.11	2871.95833
1087.517	2830.625
1090.922	2792.29167
1094.325	2772.29167
1097.724	2749.95833
1101.122	2773.29167
1104.516	2763.95833
1107.908	2764.95833
1111.298	2813.625
1114.684	2865.95833
1118.069	2881.625
1121.45	2912.95833
1124.83	2918.95833
1128.206	2933.95833
1131.58	2982.625
1134.951	3081.625
1138.32	3186.29167
1141.687	3345.95833
1145.05	3474.29167
1148.412	3522.95833
1151.77	3504.625
1155.126	3494.95833
1158.48	3521.95833
1161.831	3508.29167
1165.18	3555.625
1168.525	3620.29167
1171.869	3654.95833
1175.21	3700.625
1178.548	3732.95833
1181.884	3763.625
1185.217	3789.95833
1188.548	3828.29167
1191.877	3900.95833
1195.202	3967.625
1198.526	4010.95833
1201.846	4002.625
1205.165	3981.625
1208.48	3940.29167
1211.794	3945.625
1215.104	3912.95833
1218.413	3929.29167
1221.719	3902.29167
1225.022	3854.625
1228.323	3819.29167
1231.621	3786.625
1234.917	3775.625
1238.21	3814.625
1241.501	3793.625
1244.79	3799.95833
1248.076	3780.29167
1251.359	3829.95833
1254.64	3878.625
1257.919	3908.29167
1261.195	4002.29167
1264.468	4061.625
1267.74	4153.29167
1271.008	4185.29167
1274.275	4149.625
1277.538	4102.625
1280.8	4103.29167
1284.059	4064.625
1287.315	4172.625
1290.569	4103.95833
1293.821	4159.29167
1297.07	4189.625
1300.317	4192.29167
1303.562	4171.625
1306.803	4174.95833
1310.043	4118.95833
1313.28	4058.29167
1316.515	4045.29167
1319.747	3997.29167
1322.977	3917.625
1326.204	3922.625
1329.429	3832.29167
1332.652	3787.625
1335.872	3765.625
1339.09	3730.29167
1342.306	3741.625
1345.519	3695.625
1348.729	3673.95833
1351.938	3652.29167
1355.144	3575.625
1358.347	3515.29167
1361.548	3528.29167
1364.747	3496.29167
1367.944	3494.625
1371.138	3544.95833
1374.329	3550.625
1377.518	3598.625
1380.705	3647.95833
1383.89	3664.95833
1387.072	3558.625
1390.252	3440.29167
1393.429	3308.95833
1396.605	3197.625
1399.777	3065.95833
1402.948	3061.95833
1406.116	3026.95833
1409.282	3016.95833
1412.445	3016.29167
1415.606	3051.29167
1418.765	3089.625
1421.921	3133.625
1425.075	3209.625
1428.227	3370.625
1431.376	3519.29167
1434.524	3667.625
1437.668	3767.625
1440.811	3824.29167
1443.951	3831.625
1447.089	3859.29167
1450.224	3850.625
1453.357	3855.95833
1456.488	3824.95833
1459.617	3764.29167
1462.743	3728.95833
1465.867	3666.29167
1468.989	3653.95833
1472.108	3598.29167
1475.225	3545.95833
1478.34	3505.95833
1481.453	3507.95833
1484.563	3504.29167
1487.671	3596.95833
1490.776	3630.95833
1493.88	3692.29167
1496.981	3810.29167
1500.08	3910.95833
1503.176	3946.29167
1506.271	4024.29167
1509.363	4096.29167
1512.452	4131.29167
1515.54	4216.29167
1518.625	4324.625
1521.708	4496.95833
1524.789	4747.29167
1527.867	5003.29167
1530.944	5314.95833
1534.018	5523.29167
1537.089	5586.95833
1540.159	5500.95833
1543.226	5318.95833
1546.291	5165.625
1549.354	4986.95833
1552.415	4883.625
1555.473	4775.95833
1558.529	4678.95833
1561.583	4642.95833
1564.634	4623.29167
1567.684	4631.625
1570.731	4647.625
1573.776	4711.29167
1576.819	4780.29167
1579.859	4825.625
1582.898	4927.625
1585.934	4933.95833
1588.968	4971.95833
1591.999	4934.29167
1595.029	4917.95833
1598.056	4934.625
1601.081	4931.29167
1604.104	4920.29167
1607.125	4875.95833
1610.144	4753.625
1613.16	4645.29167
1616.174	4561.625
1619.186	4424.95833
1622.196	4308.95833
1625.203	4211.625
1628.209	4145.625
1631.212	4107.625
1634.213	4103.625
1637.212	4006.625
1640.209	3928.29167
1643.203	3817.95833
1646.196	3664.625
1649.186	3482.29167
1652.174	3376.625
1655.16	3277.625
1658.144	3122.625
1661.125	2975.625
1664.105	2829.625
1667.082	2661.95833
1670.057	2558.29167
1673.03	2380.625
1676.001	2255.625
1678.97	2103.29167
1681.937	1968.95833
1684.901	1878.95833
1687.863	1806.95833
1690.824	1707.95833
1693.782	1692.95833
1696.738	1618.625
1699.692	1595.29167
1702.643	1564.625
1705.593	1522.95833
1708.54	1514.625
1711.486	1488.625
1714.429	1465.625
1717.37	1458.625
1720.309	1438.625
1723.246	1432.95833
1726.181	1390.625
1729.113	1413.625
1732.044	1384.625
1734.972	1369.95833
1737.899	1344.625
1740.823	1351.29167
1743.745	1290.625
1746.665	1279.625
1749.583	1270.95833
1752.499	1266.29167
1755.413	1236.29167
1758.325	1211.29167
1761.235	1207.625
1764.142	1178.625
1767.048	1161.29167
1769.951	1177.95833
1772.852	1167.625
1775.752	1154.95833
1778.649	1157.29167
1781.544	1146.29167
1784.437	1111.29167
1787.328	1129.95833
1790.217	1125.29167
1793.104	1086.95833
1795.989	1085.625
1798.872	1085.95833
1801.753	1094.95833
1804.631	1098.625
1807.508	1091.95833
1810.383	1094.95833
1813.255	1070.625
1816.126	1076.95833
1818.994	1071.625
1821.861	1063.625
1824.725	1069.95833
1827.587	1057.29167
1830.448	1040.29167
1833.306	1015.95833
1836.162	1041.29167
1839.017	1027.625
1841.869	1020.29167
1844.719	1014.625
1847.567	999.29167
1850.414	994.29167
1853.258	992.625
1856.1	1023.29167
1858.94	1020.29167
1861.778	1005.625
1864.614	1000.29167
1867.448	997.95833
1870.28	985.95833
1873.111	1018.95833
1875.939	990.95833
1878.765	1006.625
1881.589	987.29167
1884.411	988.95833
1887.231	1001.29167
1890.049	983.29167
1892.865	970.29167
1895.68	976.95833
1898.492	971.29167
1901.302	967.625
1904.11	958.625
1906.916	949.95833
1909.721	942.29167
1912.523	963.625
1915.323	943.29167
1918.122	946.95833
1920.918	950.95833
1923.712	939.95833
1926.505	937.625
1929.295	924.625
1932.084	939.29167
1934.87	938.625
1937.655	924.29167
1940.438	919.29167
1943.218	931.625
1945.997	934.29167
1948.774	947.95833
1951.549	929.95833
1954.322	921.95833
1957.093	920.29167
1959.862	915.95833
1962.629	919.29167
1965.394	904.29167
1968.157	900.625
1970.918	913.625
1973.678	893.95833
1976.435	908.95833
1979.19	887.29167
1981.944	881.625
1984.696	885.29167
1987.445	870.95833
1990.193	883.625
1992.939	896.625
1995.683	887.625
1998.425	860.29167
2001.165	892.625
2003.903	879.95833
2006.639	867.625
2009.374	872.95833
2012.106	873.625
2014.837	841.625
2017.566	875.95833
2020.292	877.29167
2023.017	873.625
2025.74	857.625
2028.461	848.95833
2031.18	863.625
2033.898	843.29167
2036.613	853.625
2039.327	856.29167
2042.038	854.95833
2044.748	846.29167
2047.456	854.29167
2050.162	826.625
2052.866	836.29167
2055.568	835.95833
2058.268	832.95833
2060.967	849.95833
2063.663	810.625
2066.358	832.29167
2069.051	822.29167
2071.742	827.95833
2074.431	831.625
2077.118	820.95833
2079.804	815.95833
2082.487	821.95833
2085.169	838.29167
2087.849	848.625
2090.527	824.29167
2093.203	828.29167
2095.877	835.625
2098.55	836.29167
2101.22	846.95833
2103.889	855.95833
2106.556	840.625
2109.221	855.95833
2111.884	855.29167
2114.546	912.95833
2117.205	936.29167
2119.863	994.29167
2122.519	1063.625
2125.173	1138.625
2127.825	1232.29167
2130.475	1263.625
2133.124	1254.29167
2135.771	1241.29167
2138.416	1204.95833
2141.059	1144.95833
2143.7	1109.625
2146.339	1033.95833
2148.977	971.625
2151.613	969.29167
2154.247	938.625
2156.879	921.95833
2159.51	909.625
2162.138	886.95833
2164.765	885.625
2167.39	870.95833
2170.013	911.95833
2172.634	903.95833
2175.254	892.625
2177.872	925.29167
2180.488	868.29167
2183.102	878.95833
2185.714	863.625
2188.325	847.95833
2190.934	840.95833
2193.541	839.625
2196.146	816.29167
2198.75	807.625
2201.351	792.29167
2203.951	784.29167
2206.549	798.95833
2209.146	765.95833
2211.74	775.29167
2214.333	788.29167
2216.924	755.29167
2219.514	767.625
2222.101	735.95833
2224.687	753.625
2227.271	745.625
2229.853	736.625
2232.433	727.29167
2235.012	741.95833
2237.589	750.95833
2240.164	740.625
2242.738	739.625
2245.309	721.625
2247.879	722.95833
2250.448	723.625
2253.014	698.95833
2255.579	682.625
2258.142	697.29167
2260.703	670.95833
2263.262	661.95833
2265.82	661.29167
2268.376	677.625
2270.93	651.29167
2273.483	665.95833
2276.033	657.29167
2278.583	652.29167
2281.13	654.29167
2283.675	637.625
2286.219	649.95833
2288.761	645.29167
2291.302	643.95833
2293.841	647.625
2296.377	625.95833
2298.913	624.95833
2301.446	643.29167
2303.978	626.29167
2306.508	621.625
2309.037	621.95833
2311.563	639.625
2314.088	634.625
2316.612	602.625
2319.133	622.29167
2321.653	609.29167
2324.171	610.625
2326.688	616.29167
2329.202	606.95833
2331.715	617.625
2334.227	608.29167
2336.736	601.625
2339.244	606.95833
2341.751	588.29167
2344.255	608.29167
2346.758	585.95833
2349.259	592.95833
2351.759	593.29167
2354.257	586.625
2356.753	578.29167
2359.247	588.95833
2361.74	583.625
2364.231	590.29167
2366.721	588.29167
2369.209	578.29167
2371.695	576.29167
2374.179	573.95833
2376.662	573.625
2379.143	594.29167
2381.622	573.29167
2384.1	576.95833
2386.576	572.29167
2389.051	583.625
2391.524	591.95833
2393.995	587.29167
2396.464	568.29167
2398.932	572.29167
2401.398	564.95833
2403.863	564.29167
2406.325	554.29167
2408.787	558.95833
2411.246	563.95833
2413.704	553.29167
2416.16	541.95833
2418.615	557.29167
2421.068	561.95833
2423.519	562.95833
2425.969	548.29167
2428.417	554.625
2430.863	561.625
2433.308	566.29167
2435.751	555.95833
2438.193	550.29167
2440.633	572.625
2443.071	552.29167
2445.508	543.29167
2447.943	539.95833
2450.376	532.29167
2452.808	540.29167
2455.238	536.625
2457.667	562.95833
2460.093	537.29167
2462.519	529.625
2464.942	530.29167
2467.365	543.95833
2469.785	541.625
2472.204	537.625
2474.621	525.29167
2477.037	554.29167
2479.451	520.29167
2481.863	524.625
2484.274	513.625
2486.683	525.625
2489.091	534.95833
2491.497	526.95833
2493.901	521.625
2496.304	522.95833
2498.705	530.29167
2501.105	522.29167
2503.503	546.625
2505.899	519.625
2508.294	535.29167
2510.687	520.29167
2513.079	512.625
2515.469	513.29167
2517.858	516.29167
2520.245	525.625
2522.63	510.95833
2525.014	508.29167
2527.396	497.29167
2529.776	507.95833
2532.156	512.29167
2534.533	491.95833
2536.909	499.625
2539.283	489.95833
2541.656	493.625
2544.027	512.625
2546.397	515.29167
2548.765	514.95833
2551.131	504.625
2553.496	501.29167
2555.86	518.29167
2558.221	498.625
2560.582	502.29167
2562.94	483.95833
2565.298	496.625
2567.653	525.95833
2570.007	491.95833
2572.36	507.29167
2574.711	494.625
2577.06	522.625
2579.408	497.625
2581.754	493.625
2584.099	494.625
2586.442	499.95833
2588.784	504.625
2591.124	494.29167
2593.463	492.95833
2595.8	493.95833
2598.135	477.95833
2600.469	493.625
2602.802	502.95833
2605.133	491.95833
2607.462	483.625
2609.79	480.95833
2612.116	494.625
2614.441	499.95833
2616.764	497.29167
2619.086	489.29167
2621.406	487.29167
2623.725	500.625
2626.042	493.29167
2628.358	484.625
2630.672	489.625
2632.985	502.625
2635.296	490.29167
2637.606	491.625
2639.914	490.95833
2642.22	494.625
2644.525	483.625
2646.829	501.625
2649.131	505.625
2651.432	503.95833
2653.731	489.29167
2656.028	501.95833
2658.324	493.95833
2660.619	493.625
2662.912	503.29167
2665.204	485.625
2667.494	508.29167
2669.782	486.95833
2672.07	492.625
2674.355	514.29167
2676.639	498.29167
2678.922	492.29167
2681.203	513.625
2683.483	492.95833
2685.761	496.29167
2688.038	497.95833
2690.313	514.95833
2692.587	505.625
2694.859	493.625
2697.13	496.625
2699.399	507.29167
2701.667	523.625
2703.933	519.95833
2706.198	525.29167
2708.461	533.625
2710.723	528.95833
2712.984	525.625
2715.243	547.29167
2717.5	531.29167
2719.757	546.625
2722.011	544.95833
2724.264	548.29167
2726.516	563.29167
2728.766	541.29167
2731.015	540.625
2733.262	544.29167
2735.508	545.625
2737.753	535.625
2739.996	527.95833
2742.237	521.95833
2744.477	534.625
2746.716	541.29167
2748.953	524.29167
2751.189	528.95833
2753.423	517.29167
2755.656	504.625
2757.887	500.29167
2760.117	519.625
2762.346	494.95833
2764.573	505.95833
2766.798	491.625
2769.022	502.625
2771.245	507.29167
2773.467	508.29167
2775.686	504.625
2777.905	514.625
2780.122	521.95833
2782.337	524.29167
2784.552	514.95833
2786.764	536.625
2788.976	531.95833
2791.186	527.29167
2793.394	542.95833
2795.601	544.95833
2797.807	551.625
2800.011	551.29167
2802.214	563.95833
2804.415	565.95833
2806.615	560.29167
2808.814	573.95833
2811.011	582.625
2813.206	585.29167
2815.401	601.29167
2817.594	608.29167
2819.785	617.29167
2821.975	608.95833
2824.164	626.95833
2826.351	640.29167
2828.537	660.625
2830.722	683.29167
2832.905	700.625
2835.086	731.625
2837.267	775.29167
2839.445	795.625
2841.623	822.95833
2843.799	880.625
2845.974	918.625
2848.147	969.625
2850.319	984.95833
2852.489	1029.625
2854.659	1034.625
2856.826	1070.29167
2858.993	1080.625
2861.158	1090.625
2863.321	1083.625
2865.483	1102.95833
2867.644	1114.625
2869.804	1098.625
2871.962	1107.29167
2874.118	1129.29167
2876.274	1140.625
2878.428	1141.29167
2880.58	1107.29167
2882.731	1104.625
2884.881	1089.625
2887.03	1096.95833
2889.177	1099.625
2891.322	1122.625
2893.467	1109.95833
2895.61	1106.95833
2897.751	1154.625
2899.892	1140.625
2902.03	1142.95833
2904.168	1161.625
2906.304	1162.95833
2908.439	1180.625
2910.572	1161.95833
2912.704	1171.95833
2914.835	1190.29167
2916.965	1195.95833
2919.093	1206.95833
2921.219	1168.95833
2923.345	1199.29167
2925.469	1154.95833
2927.591	1160.95833
2929.712	1120.95833
2931.832	1098.95833
2933.951	1100.29167
2936.068	1059.29167
2938.184	1035.29167
2940.299	994.29167
2942.412	967.29167
2944.524	922.625
2946.634	899.29167
2948.744	836.95833
2950.851	858.29167
2952.958	801.29167
2955.063	798.95833
2957.167	773.625
2959.269	741.29167
2961.371	750.625
2963.471	704.29167
2965.569	714.625
2967.666	669.29167
2969.762	658.29167
2971.857	638.29167
2973.95	610.29167
2976.042	613.95833
2978.133	595.625
2980.222	583.625
2982.31	549.625
2984.396	551.29167
2986.482	538.29167
2988.566	538.29167
2990.648	527.95833
2992.73	517.29167
2994.81	507.625
2996.889	505.95833
2998.966	494.95833
3001.042	507.625
3003.117	504.95833
3005.191	495.625
3007.263	486.625
3009.334	474.29167
3011.403	479.29167
3013.472	451.95833
3015.539	451.29167
3017.604	464.625
3019.669	424.95833
3021.732	432.95833
3023.794	438.29167
3025.854	421.625
3027.914	418.625
3029.971	427.625
3032.028	425.95833
3034.083	421.625
3036.137	412.625
3038.19	393.95833
3040.242	392.29167
3042.292	375.29167
3044.341	375.29167
3046.388	392.29167
3048.435	363.95833
3050.48	382.95833
3052.524	371.29167
3054.566	349.29167
3056.607	368.29167
3058.647	359.29167
3060.686	342.95833
3062.723	323.29167
3064.759	313.95833
3066.794	0.95833
3068.828	-0.04167
3070.86	-2.04167
