-0.839	460.83333
3.438	506.16667
7.711	146.16667
11.981	58.5
16.247	47.16667
20.509	46.16667
24.768	51.16667
29.024	48.16667
33.276	49.83333
37.524	50.83333
41.769	44.5
46.01	39.16667
50.247	55.5
54.481	67.83333
58.712	67.5
62.939	51.83333
67.162	65.5
71.382	61.5
75.599	51.5
79.812	69.83333
84.021	86.16667
88.227	59.5
92.429	73.16667
96.628	58.16667
100.823	75.5
105.015	81.5
109.204	81.16667
113.388	85.5
117.57	82.16667
121.748	103.83333
125.922	96.16667
130.093	108.5
134.261	123.83333
138.425	117.16667
142.585	163.83333
146.742	166.5
150.896	197.16667
155.046	257.83333
159.193	403.83333
163.336	707.5
167.476	1293.83333
171.613	2377.16667
175.746	3935.83333
179.875	5827.16667
184.002	7539.16667
188.124	8672.83333
192.244	9036.16667
196.36	8972.16667
200.472	8737.5
204.581	8576.5
208.687	8363.5
212.79	8316.16667
216.889	8339.5
220.984	8455.83333
225.077	8557.83333
229.165	8677.5
233.251	8807.16667
237.333	8899.16667
241.412	8948.5
245.487	8906.16667
249.559	8814.16667
253.628	8704.5
257.694	8587.83333
261.756	8488.16667
265.814	8298.5
269.87	8005.83333
273.922	7690.16667
277.97	7359.5
282.016	7074.5
286.058	6867.83333
290.097	6760.83333
294.132	6650.5
298.164	6519.5
302.193	6253.16667
306.219	5833.5
310.241	5308.5
314.26	4836.5
318.276	4442.5
322.288	4194.16667
326.297	3956.16667
330.303	3778.16667
334.305	3676.5
338.305	3608.83333
342.301	3533.83333
346.294	3518.5
350.283	3469.83333
354.269	3442.16667
358.252	3429.83333
362.232	3414.83333
366.209	3394.5
370.182	3378.5
374.152	3358.16667
378.119	3340.5
382.083	3348.5
386.043	3354.5
390	3289.83333
393.954	3295.5
397.905	3227.83333
401.852	3216.5
405.797	3188.83333
409.738	3127.83333
413.676	3100.5
417.61	3071.83333
421.542	3023.5
425.47	3012.5
429.396	2959.16667
433.318	2942.83333
437.236	2939.5
441.152	2928.5
445.065	2856.83333
448.974	2862.5
452.88	2821.16667
456.783	2827.5
460.683	2806.16667
464.58	2782.16667
468.473	2804.83333
472.364	2801.16667
476.251	2801.16667
480.135	2836.83333
484.016	2854.83333
487.894	2862.16667
491.769	2892.5
495.641	2868.5
499.509	2876.16667
503.375	2863.83333
507.237	2837.5
511.096	2837.5
514.952	2854.83333
518.805	2839.5
522.655	2844.5
526.502	2803.5
530.346	2831.5
534.187	2844.16667
538.024	2812.83333
541.859	2823.16667
545.69	2859.5
549.519	2839.5
553.344	2809.83333
557.166	2774.16667
560.985	2765.5
564.802	2719.16667
568.615	2698.83333
572.425	2659.16667
576.232	2650.5
580.036	2641.16667
583.836	2638.16667
587.634	2644.83333
591.429	2664.5
595.221	2696.16667
599.01	2706.83333
602.796	2751.16667
606.578	2790.16667
610.358	2786.16667
614.135	2775.16667
617.909	2764.83333
621.679	2763.83333
625.447	2730.5
629.212	2744.5
632.973	2739.5
636.732	2717.83333
640.488	2725.83333
644.241	2707.5
647.991	2713.16667
651.737	2716.16667
655.481	2716.16667
659.222	2710.5
662.96	2716.16667
666.695	2734.83333
670.427	2755.16667
674.156	2726.83333
677.882	2745.5
681.605	2711.83333
685.325	2682.5
689.043	2685.83333
692.757	2688.16667
696.468	2690.83333
700.177	2731.16667
703.882	2703.5
707.585	2686.83333
711.284	2700.16667
714.981	2682.83333
718.675	2691.83333
722.366	2697.83333
726.054	2684.83333
729.739	2675.16667
733.421	2708.5
737.1	2690.5
740.777	2701.16667
744.45	2721.83333
748.121	2758.16667
751.789	2811.5
755.453	2796.5
759.115	2835.83333
762.774	2849.5
766.431	2874.83333
770.084	2900.83333
773.734	2939.5
777.382	2982.5
781.027	3019.83333
784.669	3033.5
788.308	3036.83333
791.944	3055.16667
795.577	3077.16667
799.208	3111.5
802.835	3154.83333
806.46	3174.83333
810.082	3206.16667
813.701	3232.83333
817.317	3276.16667
820.931	3257.83333
824.542	3250.16667
828.149	3215.5
831.754	3192.16667
835.357	3181.83333
838.956	3157.5
842.553	3128.16667
846.146	3123.83333
849.737	3088.16667
853.326	3131.5
856.911	3100.83333
860.493	3170.83333
864.073	3195.83333
867.65	3239.16667
871.225	3287.16667
874.796	3292.16667
878.365	3290.16667
881.931	3310.16667
885.494	3345.83333
889.054	3363.16667
892.612	3341.83333
896.166	3306.5
899.719	3281.83333
903.268	3254.16667
906.814	3242.83333
910.358	3233.16667
913.899	3229.16667
917.438	3224.83333
920.973	3214.83333
924.506	3240.16667
928.036	3288.5
931.564	3321.5
935.088	3348.5
938.61	3363.83333
942.129	3383.83333
945.646	3438.83333
949.16	3531.16667
952.671	3644.83333
956.179	3664.5
959.685	3663.83333
963.188	3656.83333
966.688	3601.16667
970.185	3482.16667
973.68	3435.5
977.173	3401.16667
980.662	3382.5
984.149	3398.16667
987.633	3405.83333
991.114	3462.5
994.593	3554.5
998.069	3680.83333
1001.542	3813.16667
1005.013	3708.83333
1008.481	3487.16667
1011.947	3442.5
1015.409	3437.16667
1018.869	3428.83333
1022.327	3412.5
1025.782	3400.5
1029.234	3386.16667
1032.683	3371.16667
1036.13	3264.83333
1039.574	3144.5
1043.016	3045.16667
1046.455	2984.83333
1049.891	2961.83333
1053.325	2933.83333
1056.756	2911.83333
1060.184	2950.5
1063.61	2974.5
1067.033	2969.83333
1070.454	2974.5
1073.872	3023.5
1077.287	3032.5
1080.7	3000.5
1084.11	3014.16667
1087.517	3006.83333
1090.922	2959.5
1094.325	2939.16667
1097.724	2896.16667
1101.122	2898.16667
1104.516	2881.16667
1107.908	2909.83333
1111.298	2965.16667
1114.684	2980.16667
1118.069	3015.5
1121.45	3054.5
1124.83	3026.16667
1128.206	3083.83333
1131.58	3116.16667
1134.951	3167.83333
1138.32	3252.83333
1141.687	3400.16667
1145.05	3512.83333
1148.412	3560.83333
1151.77	3534.16667
1155.126	3531.16667
1158.48	3538.5
1161.831	3559.83333
1165.18	3595.16667
1168.525	3641.83333
1171.869	3680.16667
1175.21	3726.5
1178.548	3758.5
1181.884	3829.83333
1185.217	3872.5
1188.548	3926.16667
1191.877	3948.83333
1195.202	4040.83333
1198.526	4082.5
1201.846	4109.16667
1205.165	4095.5
1208.48	4057.83333
1211.794	4060.5
1215.104	4044.83333
1218.413	4065.83333
1221.719	4033.5
1225.022	3997.83333
1228.323	3955.5
1231.621	3970.83333
1234.917	3943.16667
1238.21	3968.83333
1241.501	3941.5
1244.79	3936.5
1248.076	3921.83333
1251.359	3970.16667
1254.64	4054.5
1257.919	4058.5
1261.195	4121.16667
1264.468	4181.83333
1267.74	4277.5
1271.008	4272.16667
1274.275	4282.16667
1277.538	4210.5
1280.8	4199.16667
1284.059	4195.83333
1287.315	4235.16667
1290.569	4245.5
1293.821	4272.83333
1297.07	4330.16667
1300.317	4303.16667
1303.562	4316.5
1306.803	4276.83333
1310.043	4260.83333
1313.28	4196.5
1316.515	4160.5
1319.747	4132.5
1322.977	4067.5
1326.204	4002.83333
1329.429	3948.5
1332.652	3924.83333
1335.872	3921.83333
1339.09	3917.5
1342.306	3898.5
1345.519	3879.83333
1348.729	3868.16667
1351.938	3818.16667
1355.144	3766.5
1358.347	3712.16667
1361.548	3717.16667
1364.747	3700.5
1367.944	3678.83333
1371.138	3722.83333
1374.329	3705.16667
1377.518	3761.83333
1380.705	3736.5
1383.89	3786.5
1387.072	3652.16667
1390.252	3540.83333
1393.429	3410.16667
1396.605	3311.83333
1399.777	3241.16667
1402.948	3193.83333
1406.116	3171.16667
1409.282	3172.83333
1412.445	3192.83333
1415.606	3212.16667
1418.765	3249.5
1421.921	3314.16667
1425.075	3389.83333
1428.227	3494.16667
1431.376	3662.5
1434.524	3786.5
1437.668	3892.5
1440.811	3931.83333
1443.951	3981.16667
1447.089	3968.5
1450.224	3978.16667
1453.357	3942.83333
1456.488	3932.5
1459.617	3838.5
1462.743	3804.83333
1465.867	3721.5
1468.989	3706.83333
1472.108	3620.16667
1475.225	3563.83333
1478.34	3539.16667
1481.453	3559.5
1484.563	3543.83333
1487.671	3614.5
1490.776	3672.83333
1493.88	3740.5
1496.981	3817.83333
1500.08	3884.16667
1503.176	3958.16667
1506.271	4015.16667
1509.363	4053.83333
1512.452	4175.83333
1515.54	4185.83333
1518.625	4313.83333
1521.708	4483.5
1524.789	4752.83333
1527.867	5013.16667
1530.944	5347.5
1534.018	5567.5
1537.089	5637.83333
1540.159	5568.83333
1543.226	5382.16667
1546.291	5170.5
1549.354	5003.5
1552.415	4892.83333
1555.473	4760.83333
1558.529	4652.83333
1561.583	4640.5
1564.634	4583.83333
1567.684	4601.5
1570.731	4662.5
1573.776	4705.16667
1576.819	4754.83333
1579.859	4783.83333
1582.898	4874.83333
1585.934	4914.16667
1588.968	4916.5
1591.999	4893.16667
1595.029	4913.83333
1598.056	4924.83333
1601.081	4938.16667
1604.104	4927.16667
1607.125	4883.83333
1610.144	4756.5
1613.16	4653.83333
1616.174	4529.5
1619.186	4422.5
1622.196	4372.5
1625.203	4255.83333
1628.209	4191.5
1631.212	4155.5
1634.213	4132.83333
1637.212	4073.83333
1640.209	4038.16667
1643.203	3929.5
1646.196	3824.16667
1649.186	3658.83333
1652.174	3539.5
1655.16	3405.16667
1658.144	3319.16667
1661.125	3182.16667
1664.105	3013.16667
1667.082	2857.5
1670.057	2723.83333
1673.03	2549.83333
1676.001	2381.5
1678.97	2235.83333
1681.937	2095.5
1684.901	1967.83333
1687.863	1919.83333
1690.824	1850.5
1693.782	1808.83333
1696.738	1752.5
1699.692	1702.83333
1702.643	1675.5
1705.593	1660.83333
1708.54	1617.83333
1711.486	1621.16667
1714.429	1572.16667
1717.37	1562.83333
1720.309	1547.5
1723.246	1524.16667
1726.181	1507.16667
1729.113	1525.16667
1732.044	1487.16667
1734.972	1471.5
1737.899	1466.16667
1740.823	1455.83333
1743.745	1417.83333
1746.665	1397.5
1749.583	1369.83333
1752.499	1367.5
1755.413	1340.16667
1758.325	1318.5
1761.235	1331.16667
1764.142	1276.83333
1767.048	1269.16667
1769.951	1276.83333
1772.852	1258.5
1775.752	1243.5
1778.649	1241.16667
1781.544	1243.16667
1784.437	1223.5
1787.328	1221.83333
1790.217	1212.16667
1793.104	1188.5
1795.989	1189.16667
1798.872	1191.16667
1801.753	1199.16667
1804.631	1197.16667
1807.508	1210.16667
1810.383	1203.16667
1813.255	1162.5
1816.126	1178.5
1818.994	1163.83333
1821.861	1174.16667
1824.725	1174.16667
1827.587	1146.16667
1830.448	1152.83333
1833.306	1109.83333
1836.162	1145.5
1839.017	1120.5
1841.869	1120.16667
1844.719	1126.83333
1847.567	1095.5
1850.414	1099.83333
1853.258	1089.16667
1856.1	1109.16667
1858.94	1116.5
1861.778	1110.16667
1864.614	1084.5
1867.448	1102.16667
1870.28	1082.16667
1873.111	1103.83333
1875.939	1103.5
1878.765	1097.5
1881.589	1082.16667
1884.411	1070.83333
1887.231	1085.83333
1890.049	1085.16667
1892.865	1090.5
1895.68	1067.83333
1898.492	1058.5
1901.302	1053.83333
1904.11	1040.16667
1906.916	1034.5
1909.721	1040.16667
1912.523	1053.83333
1915.323	1034.16667
1918.122	1028.16667
1920.918	1033.5
1923.712	1024.16667
1926.505	1015.5
1929.295	1005.5
1932.084	1025.5
1934.87	1024.5
1937.655	1017.83333
1940.438	1025.16667
1943.218	1011.16667
1945.997	1005.16667
1948.774	1030.5
1951.549	1014.83333
1954.322	997.16667
1957.093	1018.16667
1959.862	996.16667
1962.629	992.5
1965.394	997.5
1968.157	989.5
1970.918	992.5
1973.678	975.83333
1976.435	984.83333
1979.19	973.5
1981.944	965.16667
1984.696	980.16667
1987.445	966.83333
1990.193	968.83333
1992.939	977.83333
1995.683	956.16667
1998.425	939.5
2001.165	959.83333
2003.903	947.5
2006.639	957.83333
2009.374	950.5
2012.106	959.83333
2014.837	920.5
2017.566	946.5
2020.292	960.16667
2023.017	949.16667
2025.74	936.83333
2028.461	936.83333
2031.18	939.5
2033.898	926.5
2036.613	939.83333
2039.327	951.16667
2042.038	910.83333
2044.748	927.5
2047.456	907.83333
2050.162	912.5
2052.866	913.16667
2055.568	913.83333
2058.268	909.16667
2060.967	920.5
2063.663	892.5
2066.358	895.16667
2069.051	908.16667
2071.742	909.5
2074.431	904.83333
2077.118	897.83333
2079.804	888.16667
2082.487	895.83333
2085.169	921.5
2087.849	916.5
2090.527	904.5
2093.203	916.5
2095.877	926.16667
2098.55	916.16667
2101.22	938.83333
2103.889	940.83333
2106.556	947.83333
2109.221	962.16667
2111.884	984.5
2114.546	1044.5
2117.205	1098.83333
2119.863	1165.5
2122.519	1247.5
2125.173	1355.83333
2127.825	1456.5
2130.475	1499.5
2133.124	1474.83333
2135.771	1452.83333
2138.416	1401.83333
2141.059	1317.83333
2143.7	1262.5
2146.339	1182.83333
2148.977	1129.16667
2151.613	1099.16667
2154.247	1068.5
2156.879	1050.16667
2159.51	1041.83333
2162.138	1030.5
2164.765	1021.83333
2167.39	1001.16667
2170.013	1031.83333
2172.634	1029.16667
2175.254	1026.16667
2177.872	1054.5
2180.488	1003.16667
2183.102	999.83333
2185.714	972.5
2188.325	956.83333
2190.934	961.5
2193.541	936.16667
2196.146	924.83333
2198.75	883.5
2201.351	876.5
2203.951	868.16667
2206.549	862.5
2209.146	851.16667
2211.74	843.16667
2214.333	847.83333
2216.924	818.16667
2219.514	818.83333
2222.101	809.5
2224.687	824.5
2227.271	788.83333
2229.853	789.16667
2232.433	792.5
2235.012	793.83333
2237.589	812.5
2240.164	805.5
2242.738	796.5
2245.309	779.16667
2247.879	775.5
2250.448	778.83333
2253.014	749.5
2255.579	735.16667
2258.142	736.16667
2260.703	714.16667
2263.262	737.83333
2265.82	721.83333
2268.376	725.83333
2270.93	712.5
2273.483	701.5
2276.033	698.83333
2278.583	698.16667
2281.13	700.83333
2283.675	689.83333
2286.219	691.5
2288.761	690.16667
2291.302	691.83333
2293.841	689.83333
2296.377	660.83333
2298.913	667.83333
2301.446	679.16667
2303.978	675.16667
2306.508	661.83333
2309.037	670.5
2311.563	663.5
2314.088	682.16667
2316.612	646.83333
2319.133	676.83333
2321.653	661.83333
2324.171	651.16667
2326.688	656.5
2329.202	653.83333
2331.715	653.16667
2334.227	637.83333
2336.736	634.5
2339.244	636.16667
2341.751	628.83333
2344.255	636.83333
2346.758	625.83333
2349.259	626.16667
2351.759	627.83333
2354.257	622.16667
2356.753	615.16667
2359.247	624.83333
2361.74	622.16667
2364.231	618.83333
2366.721	621.83333
2369.209	612.5
2371.695	616.5
2374.179	601.5
2376.662	609.16667
2379.143	616.83333
2381.622	600.16667
2384.1	615.16667
2386.576	606.5
2389.051	619.16667
2391.524	626.5
2393.995	614.5
2396.464	601.16667
2398.932	594.83333
2401.398	599.16667
2403.863	589.5
2406.325	590.16667
2408.787	590.5
2411.246	582.5
2413.704	580.16667
2416.16	571.83333
2418.615	592.5
2421.068	591.16667
2423.519	589.5
2425.969	570.5
2428.417	588.83333
2430.863	600.5
2433.308	588.83333
2435.751	585.83333
2438.193	580.16667
2440.633	582.83333
2443.071	575.16667
2445.508	564.5
2447.943	567.5
2450.376	562.83333
2452.808	566.16667
2455.238	560.16667
2457.667	578.83333
2460.093	565.83333
2462.519	552.16667
2464.942	556.16667
2467.365	561.5
2469.785	555.83333
2472.204	559.16667
2474.621	550.16667
2477.037	569.5
2479.451	544.5
2481.863	545.5
2484.274	546.83333
2486.683	532.16667
2489.091	548.16667
2491.497	549.16667
2493.901	542.83333
2496.304	539.83333
2498.705	552.16667
2501.105	533.16667
2503.503	551.16667
2505.899	527.5
2508.294	552.83333
2510.687	525.16667
2513.079	519.83333
2515.469	522.83333
2517.858	527.5
2520.245	548.5
2522.63	526.5
2525.014	529.16667
2527.396	518.16667
2529.776	520.83333
2532.156	528.5
2534.533	502.83333
2536.909	525.5
2539.283	500.5
2541.656	520.83333
2544.027	537.5
2546.397	510.5
2548.765	522.5
2551.131	513.16667
2553.496	511.16667
2555.86	517.83333
2558.221	513.5
2560.582	513.16667
2562.94	499.83333
2565.298	506.83333
2567.653	534.16667
2570.007	488.16667
2572.36	503.16667
2574.711	507.16667
2577.06	524.83333
2579.408	506.83333
2581.754	500.16667
2584.099	500.83333
2586.442	496.83333
2588.784	501.83333
2591.124	501.16667
2593.463	495.83333
2595.8	491.83333
2598.135	482.83333
2600.469	484.16667
2602.802	507.83333
2605.133	502.16667
2607.462	485.16667
2609.79	489.16667
2612.116	494.16667
2614.441	493.83333
2616.764	493.5
2619.086	494.83333
2621.406	487.83333
2623.725	496.5
2626.042	489.5
2628.358	485.83333
2630.672	485.16667
2632.985	496.5
2635.296	488.5
2637.606	493.16667
2639.914	476.83333
2642.22	477.83333
2644.525	486.5
2646.829	494.5
2649.131	504.16667
2651.432	501.5
2653.731	493.83333
2656.028	504.83333
2658.324	495.16667
2660.619	492.5
2662.912	502.5
2665.204	484.83333
2667.494	507.16667
2669.782	486.16667
2672.07	492.83333
2674.355	506.5
2676.639	489.16667
2678.922	490.83333
2681.203	496.83333
2683.483	481.5
2685.761	478.16667
2688.038	503.16667
2690.313	510.5
2692.587	488.83333
2694.859	486.5
2697.13	505.5
2699.399	494.16667
2701.667	513.83333
2703.933	510.83333
2706.198	511.16667
2708.461	517.83333
2710.723	522.5
2712.984	511.16667
2715.243	528.16667
2717.5	514.5
2719.757	538.16667
2722.011	526.83333
2724.264	527.83333
2726.516	549.16667
2728.766	526.5
2731.015	531.83333
2733.262	534.83333
2735.508	527.83333
2737.753	524.83333
2739.996	491.16667
2742.237	498.5
2744.477	520.16667
2746.716	516.5
2748.953	512.5
2751.189	521.5
2753.423	485.16667
2755.656	493.16667
2757.887	498.83333
2760.117	503.83333
2762.346	490.5
2764.573	485.5
2766.798	491.5
2769.022	492.16667
2771.245	494.16667
2773.467	478.5
2775.686	496.83333
2777.905	500.83333
2780.122	508.16667
2782.337	508.16667
2784.552	499.83333
2786.764	502.5
2788.976	503.16667
2791.186	519.5
2793.394	514.16667
2795.601	530.5
2797.807	537.83333
2800.011	535.5
2802.214	549.5
2804.415	543.83333
2806.615	551.16667
2808.814	561.5
2811.011	566.16667
2813.206	564.16667
2815.401	580.83333
2817.594	594.83333
2819.785	604.5
2821.975	588.83333
2824.164	610.5
2826.351	624.83333
2828.537	653.16667
2830.722	664.16667
2832.905	676.16667
2835.086	718.83333
2837.267	745.16667
2839.445	773.5
2841.623	803.83333
2843.799	833.83333
2845.974	877.5
2848.147	913.16667
2850.319	948.5
2852.489	981.16667
2854.659	989.83333
2856.826	1016.16667
2858.993	1038.83333
2861.158	1043.83333
2863.321	1019.16667
2865.483	1052.5
2867.644	1052.16667
2869.804	1054.16667
2871.962	1043.83333
2874.118	1045.5
2876.274	1037.16667
2878.428	1027.5
2880.58	1032.16667
2882.731	1035.5
2884.881	1027.83333
2887.03	1041.16667
2889.177	1038.83333
2891.322	1062.16667
2893.467	1055.16667
2895.61	1067.83333
2897.751	1081.16667
2899.892	1070.16667
2902.03	1074.16667
2904.168	1083.5
2906.304	1080.83333
2908.439	1117.5
2910.572	1096.83333
2912.704	1115.5
2914.835	1116.16667
2916.965	1117.83333
2919.093	1141.16667
2921.219	1090.83333
2923.345	1111.5
2925.469	1072.83333
2927.591	1073.83333
2929.712	1032.16667
2931.832	1028.16667
2933.951	997.5
2936.068	969.5
2938.184	936.16667
2940.299	921.16667
2942.412	898.5
2944.524	858.5
2946.634	841.5
2948.744	781.5
2950.851	791.5
2952.958	741.5
2955.063	729.5
2957.167	708.83333
2959.269	679.83333
2961.371	693.83333
2963.471	644.83333
2965.569	647.16667
2967.666	615.5
2969.762	602.5
2971.857	579.5
2973.95	564.83333
2976.042	555.16667
2978.133	539.16667
2980.222	517.16667
2982.31	503.5
2984.396	488.16667
2986.482	472.5
2988.566	479.16667
2990.648	466.16667
2992.73	467.83333
2994.81	448.16667
2996.889	458.83333
2998.966	434.83333
3001.042	437.83333
3003.117	428.16667
3005.191	421.5
3007.263	429.83333
3009.334	422.16667
3011.403	412.16667
3013.472	400.5
3015.539	401.83333
3017.604	403.16667
3019.669	365.16667
3021.732	372.16667
3023.794	380.16667
3025.854	352.16667
3027.914	357.16667
3029.971	369.83333
3032.028	360.16667
3034.083	358.16667
3036.137	348.83333
3038.19	347.83333
3040.242	327.5
3042.292	321.5
3044.341	324.16667
3046.388	332.16667
3048.435	299.83333
3050.48	330.16667
3052.524	322.83333
3054.566	299.83333
3056.607	309.5
3058.647	302.16667
3060.686	291.83333
3062.723	287.16667
3064.759	273.5
3066.794	0.83333
3068.828	-0.5
3070.86	-1.83333
