-0.839	480.25
3.438	518.91667
7.711	140.91667
11.981	57.25
16.247	49.25
20.509	47.25
24.768	44.58333
29.024	48.91667
33.276	43.25
37.524	48.91667
41.769	42.58333
46.01	37.58333
50.247	55.91667
54.481	62.91667
58.712	67.25
62.939	52.91667
67.162	63.58333
71.382	61.25
75.599	52.58333
79.812	72.25
84.021	84.58333
88.227	67.91667
92.429	68.58333
96.628	54.58333
100.823	71.58333
105.015	79.58333
109.204	82.58333
113.388	84.58333
117.57	79.91667
121.748	98.58333
125.922	86.91667
130.093	105.25
134.261	112.91667
138.425	113.58333
142.585	154.58333
146.742	152.58333
150.896	188.91667
155.046	230.58333
159.193	372.91667
163.336	648.58333
167.476	1192.25
171.613	2185.58333
175.746	3629.25
179.875	5381.25
184.002	6972.58333
188.124	8111.25
192.244	8450.25
196.36	8347.91667
200.472	8237.91667
204.581	8055.58333
208.687	7893.25
212.79	7899.58333
216.889	7892.58333
220.984	8015.91667
225.077	8136.25
229.165	8296.25
233.251	8398.91667
237.333	8501.91667
241.412	8536.58333
245.487	8577.91667
249.559	8481.25
253.628	8432.25
257.694	8320.25
261.756	8213.91667
265.814	8071.25
269.87	7813.91667
273.922	7471.58333
277.97	7199.25
282.016	6902.91667
286.058	6693.58333
290.097	6580.91667
294.132	6477.91667
298.164	6370.25
302.193	6105.58333
306.219	5709.58333
310.241	5180.25
314.26	4717.58333
318.276	4315.25
322.288	4030.25
326.297	3803.25
330.303	3648.25
334.305	3525.91667
338.305	3447.25
342.301	3401.58333
346.294	3355.58333
350.283	3345.25
354.269	3309.25
358.252	3295.58333
362.232	3281.25
366.209	3264.25
370.182	3205.91667
374.152	3197.25
378.119	3212.91667
382.083	3180.25
386.043	3233.58333
390	3183.58333
393.954	3136.25
397.905	3120.58333
401.852	3095.58333
405.797	3042.58333
409.738	2999.25
413.676	2981.25
417.61	2944.25
421.542	2903.91667
425.47	2874.25
429.396	2855.58333
433.318	2809.91667
437.236	2791.91667
441.152	2825.25
445.065	2741.25
448.974	2754.58333
452.88	2714.25
456.783	2704.91667
460.683	2675.25
464.58	2700.25
468.473	2691.58333
472.364	2699.58333
476.251	2705.91667
480.135	2721.25
484.016	2723.25
487.894	2727.58333
491.769	2740.25
495.641	2736.25
499.509	2765.91667
503.375	2773.58333
507.237	2745.25
511.096	2748.91667
514.952	2770.25
518.805	2774.58333
522.655	2773.91667
526.502	2749.58333
530.346	2713.25
534.187	2722.25
538.024	2731.58333
541.859	2734.91667
545.69	2736.91667
549.519	2742.58333
553.344	2753.58333
557.166	2687.58333
560.985	2654.58333
564.802	2632.91667
568.615	2582.58333
572.425	2565.91667
576.232	2537.58333
580.036	2550.91667
583.836	2551.91667
587.634	2544.91667
591.429	2535.91667
595.221	2580.91667
599.01	2623.91667
602.796	2635.91667
606.578	2673.91667
610.358	2654.25
614.135	2661.91667
617.909	2658.58333
621.679	2624.58333
625.447	2644.58333
629.212	2644.58333
632.973	2636.91667
636.732	2612.25
640.488	2641.25
644.241	2596.25
647.991	2588.58333
651.737	2614.58333
655.481	2600.25
659.222	2635.91667
662.96	2601.58333
666.695	2617.58333
670.427	2620.91667
674.156	2650.58333
677.882	2624.91667
681.605	2593.91667
685.325	2595.25
689.043	2608.91667
692.757	2581.25
696.468	2613.25
700.177	2617.58333
703.882	2602.58333
707.585	2589.25
711.284	2562.25
714.981	2592.91667
718.675	2592.58333
722.366	2614.58333
726.054	2578.58333
729.739	2565.58333
733.421	2584.91667
737.1	2587.91667
740.777	2613.25
744.45	2642.91667
748.121	2636.58333
751.789	2697.25
755.453	2688.25
759.115	2726.91667
762.774	2737.25
766.431	2772.58333
770.084	2801.58333
773.734	2816.58333
777.382	2866.58333
781.027	2909.58333
784.669	2930.58333
788.308	2926.58333
791.944	2952.58333
795.577	2974.58333
799.208	2992.58333
802.835	3034.58333
806.46	3072.25
810.082	3083.25
813.701	3082.91667
817.317	3132.25
820.931	3115.25
824.542	3129.91667
828.149	3100.91667
831.754	3082.91667
835.357	3032.58333
838.956	3039.25
842.553	3003.91667
846.146	3032.25
849.737	3010.91667
853.326	3016.91667
856.911	3026.25
860.493	3062.58333
864.073	3056.91667
867.65	3121.91667
871.225	3169.25
874.796	3133.58333
878.365	3160.58333
881.931	3175.91667
885.494	3200.91667
889.054	3212.25
892.612	3211.25
896.166	3156.58333
899.719	3152.91667
903.268	3117.91667
906.814	3120.91667
910.358	3100.91667
913.899	3066.25
917.438	3064.58333
920.973	3078.25
924.506	3100.91667
928.036	3165.91667
931.564	3190.91667
935.088	3220.25
938.61	3212.58333
942.129	3265.58333
945.646	3312.25
949.16	3409.25
952.671	3500.58333
956.179	3538.91667
959.685	3516.25
963.188	3496.91667
966.688	3457.25
970.185	3398.25
973.68	3295.58333
977.173	3268.58333
980.662	3254.25
984.149	3263.25
987.633	3285.58333
991.114	3363.91667
994.593	3436.58333
998.069	3561.58333
1001.542	3679.58333
1005.013	3605.58333
1008.481	3379.91667
1011.947	3337.58333
1015.409	3331.58333
1018.869	3307.91667
1022.327	3324.58333
1025.782	3285.58333
1029.234	3302.58333
1032.683	3239.25
1036.13	3130.91667
1039.574	3025.25
1043.016	2969.58333
1046.455	2908.25
1049.891	2878.58333
1053.325	2860.91667
1056.756	2875.25
1060.184	2854.91667
1063.61	2895.58333
1067.033	2897.58333
1070.454	2922.25
1073.872	2941.58333
1077.287	2935.91667
1080.7	2948.91667
1084.11	2961.58333
1087.517	2920.25
1090.922	2893.58333
1094.325	2860.91667
1097.724	2835.58333
1101.122	2848.25
1104.516	2827.25
1107.908	2824.91667
1111.298	2875.58333
1114.684	2951.25
1118.069	2953.91667
1121.45	2952.58333
1124.83	2962.25
1128.206	2972.58333
1131.58	3012.58333
1134.951	3104.91667
1138.32	3205.25
1141.687	3330.91667
1145.05	3428.58333
1148.412	3456.25
1151.77	3455.91667
1155.126	3444.58333
1158.48	3440.25
1161.831	3465.25
1165.18	3478.25
1168.525	3542.25
1171.869	3569.25
1175.21	3598.25
1178.548	3652.58333
1181.884	3691.91667
1185.217	3727.25
1188.548	3790.91667
1191.877	3846.58333
1195.202	3936.91667
1198.526	3972.91667
1201.846	3976.25
1205.165	3977.91667
1208.48	3937.25
1211.794	3925.91667
1215.104	3908.91667
1218.413	3916.25
1221.719	3911.91667
1225.022	3880.91667
1228.323	3830.58333
1231.621	3847.91667
1234.917	3803.25
1238.21	3839.91667
1241.501	3850.91667
1244.79	3828.25
1248.076	3819.58333
1251.359	3873.91667
1254.64	3930.58333
1257.919	3926.91667
1261.195	4008.25
1264.468	4079.58333
1267.74	4171.58333
1271.008	4157.58333
1274.275	4133.25
1277.538	4129.25
1280.8	4111.91667
1284.059	4104.25
1287.315	4126.25
1290.569	4168.25
1293.821	4168.25
1297.07	4222.58333
1300.317	4211.25
1303.562	4174.58333
1306.803	4191.91667
1310.043	4162.58333
1313.28	4112.91667
1316.515	4052.25
1319.747	4027.58333
1322.977	3981.58333
1326.204	3934.25
1329.429	3858.91667
1332.652	3836.25
1335.872	3822.91667
1339.09	3808.58333
1342.306	3824.58333
1345.519	3782.58333
1348.729	3758.91667
1351.938	3729.91667
1355.144	3700.91667
1358.347	3623.91667
1361.548	3648.91667
1364.747	3664.91667
1367.944	3611.91667
1371.138	3634.58333
1374.329	3642.91667
1377.518	3707.91667
1380.705	3737.91667
1383.89	3706.25
1387.072	3621.91667
1390.252	3503.25
1393.429	3381.58333
1396.605	3265.58333
1399.777	3184.25
1402.948	3142.91667
1406.116	3117.25
1409.282	3126.58333
1412.445	3123.91667
1415.606	3159.25
1418.765	3201.58333
1421.921	3248.58333
1425.075	3313.25
1428.227	3434.58333
1431.376	3613.91667
1434.524	3736.25
1437.668	3843.91667
1440.811	3903.91667
1443.951	3905.91667
1447.089	3922.91667
1450.224	3902.91667
1453.357	3886.91667
1456.488	3848.91667
1459.617	3796.25
1462.743	3754.58333
1465.867	3663.91667
1468.989	3644.58333
1472.108	3594.25
1475.225	3513.25
1478.34	3471.58333
1481.453	3472.58333
1484.563	3496.58333
1487.671	3550.91667
1490.776	3565.58333
1493.88	3647.25
1496.981	3733.58333
1500.08	3818.91667
1503.176	3893.91667
1506.271	3912.91667
1509.363	4003.58333
1512.452	4067.58333
1515.54	4134.58333
1518.625	4236.25
1521.708	4439.58333
1524.789	4690.58333
1527.867	4989.91667
1530.944	5298.91667
1534.018	5524.91667
1537.089	5607.91667
1540.159	5519.91667
1543.226	5336.25
1546.291	5149.25
1549.354	4975.58333
1552.415	4811.25
1555.473	4683.91667
1558.529	4604.58333
1561.583	4562.58333
1564.634	4511.25
1567.684	4512.91667
1570.731	4542.25
1573.776	4599.91667
1576.819	4644.25
1579.859	4683.58333
1582.898	4752.58333
1585.934	4794.25
1588.968	4807.25
1591.999	4811.58333
1595.029	4813.25
1598.056	4829.25
1601.081	4826.58333
1604.104	4807.58333
1607.125	4806.25
1610.144	4694.58333
1613.16	4600.91667
1616.174	4490.25
1619.186	4398.91667
1622.196	4341.25
1625.203	4226.91667
1628.209	4163.25
1631.212	4129.25
1634.213	4119.58333
1637.212	4069.91667
1640.209	4012.25
1643.203	3888.91667
1646.196	3791.58333
1649.186	3637.91667
1652.174	3515.58333
1655.16	3434.58333
1658.144	3328.58333
1661.125	3169.25
1664.105	3014.25
1667.082	2865.25
1670.057	2710.25
1673.03	2545.58333
1676.001	2390.91667
1678.97	2232.58333
1681.937	2100.58333
1684.901	1986.58333
1687.863	1921.25
1690.824	1836.58333
1693.782	1786.91667
1696.738	1727.58333
1699.692	1700.91667
1702.643	1664.91667
1705.593	1621.58333
1708.54	1604.91667
1711.486	1606.25
1714.429	1565.58333
1717.37	1552.25
1720.309	1530.25
1723.246	1537.91667
1726.181	1484.91667
1729.113	1501.25
1732.044	1477.91667
1734.972	1463.58333
1737.899	1471.25
1740.823	1439.91667
1743.745	1409.91667
1746.665	1403.91667
1749.583	1374.91667
1752.499	1359.25
1755.413	1342.91667
1758.325	1303.91667
1761.235	1303.91667
1764.142	1280.25
1767.048	1273.58333
1769.951	1268.58333
1772.852	1266.25
1775.752	1246.58333
1778.649	1261.91667
1781.544	1243.91667
1784.437	1216.91667
1787.328	1230.91667
1790.217	1222.25
1793.104	1190.91667
1795.989	1188.91667
1798.872	1189.91667
1801.753	1199.91667
1804.631	1188.91667
1807.508	1203.91667
1810.383	1183.25
1813.255	1183.91667
1816.126	1174.25
1818.994	1164.25
1821.861	1162.91667
1824.725	1153.91667
1827.587	1153.25
1830.448	1155.91667
1833.306	1119.58333
1836.162	1133.25
1839.017	1117.58333
1841.869	1125.58333
1844.719	1107.58333
1847.567	1108.25
1850.414	1102.91667
1853.258	1097.58333
1856.1	1116.58333
1858.94	1116.25
1861.778	1109.25
1864.614	1081.91667
1867.448	1098.25
1870.28	1077.58333
1873.111	1102.91667
1875.939	1085.25
1878.765	1112.91667
1881.589	1098.58333
1884.411	1081.58333
1887.231	1097.25
1890.049	1060.58333
1892.865	1070.91667
1895.68	1066.91667
1898.492	1066.58333
1901.302	1052.91667
1904.11	1048.58333
1906.916	1043.25
1909.721	1046.58333
1912.523	1047.58333
1915.323	1030.25
1918.122	1039.91667
1920.918	1035.58333
1923.712	1024.58333
1926.505	1030.58333
1929.295	1021.91667
1932.084	1039.91667
1934.87	1035.58333
1937.655	1014.91667
1940.438	1023.91667
1943.218	1015.25
1945.997	1020.91667
1948.774	1037.58333
1951.549	1031.58333
1954.322	1014.58333
1957.093	1031.25
1959.862	993.91667
1962.629	1004.91667
1965.394	1003.25
1968.157	995.25
1970.918	1002.58333
1973.678	979.25
1976.435	987.58333
1979.19	991.58333
1981.944	978.58333
1984.696	983.91667
1987.445	963.91667
1990.193	971.25
1992.939	992.25
1995.683	986.91667
1998.425	948.91667
2001.165	976.91667
2003.903	948.91667
2006.639	960.58333
2009.374	963.58333
2012.106	951.25
2014.837	940.91667
2017.566	958.25
2020.292	964.91667
2023.017	965.58333
2025.74	946.58333
2028.461	956.58333
2031.18	943.25
2033.898	934.91667
2036.613	948.58333
2039.327	952.25
2042.038	928.58333
2044.748	936.58333
2047.456	926.25
2050.162	908.58333
2052.866	928.25
2055.568	924.25
2058.268	902.91667
2060.967	925.91667
2063.663	903.58333
2066.358	912.58333
2069.051	901.91667
2071.742	906.25
2074.431	915.25
2077.118	907.91667
2079.804	905.25
2082.487	912.58333
2085.169	923.91667
2087.849	933.25
2090.527	914.91667
2093.203	927.58333
2095.877	935.58333
2098.55	931.25
2101.22	938.58333
2103.889	953.91667
2106.556	946.91667
2109.221	957.25
2111.884	978.58333
2114.546	1024.25
2117.205	1072.25
2119.863	1134.25
2122.519	1210.91667
2125.173	1287.58333
2127.825	1398.25
2130.475	1409.91667
2133.124	1432.25
2135.771	1400.25
2138.416	1362.58333
2141.059	1270.91667
2143.7	1231.25
2146.339	1162.91667
2148.977	1105.25
2151.613	1095.91667
2154.247	1050.58333
2156.879	1047.91667
2159.51	1030.58333
2162.138	1011.91667
2164.765	1027.91667
2167.39	1014.91667
2170.013	1038.25
2172.634	1042.25
2175.254	1028.25
2177.872	1056.25
2180.488	998.58333
2183.102	1019.58333
2185.714	995.91667
2188.325	955.25
2190.934	956.58333
2193.541	936.91667
2196.146	932.25
2198.75	910.58333
2201.351	908.91667
2203.951	879.58333
2206.549	889.58333
2209.146	859.91667
2211.74	849.58333
2214.333	857.58333
2216.924	828.25
2219.514	835.25
2222.101	826.58333
2224.687	839.91667
2227.271	812.58333
2229.853	812.58333
2232.433	792.25
2235.012	838.58333
2237.589	820.58333
2240.164	829.91667
2242.738	812.91667
2245.309	795.58333
2247.879	808.25
2250.448	811.58333
2253.014	784.58333
2255.579	766.25
2258.142	764.25
2260.703	757.25
2263.262	748.25
2265.82	750.25
2268.376	752.91667
2270.93	730.25
2273.483	729.91667
2276.033	729.91667
2278.583	722.91667
2281.13	733.91667
2283.675	717.25
2286.219	714.91667
2288.761	713.25
2291.302	730.91667
2293.841	722.25
2296.377	696.58333
2298.913	697.58333
2301.446	721.25
2303.978	696.91667
2306.508	697.91667
2309.037	701.58333
2311.563	698.91667
2314.088	705.25
2316.612	680.25
2319.133	691.25
2321.653	681.58333
2324.171	680.91667
2326.688	681.58333
2329.202	677.25
2331.715	677.58333
2334.227	670.58333
2336.736	679.58333
2339.244	669.58333
2341.751	658.91667
2344.255	683.91667
2346.758	667.58333
2349.259	661.58333
2351.759	660.91667
2354.257	647.25
2356.753	660.58333
2359.247	654.25
2361.74	668.58333
2364.231	658.25
2366.721	642.58333
2369.209	648.58333
2371.695	659.91667
2374.179	653.58333
2376.662	634.91667
2379.143	669.58333
2381.622	650.25
2384.1	662.25
2386.576	646.58333
2389.051	661.58333
2391.524	662.58333
2393.995	649.25
2396.464	652.91667
2398.932	631.58333
2401.398	642.58333
2403.863	635.25
2406.325	631.91667
2408.787	631.91667
2411.246	640.25
2413.704	627.25
2416.16	629.25
2418.615	623.58333
2421.068	631.91667
2423.519	640.91667
2425.969	627.58333
2428.417	636.58333
2430.863	647.91667
2433.308	635.58333
2435.751	629.25
2438.193	628.25
2440.633	629.58333
2443.071	626.25
2445.508	611.58333
2447.943	621.25
2450.376	611.25
2452.808	626.91667
2455.238	602.25
2457.667	638.91667
2460.093	612.25
2462.519	603.58333
2464.942	599.58333
2467.365	611.25
2469.785	612.25
2472.204	608.91667
2474.621	603.58333
2477.037	630.91667
2479.451	597.25
2481.863	596.58333
2484.274	596.91667
2486.683	602.25
2489.091	612.25
2491.497	607.91667
2493.901	591.58333
2496.304	595.58333
2498.705	596.91667
2501.105	592.91667
2503.503	613.91667
2505.899	575.58333
2508.294	609.25
2510.687	588.25
2513.079	590.58333
2515.469	583.25
2517.858	593.25
2520.245	603.91667
2522.63	585.91667
2525.014	579.25
2527.396	573.91667
2529.776	584.58333
2532.156	586.25
2534.533	575.58333
2536.909	583.91667
2539.283	570.91667
2541.656	581.91667
2544.027	599.58333
2546.397	588.25
2548.765	583.58333
2551.131	570.58333
2553.496	580.25
2555.86	585.25
2558.221	590.58333
2560.582	581.25
2562.94	579.25
2565.298	579.25
2567.653	586.58333
2570.007	560.25
2572.36	568.58333
2574.711	571.58333
2577.06	598.91667
2579.408	581.91667
2581.754	571.25
2584.099	576.91667
2586.442	575.25
2588.784	580.58333
2591.124	567.58333
2593.463	573.91667
2595.8	565.91667
2598.135	556.58333
2600.469	565.25
2602.802	583.25
2605.133	576.25
2607.462	558.25
2609.79	564.58333
2612.116	567.58333
2614.441	572.58333
2616.764	564.25
2619.086	566.58333
2621.406	559.25
2623.725	580.58333
2626.042	567.25
2628.358	577.25
2630.672	567.91667
2632.985	580.58333
2635.296	577.91667
2637.606	572.58333
2639.914	565.25
2642.22	561.58333
2644.525	563.25
2646.829	577.91667
2649.131	585.91667
2651.432	590.58333
2653.731	573.58333
2656.028	584.58333
2658.324	582.25
2660.619	567.58333
2662.912	587.91667
2665.204	575.91667
2667.494	594.91667
2669.782	570.25
2672.07	584.25
2674.355	593.91667
2676.639	580.25
2678.922	565.58333
2681.203	590.58333
2683.483	575.58333
2685.761	570.91667
2688.038	592.91667
2690.313	602.58333
2692.587	594.25
2694.859	578.25
2697.13	584.58333
2699.399	592.58333
2701.667	610.25
2703.933	599.91667
2706.198	600.91667
2708.461	620.58333
2710.723	626.91667
2712.984	609.25
2715.243	630.91667
2717.5	627.58333
2719.757	630.25
2722.011	623.91667
2724.264	637.91667
2726.516	648.58333
2728.766	634.91667
2731.015	634.25
2733.262	628.25
2735.508	633.25
2737.753	636.25
2739.996	611.25
2742.237	617.58333
2744.477	627.25
2746.716	625.58333
2748.953	611.25
2751.189	627.25
2753.423	600.58333
2755.656	599.91667
2757.887	593.91667
2760.117	605.91667
2762.346	597.25
2764.573	590.25
2766.798	589.25
2769.022	595.58333
2771.245	599.58333
2773.467	599.25
2775.686	600.25
2777.905	606.58333
2780.122	607.25
2782.337	611.25
2784.552	604.91667
2786.764	625.58333
2788.976	622.58333
2791.186	632.25
2793.394	634.91667
2795.601	647.58333
2797.807	653.91667
2800.011	648.25
2802.214	668.91667
2804.415	661.91667
2806.615	669.91667
2808.814	681.25
2811.011	690.58333
2813.206	682.25
2815.401	700.91667
2817.594	713.25
2819.785	730.25
2821.975	713.91667
2824.164	725.91667
2826.351	747.25
2828.537	772.25
2830.722	792.25
2832.905	794.91667
2835.086	829.58333
2837.267	871.91667
2839.445	903.91667
2841.623	922.25
2843.799	962.58333
2845.974	1010.58333
2848.147	1064.58333
2850.319	1097.25
2852.489	1136.25
2854.659	1128.91667
2856.826	1150.91667
2858.993	1202.25
2861.158	1172.25
2863.321	1175.58333
2865.483	1205.58333
2867.644	1190.91667
2869.804	1183.25
2871.962	1178.91667
2874.118	1204.91667
2876.274	1204.25
2878.428	1195.91667
2880.58	1191.25
2882.731	1177.91667
2884.881	1171.25
2887.03	1179.58333
2889.177	1178.91667
2891.322	1198.91667
2893.467	1192.58333
2895.61	1187.58333
2897.751	1230.58333
2899.892	1216.25
2902.03	1244.58333
2904.168	1243.25
2906.304	1233.58333
2908.439	1275.25
2910.572	1253.25
2912.704	1266.58333
2914.835	1270.58333
2916.965	1256.91667
2919.093	1275.25
2921.219	1234.58333
2923.345	1272.58333
2925.469	1227.25
2927.591	1230.58333
2929.712	1176.91667
2931.832	1193.58333
2933.951	1157.91667
2936.068	1124.25
2938.184	1104.25
2940.299	1070.58333
2942.412	1039.25
2944.524	995.25
2946.634	980.91667
2948.744	915.25
2950.851	942.58333
2952.958	879.91667
2955.063	881.58333
2957.167	866.58333
2959.269	822.58333
2961.371	837.25
2963.471	783.58333
2965.569	805.25
2967.666	757.91667
2969.762	744.25
2971.857	716.25
2973.95	703.58333
2976.042	704.25
2978.133	670.58333
2980.222	658.91667
2982.31	640.25
2984.396	615.58333
2986.482	613.58333
2988.566	614.58333
2990.648	601.91667
2992.73	602.58333
2994.81	598.25
2996.889	590.58333
2998.966	577.25
3001.042	584.25
3003.117	581.91667
3005.191	576.91667
3007.263	569.58333
3009.334	571.25
3011.403	563.58333
3013.472	531.25
3015.539	541.25
3017.604	538.58333
3019.669	498.58333
3021.732	512.91667
3023.794	520.25
3025.854	491.58333
3027.914	498.25
3029.971	507.91667
3032.028	504.25
3034.083	492.91667
3036.137	498.58333
3038.19	479.25
3040.242	467.58333
3042.292	449.91667
3044.341	449.25
3046.388	468.58333
3048.435	431.58333
3050.48	454.25
3052.524	447.58333
3054.566	421.91667
3056.607	442.25
3058.647	423.25
3060.686	412.25
3062.723	397.25
3064.759	392.91667
3066.794	0.25
3068.828	0.91667
3070.86	-3.41667
