-0.839	456.5
3.438	490.83333
7.711	137.5
11.981	58.16667
16.247	46.16667
20.509	47.16667
24.768	44.5
29.024	47.16667
33.276	45.83333
37.524	54.5
41.769	42.83333
46.01	33.83333
50.247	55.16667
54.481	65.16667
58.712	66.83333
62.939	54.5
67.162	64.5
71.382	59.83333
75.599	50.83333
79.812	66.83333
84.021	81.83333
88.227	60.16667
92.429	62.83333
96.628	53.16667
100.823	71.83333
105.015	79.5
109.204	80.83333
113.388	87.83333
117.57	79.5
121.748	96.16667
125.922	85.83333
130.093	110.16667
134.261	113.83333
138.425	108.5
142.585	155.5
146.742	159.83333
150.896	189.5
155.046	241.5
159.193	373.83333
163.336	671.5
167.476	1231.5
171.613	2271.83333
175.746	3729.5
179.875	5526.83333
184.002	7139.16667
188.124	8197.16667
192.244	8570.16667
196.36	8530.5
200.472	8349.5
204.581	8123.83333
208.687	7945.83333
212.79	7921.16667
216.889	7906.16667
220.984	8013.83333
225.077	8046.5
229.165	8197.83333
233.251	8290.5
237.333	8404.5
241.412	8463.5
245.487	8407.5
249.559	8401.16667
253.628	8313.83333
257.694	8183.83333
261.756	8152.5
265.814	7990.16667
269.87	7759.16667
273.922	7432.5
277.97	7185.83333
282.016	6915.16667
286.058	6694.5
290.097	6536.16667
294.132	6451.83333
298.164	6405.16667
302.193	6197.16667
306.219	5843.16667
310.241	5284.83333
314.26	4787.16667
318.276	4383.83333
322.288	4053.5
326.297	3800.83333
330.303	3660.16667
334.305	3522.83333
338.305	3444.5
342.301	3382.83333
346.294	3356.5
350.283	3295.83333
354.269	3259.83333
358.252	3247.83333
362.232	3228.5
366.209	3226.16667
370.182	3172.16667
374.152	3179.83333
378.119	3162.83333
382.083	3144.83333
386.043	3166.5
390	3125.5
393.954	3101.5
397.905	3089.83333
401.852	3071.5
405.797	2996.16667
409.738	2970.83333
413.676	2959.5
417.61	2932.5
421.542	2905.16667
425.47	2852.16667
429.396	2807.83333
433.318	2802.5
437.236	2780.16667
441.152	2767.16667
445.065	2716.16667
448.974	2732.5
452.88	2701.83333
456.783	2657.5
460.683	2663.83333
464.58	2652.5
468.473	2627.16667
472.364	2661.16667
476.251	2647.83333
480.135	2653.83333
484.016	2702.16667
487.894	2711.83333
491.769	2712.5
495.641	2723.5
499.509	2719.5
503.375	2732.5
507.237	2718.16667
511.096	2706.16667
514.952	2703.5
518.805	2711.16667
522.655	2719.16667
526.502	2676.16667
530.346	2703.5
534.187	2709.5
538.024	2711.83333
541.859	2716.83333
545.69	2739.16667
549.519	2702.16667
553.344	2698.83333
557.166	2665.83333
560.985	2613.83333
564.802	2589.5
568.615	2552.16667
572.425	2511.83333
576.232	2494.5
580.036	2475.5
583.836	2498.5
587.634	2475.83333
591.429	2482.5
595.221	2560.16667
599.01	2549.83333
602.796	2591.16667
606.578	2643.83333
610.358	2642.16667
614.135	2602.83333
617.909	2623.16667
621.679	2578.5
625.447	2580.83333
629.212	2584.5
632.973	2597.83333
636.732	2583.16667
640.488	2571.83333
644.241	2535.83333
647.991	2558.5
651.737	2587.16667
655.481	2556.16667
659.222	2575.5
662.96	2593.5
666.695	2600.5
670.427	2585.16667
674.156	2606.5
677.882	2590.16667
681.605	2578.5
685.325	2546.83333
689.043	2551.16667
692.757	2560.16667
696.468	2565.83333
700.177	2558.16667
703.882	2556.16667
707.585	2537.5
711.284	2542.5
714.981	2540.83333
718.675	2558.83333
722.366	2555.83333
726.054	2528.83333
729.739	2540.83333
733.421	2525.16667
737.1	2539.5
740.777	2568.16667
744.45	2554.16667
748.121	2586.83333
751.789	2639.16667
755.453	2627.83333
759.115	2654.83333
762.774	2676.83333
766.431	2725.16667
770.084	2748.5
773.734	2793.5
777.382	2842.83333
781.027	2862.16667
784.669	2892.83333
788.308	2901.16667
791.944	2900.5
795.577	2924.5
799.208	2952.5
802.835	2976.16667
806.46	3012.5
810.082	3055.5
813.701	3064.16667
817.317	3092.5
820.931	3084.5
824.542	3079.83333
828.149	3090.83333
831.754	3042.83333
835.357	3021.16667
838.956	3002.83333
842.553	3001.16667
846.146	2964.83333
849.737	2965.16667
853.326	2963.16667
856.911	2984.16667
860.493	3041.5
864.073	3056.83333
867.65	3096.83333
871.225	3142.16667
874.796	3109.5
878.365	3128.16667
881.931	3159.83333
885.494	3191.5
889.054	3199.16667
892.612	3191.83333
896.166	3162.16667
899.719	3111.16667
903.268	3119.16667
906.814	3073.5
910.358	3094.5
913.899	3058.83333
917.438	3079.83333
920.973	3087.83333
924.506	3093.5
928.036	3134.16667
931.564	3203.5
935.088	3216.83333
938.61	3217.83333
942.129	3237.16667
945.646	3315.16667
949.16	3390.5
952.671	3485.16667
956.179	3528.16667
959.685	3540.16667
963.188	3536.83333
966.688	3483.16667
970.185	3362.5
973.68	3325.83333
977.173	3258.16667
980.662	3205.83333
984.149	3240.16667
987.633	3247.5
991.114	3289.83333
994.593	3372.5
998.069	3493.83333
1001.542	3642.5
1005.013	3559.5
1008.481	3364.16667
1011.947	3317.83333
1015.409	3301.83333
1018.869	3281.5
1022.327	3277.16667
1025.782	3254.83333
1029.234	3257.5
1032.683	3219.16667
1036.13	3087.16667
1039.574	2994.83333
1043.016	2929.5
1046.455	2845.5
1049.891	2831.16667
1053.325	2830.16667
1056.756	2818.83333
1060.184	2821.83333
1063.61	2834.83333
1067.033	2870.83333
1070.454	2862.16667
1073.872	2913.5
1077.287	2890.83333
1080.7	2913.5
1084.11	2888.5
1087.517	2899.5
1090.922	2842.16667
1094.325	2802.83333
1097.724	2789.83333
1101.122	2797.5
1104.516	2779.83333
1107.908	2775.16667
1111.298	2849.5
1114.684	2873.5
1118.069	2932.83333
1121.45	2943.83333
1124.83	2942.83333
1128.206	2954.16667
1131.58	3012.83333
1134.951	3104.83333
1138.32	3213.16667
1141.687	3368.16667
1145.05	3486.83333
1148.412	3513.5
1151.77	3503.83333
1155.126	3509.16667
1158.48	3480.83333
1161.831	3534.5
1165.18	3576.16667
1168.525	3586.5
1171.869	3610.16667
1175.21	3656.83333
1178.548	3705.83333
1181.884	3756.83333
1185.217	3749.83333
1188.548	3831.83333
1191.877	3876.83333
1195.202	3961.83333
1198.526	3996.16667
1201.846	4004.5
1205.165	3997.16667
1208.48	3977.83333
1211.794	3946.83333
1215.104	3932.5
1218.413	3983.16667
1221.719	3924.16667
1225.022	3860.16667
1228.323	3833.5
1231.621	3824.16667
1234.917	3798.5
1238.21	3827.83333
1241.501	3830.83333
1244.79	3812.5
1248.076	3799.83333
1251.359	3842.5
1254.64	3918.83333
1257.919	3945.16667
1261.195	3999.83333
1264.468	4077.83333
1267.74	4188.5
1271.008	4184.5
1274.275	4171.5
1277.538	4123.16667
1280.8	4122.83333
1284.059	4096.83333
1287.315	4155.83333
1290.569	4152.83333
1293.821	4194.83333
1297.07	4202.5
1300.317	4204.5
1303.562	4221.5
1306.803	4178.83333
1310.043	4161.83333
1313.28	4096.83333
1316.515	4082.16667
1319.747	4036.16667
1322.977	3957.5
1326.204	3892.83333
1329.429	3860.16667
1332.652	3846.5
1335.872	3859.16667
1339.09	3813.83333
1342.306	3794.83333
1345.519	3748.83333
1348.729	3719.83333
1351.938	3712.5
1355.144	3628.16667
1358.347	3564.83333
1361.548	3568.83333
1364.747	3582.5
1367.944	3577.16667
1371.138	3574.16667
1374.329	3627.5
1377.518	3621.83333
1380.705	3696.5
1383.89	3667.83333
1387.072	3607.83333
1390.252	3468.83333
1393.429	3355.5
1396.605	3227.5
1399.777	3142.83333
1402.948	3093.5
1406.116	3075.16667
1409.282	3064.5
1412.445	3060.5
1415.606	3092.5
1418.765	3121.16667
1421.921	3188.5
1425.075	3234.83333
1428.227	3382.83333
1431.376	3541.5
1434.524	3699.5
1437.668	3794.83333
1440.811	3847.83333
1443.951	3891.16667
1447.089	3896.83333
1450.224	3924.5
1453.357	3881.16667
1456.488	3858.83333
1459.617	3787.83333
1462.743	3735.83333
1465.867	3664.16667
1468.989	3646.83333
1472.108	3594.83333
1475.225	3531.83333
1478.34	3491.5
1481.453	3493.5
1484.563	3506.5
1487.671	3568.83333
1490.776	3641.5
1493.88	3724.16667
1496.981	3791.5
1500.08	3870.83333
1503.176	3939.83333
1506.271	4001.83333
1509.363	4058.5
1512.452	4120.16667
1515.54	4204.83333
1518.625	4307.5
1521.708	4491.16667
1524.789	4698.5
1527.867	4996.5
1530.944	5301.83333
1534.018	5463.83333
1537.089	5541.83333
1540.159	5456.83333
1543.226	5304.5
1546.291	5098.16667
1549.354	4954.5
1552.415	4826.5
1555.473	4713.16667
1558.529	4646.83333
1561.583	4593.5
1564.634	4591.83333
1567.684	4550.83333
1570.731	4591.16667
1573.776	4690.5
1576.819	4739.16667
1579.859	4801.16667
1582.898	4870.16667
1585.934	4904.16667
1588.968	4882.83333
1591.999	4891.5
1595.029	4902.5
1598.056	4890.5
1601.081	4910.16667
1604.104	4895.16667
1607.125	4860.83333
1610.144	4733.16667
1613.16	4637.83333
1616.174	4572.16667
1619.186	4468.16667
1622.196	4362.16667
1625.203	4252.5
1628.209	4203.83333
1631.212	4193.16667
1634.213	4142.16667
1637.212	4113.5
1640.209	4026.83333
1643.203	3913.5
1646.196	3794.16667
1649.186	3617.16667
1652.174	3452.16667
1655.16	3359.16667
1658.144	3243.5
1661.125	3067.16667
1664.105	2940.16667
1667.082	2775.5
1670.057	2622.5
1673.03	2462.5
1676.001	2312.5
1678.97	2150.83333
1681.937	2010.16667
1684.901	1903.5
1687.863	1850.5
1690.824	1744.83333
1693.782	1729.83333
1696.738	1657.83333
1699.692	1617.83333
1702.643	1594.83333
1705.593	1578.83333
1708.54	1529.5
1711.486	1525.5
1714.429	1494.83333
1717.37	1485.16667
1720.309	1458.16667
1723.246	1472.83333
1726.181	1430.5
1729.113	1426.16667
1732.044	1408.83333
1734.972	1388.83333
1737.899	1376.5
1740.823	1368.16667
1743.745	1330.83333
1746.665	1327.83333
1749.583	1321.16667
1752.499	1287.5
1755.413	1273.83333
1758.325	1227.83333
1761.235	1236.83333
1764.142	1200.83333
1767.048	1208.16667
1769.951	1195.83333
1772.852	1192.83333
1775.752	1182.16667
1778.649	1182.16667
1781.544	1170.83333
1784.437	1158.16667
1787.328	1169.16667
1790.217	1142.16667
1793.104	1122.5
1795.989	1129.5
1798.872	1121.16667
1801.753	1130.83333
1804.631	1126.83333
1807.508	1129.16667
1810.383	1109.5
1813.255	1110.83333
1816.126	1110.16667
1818.994	1090.83333
1821.861	1096.5
1824.725	1090.16667
1827.587	1087.83333
1830.448	1068.83333
1833.306	1049.83333
1836.162	1076.83333
1839.017	1063.83333
1841.869	1059.16667
1844.719	1047.16667
1847.567	1026.83333
1850.414	1033.83333
1853.258	1042.16667
1856.1	1054.5
1858.94	1043.83333
1861.778	1037.16667
1864.614	1024.5
1867.448	1031.5
1870.28	1030.5
1873.111	1034.5
1875.939	1024.83333
1878.765	1027.5
1881.589	1004.5
1884.411	1015.5
1887.231	1011.5
1890.049	1010.16667
1892.865	1005.16667
1895.68	991.5
1898.492	1008.16667
1901.302	995.16667
1904.11	976.16667
1906.916	983.16667
1909.721	974.5
1912.523	977.16667
1915.323	956.5
1918.122	961.5
1920.918	974.16667
1923.712	963.83333
1926.505	978.5
1929.295	949.83333
1932.084	957.83333
1934.87	953.5
1937.655	953.16667
1940.438	941.16667
1943.218	951.16667
1945.997	959.16667
1948.774	965.83333
1951.549	949.16667
1954.322	941.83333
1957.093	954.83333
1959.862	942.83333
1962.629	934.16667
1965.394	940.5
1968.157	915.83333
1970.918	939.16667
1973.678	924.5
1976.435	933.5
1979.19	911.5
1981.944	907.5
1984.696	902.5
1987.445	912.5
1990.193	908.83333
1992.939	920.5
1995.683	902.5
1998.425	890.16667
2001.165	913.16667
2003.903	895.83333
2006.639	884.5
2009.374	890.83333
2012.106	906.83333
2014.837	863.16667
2017.566	909.16667
2020.292	903.16667
2023.017	890.83333
2025.74	881.16667
2028.461	874.5
2031.18	884.83333
2033.898	869.16667
2036.613	875.83333
2039.327	875.16667
2042.038	871.16667
2044.748	865.5
2047.456	868.83333
2050.162	845.5
2052.866	854.5
2055.568	865.5
2058.268	864.5
2060.967	861.83333
2063.663	835.5
2066.358	861.5
2069.051	840.5
2071.742	858.16667
2074.431	847.83333
2077.118	840.16667
2079.804	834.16667
2082.487	839.16667
2085.169	852.83333
2087.849	849.83333
2090.527	830.83333
2093.203	856.83333
2095.877	836.5
2098.55	857.5
2101.22	861.83333
2103.889	867.83333
2106.556	850.16667
2109.221	873.16667
2111.884	881.5
2114.546	915.5
2117.205	961.16667
2119.863	1020.5
2122.519	1061.83333
2125.173	1124.83333
2127.825	1232.16667
2130.475	1275.16667
2133.124	1244.16667
2135.771	1243.83333
2138.416	1196.5
2141.059	1119.5
2143.7	1080.16667
2146.339	1028.16667
2148.977	984.5
2151.613	977.5
2154.247	927.83333
2156.879	925.16667
2159.51	922.5
2162.138	902.83333
2164.765	908.83333
2167.39	893.83333
2170.013	906.16667
2172.634	917.16667
2175.254	911.5
2177.872	922.16667
2180.488	880.5
2183.102	899.83333
2185.714	883.16667
2188.325	851.5
2190.934	860.83333
2193.541	842.83333
2196.146	824.16667
2198.75	823.16667
2201.351	808.5
2203.951	783.5
2206.549	811.16667
2209.146	785.83333
2211.74	781.16667
2214.333	790.16667
2216.924	768.16667
2219.514	775.5
2222.101	747.5
2224.687	775.5
2227.271	755.16667
2229.853	751.83333
2232.433	741.16667
2235.012	761.5
2237.589	759.16667
2240.164	767.5
2242.738	754.83333
2245.309	721.16667
2247.879	727.83333
2250.448	744.83333
2253.014	704.5
2255.579	696.83333
2258.142	701.16667
2260.703	680.5
2263.262	682.83333
2265.82	672.5
2268.376	691.16667
2270.93	673.16667
2273.483	672.83333
2276.033	665.83333
2278.583	663.5
2281.13	658.83333
2283.675	640.16667
2286.219	660.5
2288.761	653.5
2291.302	663.83333
2293.841	663.16667
2296.377	633.16667
2298.913	634.83333
2301.446	649.16667
2303.978	653.16667
2306.508	639.5
2309.037	629.83333
2311.563	642.16667
2314.088	645.83333
2316.612	622.16667
2319.133	634.5
2321.653	618.5
2324.171	610.83333
2326.688	630.5
2329.202	613.83333
2331.715	631.83333
2334.227	621.83333
2336.736	614.16667
2339.244	616.16667
2341.751	597.16667
2344.255	618.83333
2346.758	605.5
2349.259	599.83333
2351.759	589.16667
2354.257	592.83333
2356.753	594.83333
2359.247	593.16667
2361.74	612.5
2364.231	601.5
2366.721	610.5
2369.209	583.5
2371.695	588.5
2374.179	588.5
2376.662	584.5
2379.143	601.5
2381.622	579.5
2384.1	589.5
2386.576	579.16667
2389.051	596.16667
2391.524	585.83333
2393.995	593.83333
2396.464	570.5
2398.932	576.5
2401.398	581.83333
2403.863	577.5
2406.325	573.5
2408.787	571.5
2411.246	569.5
2413.704	562.5
2416.16	562.16667
2418.615	572.83333
2421.068	570.5
2423.519	566.83333
2425.969	568.83333
2428.417	569.83333
2430.863	583.5
2433.308	583.16667
2435.751	564.83333
2438.193	560.16667
2440.633	567.16667
2443.071	560.83333
2445.508	543.83333
2447.943	554.83333
2450.376	539.16667
2452.808	556.83333
2455.238	552.16667
2457.667	569.83333
2460.093	547.83333
2462.519	547.16667
2464.942	551.5
2467.365	557.5
2469.785	547.5
2472.204	553.83333
2474.621	534.5
2477.037	563.16667
2479.451	528.5
2481.863	530.83333
2484.274	526.83333
2486.683	529.83333
2489.091	535.16667
2491.497	534.83333
2493.901	540.83333
2496.304	538.83333
2498.705	532.83333
2501.105	520.16667
2503.503	557.5
2505.899	529.83333
2508.294	549.16667
2510.687	525.83333
2513.079	522.16667
2515.469	513.83333
2517.858	527.5
2520.245	540.16667
2522.63	512.83333
2525.014	515.5
2527.396	517.83333
2529.776	507.16667
2532.156	517.5
2534.533	494.83333
2536.909	517.16667
2539.283	513.16667
2541.656	504.5
2544.027	527.5
2546.397	511.5
2548.765	516.83333
2551.131	511.5
2553.496	506.5
2555.86	506.16667
2558.221	509.5
2560.582	513.16667
2562.94	495.83333
2565.298	515.5
2567.653	523.5
2570.007	487.83333
2572.36	504.5
2574.711	504.5
2577.06	505.5
2579.408	510.83333
2581.754	500.5
2584.099	500.83333
2586.442	498.16667
2588.784	500.83333
2591.124	497.5
2593.463	493.16667
2595.8	502.5
2598.135	494.83333
2600.469	493.5
2602.802	511.83333
2605.133	510.16667
2607.462	501.16667
2609.79	491.83333
2612.116	494.5
2614.441	495.16667
2616.764	491.5
2619.086	494.83333
2621.406	494.5
2623.725	497.16667
2626.042	496.83333
2628.358	488.83333
2630.672	498.16667
2632.985	501.16667
2635.296	502.5
2637.606	496.5
2639.914	485.5
2642.22	493.5
2644.525	500.16667
2646.829	496.16667
2649.131	516.83333
2651.432	512.83333
2653.731	499.5
2656.028	502.16667
2658.324	502.16667
2660.619	493.5
2662.912	505.83333
2665.204	494.5
2667.494	511.83333
2669.782	497.5
2672.07	503.5
2674.355	514.83333
2676.639	492.83333
2678.922	506.5
2681.203	514.16667
2683.483	490.83333
2685.761	493.5
2688.038	512.16667
2690.313	520.83333
2692.587	506.16667
2694.859	496.5
2697.13	501.83333
2699.399	516.16667
2701.667	524.5
2703.933	514.5
2706.198	525.16667
2708.461	515.16667
2710.723	533.5
2712.984	524.83333
2715.243	551.16667
2717.5	535.16667
2719.757	561.83333
2722.011	540.83333
2724.264	545.16667
2726.516	564.16667
2728.766	552.5
2731.015	553.16667
2733.262	542.5
2735.508	543.83333
2737.753	536.16667
2739.996	525.16667
2742.237	520.83333
2744.477	528.83333
2746.716	536.16667
2748.953	527.16667
2751.189	532.16667
2753.423	514.5
2755.656	512.5
2757.887	512.16667
2760.117	513.5
2762.346	504.83333
2764.573	497.83333
2766.798	502.5
2769.022	504.83333
2771.245	507.5
2773.467	508.16667
2775.686	514.5
2777.905	512.16667
2780.122	519.5
2782.337	527.5
2784.552	513.16667
2786.764	529.5
2788.976	521.5
2791.186	530.16667
2793.394	528.5
2795.601	537.16667
2797.807	538.16667
2800.011	553.16667
2802.214	563.16667
2804.415	560.16667
2806.615	558.83333
2808.814	568.5
2811.011	583.5
2813.206	591.5
2815.401	594.83333
2817.594	611.83333
2819.785	616.16667
2821.975	610.16667
2824.164	616.16667
2826.351	642.83333
2828.537	666.83333
2830.722	689.83333
2832.905	692.5
2835.086	725.5
2837.267	762.16667
2839.445	801.5
2841.623	823.16667
2843.799	875.83333
2845.974	923.83333
2848.147	968.83333
2850.319	983.16667
2852.489	1050.16667
2854.659	1046.5
2856.826	1065.16667
2858.993	1088.83333
2861.158	1077.83333
2863.321	1098.5
2865.483	1118.5
2867.644	1111.16667
2869.804	1122.5
2871.962	1105.16667
2874.118	1125.5
2876.274	1151.83333
2878.428	1126.16667
2880.58	1118.16667
2882.731	1104.5
2884.881	1110.83333
2887.03	1106.5
2889.177	1094.5
2891.322	1120.5
2893.467	1124.5
2895.61	1136.16667
2897.751	1143.5
2899.892	1138.16667
2902.03	1156.83333
2904.168	1177.16667
2906.304	1161.16667
2908.439	1200.16667
2910.572	1189.5
2912.704	1191.16667
2914.835	1184.16667
2916.965	1195.83333
2919.093	1212.83333
2921.219	1172.16667
2923.345	1193.16667
2925.469	1166.5
2927.591	1166.83333
2929.712	1116.5
2931.832	1118.5
2933.951	1088.83333
2936.068	1065.5
2938.184	1034.16667
2940.299	998.16667
2942.412	970.83333
2944.524	920.5
2946.634	912.5
2948.744	850.5
2950.851	853.5
2952.958	797.16667
2955.063	796.16667
2957.167	784.16667
2959.269	740.5
2961.371	756.5
2963.471	706.83333
2965.569	720.16667
2967.666	682.16667
2969.762	658.16667
2971.857	637.83333
2973.95	632.16667
2976.042	610.5
2978.133	596.16667
2980.222	581.16667
2982.31	556.83333
2984.396	549.83333
2986.482	545.16667
2988.566	539.5
2990.648	531.5
2992.73	523.83333
2994.81	504.5
2996.889	513.5
2998.966	493.16667
3001.042	503.16667
3003.117	494.5
3005.191	499.5
3007.263	489.83333
3009.334	489.5
3011.403	474.5
3013.472	454.5
3015.539	448.83333
3017.604	462.16667
3019.669	426.5
3021.732	438.16667
3023.794	440.16667
3025.854	410.83333
3027.914	418.83333
3029.971	421.16667
3032.028	416.5
3034.083	418.5
3036.137	410.5
3038.19	392.83333
3040.242	391.83333
3042.292	371.5
3044.341	378.83333
3046.388	397.16667
3048.435	360.83333
3050.48	383.16667
3052.524	374.5
3054.566	349.5
3056.607	359.83333
3058.647	353.5
3060.686	332.83333
3062.723	325.83333
3064.759	324.16667
3066.794	1.5
3068.828	-0.5
3070.86	-2.16667
