-0.839	452.75
3.438	487.75
7.711	130.75
11.981	59.41667
16.247	47.75
20.509	49.41667
24.768	45.41667
29.024	50.41667
33.276	46.08333
37.524	49.08333
41.769	44.41667
46.01	41.08333
50.247	53.75
54.481	61.41667
58.712	70.41667
62.939	54.75
67.162	65.08333
71.382	63.41667
75.599	47.08333
79.812	67.41667
84.021	84.08333
88.227	61.75
92.429	65.75
96.628	58.41667
100.823	73.75
105.015	84.08333
109.204	80.08333
113.388	87.75
117.57	84.75
121.748	97.08333
125.922	93.08333
130.093	111.08333
134.261	124.75
138.425	117.08333
142.585	154.41667
146.742	161.08333
150.896	197.41667
155.046	257.41667
159.193	416.08333
163.336	699.75
167.476	1306.41667
171.613	2383.08333
175.746	3937.75
179.875	5843.08333
184.002	7587.75
188.124	8746.41667
192.244	9056.75
196.36	8984.08333
200.472	8747.08333
204.581	8552.75
208.687	8367.08333
212.79	8323.75
216.889	8385.41667
220.984	8420.75
225.077	8547.08333
229.165	8658.41667
233.251	8763.08333
237.333	8882.08333
241.412	8908.75
245.487	8832.08333
249.559	8758.08333
253.628	8700.41667
257.694	8557.41667
261.756	8449.08333
265.814	8252.08333
269.87	7971.75
273.922	7609.08333
277.97	7335.75
282.016	7061.41667
286.058	6891.75
290.097	6719.41667
294.132	6665.41667
298.164	6521.08333
302.193	6226.08333
306.219	5811.08333
310.241	5277.08333
314.26	4826.75
318.276	4455.08333
322.288	4171.08333
326.297	3945.75
330.303	3804.08333
334.305	3667.75
338.305	3596.08333
342.301	3537.75
346.294	3513.08333
350.283	3448.08333
354.269	3418.08333
358.252	3414.75
362.232	3373.41667
366.209	3377.41667
370.182	3328.08333
374.152	3312.41667
378.119	3317.41667
382.083	3317.08333
386.043	3329.41667
390	3274.08333
393.954	3243.08333
397.905	3243.75
401.852	3202.75
405.797	3152.41667
409.738	3094.41667
413.676	3085.08333
417.61	3039.41667
421.542	2999.08333
425.47	2974.75
429.396	2944.41667
433.318	2924.41667
437.236	2920.41667
441.152	2914.75
445.065	2843.41667
448.974	2842.41667
452.88	2819.41667
456.783	2788.08333
460.683	2763.41667
464.58	2777.75
468.473	2772.08333
472.364	2783.41667
476.251	2792.41667
480.135	2808.41667
484.016	2834.75
487.894	2845.08333
491.769	2866.41667
495.641	2870.08333
499.509	2865.08333
503.375	2846.08333
507.237	2836.75
511.096	2811.41667
514.952	2820.41667
518.805	2815.08333
522.655	2818.08333
526.502	2811.08333
530.346	2825.08333
534.187	2821.75
538.024	2836.75
541.859	2814.75
545.69	2841.08333
549.519	2814.41667
553.344	2804.08333
557.166	2761.75
560.985	2752.08333
564.802	2704.08333
568.615	2695.75
572.425	2634.41667
576.232	2636.75
580.036	2614.75
583.836	2645.41667
587.634	2639.75
591.429	2636.75
595.221	2664.75
599.01	2688.41667
602.796	2722.41667
606.578	2750.41667
610.358	2749.75
614.135	2730.08333
617.909	2743.41667
621.679	2741.75
625.447	2687.41667
629.212	2709.75
632.973	2737.41667
636.732	2722.41667
640.488	2701.75
644.241	2698.08333
647.991	2662.75
651.737	2717.41667
655.481	2699.75
659.222	2694.75
662.96	2683.75
666.695	2691.08333
670.427	2705.75
674.156	2732.41667
677.882	2717.08333
681.605	2687.75
685.325	2642.41667
689.043	2669.41667
692.757	2684.41667
696.468	2664.75
700.177	2689.08333
703.882	2700.41667
707.585	2685.75
711.284	2679.41667
714.981	2664.41667
718.675	2680.41667
722.366	2678.41667
726.054	2665.08333
729.739	2696.41667
733.421	2674.75
737.1	2673.75
740.777	2703.08333
744.45	2717.08333
748.121	2730.08333
751.789	2773.75
755.453	2777.41667
759.115	2791.41667
762.774	2843.08333
766.431	2858.75
770.084	2877.41667
773.734	2903.75
777.382	2962.08333
781.027	2991.08333
784.669	3008.08333
788.308	3032.41667
791.944	3042.08333
795.577	3059.41667
799.208	3102.41667
802.835	3126.08333
806.46	3166.75
810.082	3178.75
813.701	3212.75
817.317	3230.41667
820.931	3240.08333
824.542	3218.75
828.149	3179.41667
831.754	3144.75
835.357	3178.41667
838.956	3148.41667
842.553	3123.75
846.146	3127.75
849.737	3124.08333
853.326	3123.75
856.911	3143.41667
860.493	3163.08333
864.073	3202.08333
867.65	3233.41667
871.225	3276.41667
874.796	3278.08333
878.365	3275.75
881.931	3326.08333
885.494	3339.08333
889.054	3325.75
892.612	3325.41667
896.166	3315.08333
899.719	3291.75
903.268	3269.08333
906.814	3227.75
910.358	3204.75
913.899	3205.08333
917.438	3211.08333
920.973	3205.41667
924.506	3249.75
928.036	3284.75
931.564	3301.75
935.088	3326.08333
938.61	3331.41667
942.129	3358.08333
945.646	3459.41667
949.16	3560.08333
952.671	3608.41667
956.179	3681.08333
959.685	3646.08333
963.188	3626.08333
966.688	3583.08333
970.185	3497.41667
973.68	3409.75
977.173	3420.41667
980.662	3371.08333
984.149	3387.41667
987.633	3376.75
991.114	3458.41667
994.593	3550.08333
998.069	3654.75
1001.542	3787.75
1005.013	3692.41667
1008.481	3484.08333
1011.947	3427.75
1015.409	3422.08333
1018.869	3409.41667
1022.327	3406.75
1025.782	3404.75
1029.234	3392.41667
1032.683	3328.41667
1036.13	3234.08333
1039.574	3091.08333
1043.016	3039.08333
1046.455	2982.08333
1049.891	2933.08333
1053.325	2936.41667
1056.756	2921.75
1060.184	2936.75
1063.61	2953.41667
1067.033	2959.75
1070.454	2971.75
1073.872	3022.41667
1077.287	3006.08333
1080.7	2995.41667
1084.11	3003.08333
1087.517	2992.41667
1090.922	2945.41667
1094.325	2897.75
1097.724	2885.75
1101.122	2884.41667
1104.516	2882.41667
1107.908	2887.08333
1111.298	2945.75
1114.684	2979.08333
1118.069	3017.75
1121.45	3043.08333
1124.83	3018.41667
1128.206	3052.08333
1131.58	3104.75
1134.951	3166.08333
1138.32	3271.08333
1141.687	3383.08333
1145.05	3497.41667
1148.412	3554.08333
1151.77	3533.75
1155.126	3539.41667
1158.48	3518.08333
1161.831	3554.41667
1165.18	3600.08333
1168.525	3650.75
1171.869	3710.75
1175.21	3738.75
1178.548	3795.08333
1181.884	3869.41667
1185.217	3866.75
1188.548	3924.75
1191.877	3986.75
1195.202	4031.75
1198.526	4098.75
1201.846	4104.75
1205.165	4080.08333
1208.48	4058.75
1211.794	4041.75
1215.104	4025.41667
1218.413	4009.08333
1221.719	4047.08333
1225.022	3954.75
1228.323	3962.75
1231.621	3929.41667
1234.917	3919.41667
1238.21	3920.41667
1241.501	3915.08333
1244.79	3927.08333
1248.076	3941.41667
1251.359	3969.41667
1254.64	4038.75
1257.919	4052.41667
1261.195	4116.08333
1264.468	4190.41667
1267.74	4248.41667
1271.008	4289.08333
1274.275	4243.41667
1277.538	4161.75
1280.8	4196.08333
1284.059	4198.75
1287.315	4224.08333
1290.569	4292.41667
1293.821	4298.41667
1297.07	4300.41667
1300.317	4291.75
1303.562	4304.08333
1306.803	4274.08333
1310.043	4240.41667
1313.28	4175.75
1316.515	4146.41667
1319.747	4124.08333
1322.977	4049.41667
1326.204	4014.75
1329.429	3940.75
1332.652	3932.41667
1335.872	3902.08333
1339.09	3893.41667
1342.306	3910.41667
1345.519	3862.08333
1348.729	3870.08333
1351.938	3822.41667
1355.144	3774.41667
1358.347	3693.75
1361.548	3681.75
1364.747	3719.75
1367.944	3674.08333
1371.138	3677.75
1374.329	3681.75
1377.518	3734.41667
1380.705	3781.75
1383.89	3739.08333
1387.072	3632.08333
1390.252	3522.75
1393.429	3416.08333
1396.605	3320.75
1399.777	3234.08333
1402.948	3180.41667
1406.116	3149.75
1409.282	3159.08333
1412.445	3142.08333
1415.606	3212.75
1418.765	3230.08333
1421.921	3306.08333
1425.075	3379.08333
1428.227	3490.75
1431.376	3590.75
1434.524	3780.41667
1437.668	3872.75
1440.811	3896.75
1443.951	3936.75
1447.089	3942.08333
1450.224	3941.08333
1453.357	3930.41667
1456.488	3903.08333
1459.617	3845.75
1462.743	3799.41667
1465.867	3745.41667
1468.989	3695.75
1472.108	3633.08333
1475.225	3580.75
1478.34	3539.75
1481.453	3553.41667
1484.563	3542.41667
1487.671	3583.41667
1490.776	3661.75
1493.88	3725.08333
1496.981	3805.41667
1500.08	3905.41667
1503.176	3961.75
1506.271	4019.08333
1509.363	4080.41667
1512.452	4124.41667
1515.54	4178.08333
1518.625	4307.08333
1521.708	4524.75
1524.789	4738.75
1527.867	5032.41667
1530.944	5330.75
1534.018	5606.75
1537.089	5664.75
1540.159	5586.41667
1543.226	5437.08333
1546.291	5232.75
1549.354	5045.41667
1552.415	4862.41667
1555.473	4755.41667
1558.529	4690.41667
1561.583	4642.08333
1564.634	4641.08333
1567.684	4634.41667
1570.731	4665.08333
1573.776	4691.41667
1576.819	4734.41667
1579.859	4802.75
1582.898	4883.08333
1585.934	4924.41667
1588.968	4942.41667
1591.999	4920.75
1595.029	4935.08333
1598.056	4947.75
1601.081	4952.41667
1604.104	4917.41667
1607.125	4863.08333
1610.144	4791.41667
1613.16	4669.75
1616.174	4538.08333
1619.186	4425.75
1622.196	4329.75
1625.203	4216.08333
1628.209	4144.41667
1631.212	4116.75
1634.213	4081.41667
1637.212	4029.08333
1640.209	3981.41667
1643.203	3877.41667
1646.196	3748.08333
1649.186	3596.75
1652.174	3524.08333
1655.16	3375.75
1658.144	3249.41667
1661.125	3130.75
1664.105	2966.41667
1667.082	2835.41667
1670.057	2669.75
1673.03	2522.08333
1676.001	2352.41667
1678.97	2211.41667
1681.937	2097.08333
1684.901	1967.75
1687.863	1924.41667
1690.824	1822.41667
1693.782	1804.41667
1696.738	1751.75
1699.692	1708.08333
1702.643	1643.08333
1705.593	1636.41667
1708.54	1599.08333
1711.486	1599.41667
1714.429	1563.75
1717.37	1536.41667
1720.309	1524.75
1723.246	1535.08333
1726.181	1487.08333
1729.113	1493.41667
1732.044	1483.08333
1734.972	1459.41667
1737.899	1466.08333
1740.823	1458.75
1743.745	1411.08333
1746.665	1401.75
1749.583	1382.08333
1752.499	1363.75
1755.413	1337.08333
1758.325	1304.41667
1761.235	1308.08333
1764.142	1276.75
1767.048	1273.41667
1769.951	1267.41667
1772.852	1254.41667
1775.752	1233.75
1778.649	1255.41667
1781.544	1237.08333
1784.437	1223.75
1787.328	1219.41667
1790.217	1195.75
1793.104	1186.08333
1795.989	1181.08333
1798.872	1180.41667
1801.753	1186.41667
1804.631	1182.75
1807.508	1198.41667
1810.383	1182.08333
1813.255	1169.41667
1816.126	1155.75
1818.994	1174.08333
1821.861	1139.08333
1824.725	1149.41667
1827.587	1145.41667
1830.448	1142.08333
1833.306	1108.08333
1836.162	1124.75
1839.017	1110.75
1841.869	1111.08333
1844.719	1114.41667
1847.567	1091.41667
1850.414	1082.75
1853.258	1077.75
1856.1	1099.75
1858.94	1094.41667
1861.778	1097.75
1864.614	1075.75
1867.448	1083.41667
1870.28	1075.41667
1873.111	1106.08333
1875.939	1089.75
1878.765	1108.08333
1881.589	1078.08333
1884.411	1080.41667
1887.231	1081.41667
1890.049	1064.75
1892.865	1059.41667
1895.68	1064.41667
1898.492	1053.08333
1901.302	1051.75
1904.11	1056.41667
1906.916	1040.75
1909.721	1027.41667
1912.523	1045.08333
1915.323	1013.75
1918.122	1016.75
1920.918	1028.08333
1923.712	1023.08333
1926.505	1018.08333
1929.295	1000.75
1932.084	1020.41667
1934.87	1009.75
1937.655	1008.41667
1940.438	1011.75
1943.218	1004.41667
1945.997	1003.41667
1948.774	1029.08333
1951.549	1003.75
1954.322	996.08333
1957.093	1015.75
1959.862	979.75
1962.629	986.41667
1965.394	983.08333
1968.157	969.41667
1970.918	986.41667
1973.678	967.41667
1976.435	978.08333
1979.19	966.41667
1981.944	963.41667
1984.696	959.41667
1987.445	961.41667
1990.193	960.41667
1992.939	967.08333
1995.683	953.75
1998.425	939.08333
2001.165	970.75
2003.903	947.41667
2006.639	945.08333
2009.374	932.75
2012.106	949.75
2014.837	923.75
2017.566	950.75
2020.292	927.08333
2023.017	948.08333
2025.74	923.41667
2028.461	930.41667
2031.18	928.41667
2033.898	909.75
2036.613	927.08333
2039.327	927.75
2042.038	908.75
2044.748	918.75
2047.456	905.75
2050.162	895.08333
2052.866	900.08333
2055.568	904.75
2058.268	894.08333
2060.967	905.41667
2063.663	896.08333
2066.358	903.41667
2069.051	888.75
2071.742	894.41667
2074.431	893.41667
2077.118	900.08333
2079.804	875.41667
2082.487	891.41667
2085.169	905.75
2087.849	920.75
2090.527	890.41667
2093.203	912.75
2095.877	919.41667
2098.55	915.75
2101.22	942.75
2103.889	947.75
2106.556	940.41667
2109.221	964.08333
2111.884	985.41667
2114.546	1038.41667
2117.205	1117.75
2119.863	1197.41667
2122.519	1275.75
2125.173	1362.75
2127.825	1500.08333
2130.475	1526.75
2133.124	1501.41667
2135.771	1472.75
2138.416	1432.08333
2141.059	1340.41667
2143.7	1281.08333
2146.339	1188.08333
2148.977	1133.08333
2151.613	1124.41667
2154.247	1067.41667
2156.879	1048.41667
2159.51	1047.75
2162.138	1021.41667
2164.765	1028.75
2167.39	1009.08333
2170.013	1032.08333
2172.634	1013.75
2175.254	1013.75
2177.872	1039.75
2180.488	993.08333
2183.102	996.41667
2185.714	972.41667
2188.325	961.41667
2190.934	951.41667
2193.541	931.41667
2196.146	908.75
2198.75	876.08333
2201.351	875.41667
2203.951	857.08333
2206.549	866.08333
2209.146	843.75
2211.74	837.08333
2214.333	839.41667
2216.924	814.08333
2219.514	813.08333
2222.101	802.75
2224.687	820.41667
2227.271	788.08333
2229.853	798.41667
2232.433	778.75
2235.012	807.75
2237.589	805.41667
2240.164	799.08333
2242.738	781.41667
2245.309	776.41667
2247.879	767.41667
2250.448	776.41667
2253.014	739.41667
2255.579	735.75
2258.142	732.08333
2260.703	720.41667
2263.262	718.41667
2265.82	718.41667
2268.376	729.75
2270.93	703.41667
2273.483	710.41667
2276.033	719.08333
2278.583	694.08333
2281.13	699.41667
2283.675	690.75
2286.219	678.41667
2288.761	687.08333
2291.302	689.75
2293.841	696.75
2296.377	670.08333
2298.913	668.75
2301.446	684.75
2303.978	672.75
2306.508	670.75
2309.037	669.75
2311.563	675.41667
2314.088	661.75
2316.612	640.41667
2319.133	658.75
2321.653	651.08333
2324.171	648.75
2326.688	657.08333
2329.202	647.41667
2331.715	648.08333
2334.227	639.75
2336.736	637.41667
2339.244	632.75
2341.751	635.41667
2344.255	639.08333
2346.758	623.41667
2349.259	621.41667
2351.759	629.08333
2354.257	609.75
2356.753	617.41667
2359.247	619.41667
2361.74	628.41667
2364.231	619.41667
2366.721	632.75
2369.209	603.75
2371.695	611.41667
2374.179	609.75
2376.662	601.75
2379.143	619.08333
2381.622	607.41667
2384.1	618.08333
2386.576	603.75
2389.051	608.75
2391.524	611.08333
2393.995	609.75
2396.464	599.08333
2398.932	598.75
2401.398	593.08333
2403.863	592.75
2406.325	584.75
2408.787	599.41667
2411.246	584.41667
2413.704	595.08333
2416.16	584.75
2418.615	579.41667
2421.068	587.41667
2423.519	577.08333
2425.969	563.75
2428.417	580.75
2430.863	603.08333
2433.308	582.08333
2435.751	576.41667
2438.193	584.41667
2440.633	585.08333
2443.071	575.41667
2445.508	556.41667
2447.943	565.41667
2450.376	562.08333
2452.808	563.75
2455.238	551.75
2457.667	595.08333
2460.093	565.75
2462.519	537.75
2464.942	541.75
2467.365	564.08333
2469.785	562.41667
2472.204	550.41667
2474.621	546.75
2477.037	571.75
2479.451	532.41667
2481.863	537.41667
2484.274	536.75
2486.683	542.41667
2489.091	556.75
2491.497	545.75
2493.901	531.41667
2496.304	540.75
2498.705	540.75
2501.105	541.41667
2503.503	560.08333
2505.899	531.08333
2508.294	544.41667
2510.687	533.75
2513.079	519.75
2515.469	520.75
2517.858	516.41667
2520.245	549.08333
2522.63	514.75
2525.014	524.08333
2527.396	507.08333
2529.776	519.41667
2532.156	516.08333
2534.533	500.08333
2536.909	518.41667
2539.283	499.08333
2541.656	504.41667
2544.027	535.41667
2546.397	522.41667
2548.765	513.08333
2551.131	509.08333
2553.496	512.08333
2555.86	509.08333
2558.221	506.75
2560.582	504.08333
2562.94	494.41667
2565.298	504.08333
2567.653	519.08333
2570.007	485.75
2572.36	516.75
2574.711	503.41667
2577.06	514.75
2579.408	503.41667
2581.754	503.41667
2584.099	503.41667
2586.442	496.41667
2588.784	499.41667
2591.124	506.08333
2593.463	500.08333
2595.8	505.75
2598.135	474.08333
2600.469	484.41667
2602.802	499.08333
2605.133	507.75
2607.462	481.08333
2609.79	489.08333
2612.116	491.41667
2614.441	487.41667
2616.764	495.41667
2619.086	494.75
2621.406	476.41667
2623.725	494.75
2626.042	497.08333
2628.358	494.41667
2630.672	483.41667
2632.985	498.41667
2635.296	494.75
2637.606	496.41667
2639.914	474.08333
2642.22	494.08333
2644.525	487.41667
2646.829	487.41667
2649.131	502.75
2651.432	500.75
2653.731	495.75
2656.028	500.41667
2658.324	501.08333
2660.619	484.08333
2662.912	496.41667
2665.204	474.41667
2667.494	492.08333
2669.782	482.41667
2672.07	498.75
2674.355	505.41667
2676.639	485.75
2678.922	485.08333
2681.203	501.41667
2683.483	481.75
2685.761	481.41667
2688.038	498.41667
2690.313	504.41667
2692.587	491.75
2694.859	489.75
2697.13	493.41667
2699.399	492.41667
2701.667	510.41667
2703.933	503.41667
2706.198	509.08333
2708.461	512.41667
2710.723	508.08333
2712.984	508.08333
2715.243	523.08333
2717.5	517.41667
2719.757	525.41667
2722.011	514.08333
2724.264	533.75
2726.516	545.75
2728.766	513.75
2731.015	527.75
2733.262	528.41667
2735.508	519.41667
2737.753	519.41667
2739.996	507.08333
2742.237	508.75
2744.477	524.08333
2746.716	508.41667
2748.953	508.41667
2751.189	513.08333
2753.423	502.08333
2755.656	488.41667
2757.887	483.08333
2760.117	487.08333
2762.346	482.41667
2764.573	475.08333
2766.798	481.75
2769.022	488.75
2771.245	483.75
2773.467	490.08333
2775.686	486.75
2777.905	491.08333
2780.122	494.08333
2782.337	500.08333
2784.552	492.41667
2786.764	515.41667
2788.976	507.41667
2791.186	514.41667
2793.394	516.41667
2795.601	520.75
2797.807	538.08333
2800.011	543.08333
2802.214	546.75
2804.415	543.41667
2806.615	548.08333
2808.814	565.08333
2811.011	573.08333
2813.206	572.41667
2815.401	577.08333
2817.594	585.08333
2819.785	593.41667
2821.975	599.08333
2824.164	605.75
2826.351	623.41667
2828.537	642.41667
2830.722	668.41667
2832.905	675.08333
2835.086	707.08333
2837.267	746.41667
2839.445	773.41667
2841.623	798.41667
2843.799	836.75
2845.974	883.41667
2848.147	908.75
2850.319	947.75
2852.489	963.08333
2854.659	982.75
2856.826	1016.08333
2858.993	1027.08333
2861.158	1032.08333
2863.321	1030.41667
2865.483	1047.41667
2867.644	1056.75
2869.804	1063.41667
2871.962	1039.41667
2874.118	1044.41667
2876.274	1027.08333
2878.428	1041.08333
2880.58	1048.75
2882.731	1035.75
2884.881	1030.41667
2887.03	1023.41667
2889.177	1020.08333
2891.322	1046.75
2893.467	1035.41667
2895.61	1048.41667
2897.751	1064.41667
2899.892	1062.75
2902.03	1083.75
2904.168	1091.08333
2906.304	1092.08333
2908.439	1120.41667
2910.572	1106.75
2912.704	1110.75
2914.835	1107.41667
2916.965	1111.41667
2919.093	1126.41667
2921.219	1074.75
2923.345	1102.75
2925.469	1082.41667
2927.591	1068.75
2929.712	1023.41667
2931.832	1020.75
2933.951	999.08333
2936.068	973.08333
2938.184	939.41667
2940.299	916.08333
2942.412	887.08333
2944.524	842.75
2946.634	819.08333
2948.744	784.08333
2950.851	785.08333
2952.958	742.75
2955.063	714.41667
2957.167	709.75
2959.269	674.75
2961.371	681.41667
2963.471	629.41667
2965.569	640.75
2967.666	594.75
2969.762	599.41667
2971.857	568.75
2973.95	555.75
2976.042	549.08333
2978.133	529.41667
2980.222	522.08333
2982.31	490.08333
2984.396	485.08333
2986.482	473.75
2988.566	484.75
2990.648	453.75
2992.73	457.41667
2994.81	441.08333
2996.889	440.08333
2998.966	440.08333
3001.042	433.75
3003.117	428.75
3005.191	429.75
3007.263	419.41667
3009.334	410.75
3011.403	405.75
3013.472	391.75
3015.539	386.08333
3017.604	403.41667
3019.669	365.75
3021.732	366.75
3023.794	370.75
3025.854	349.41667
3027.914	355.08333
3029.971	356.41667
3032.028	351.08333
3034.083	352.75
3036.137	338.75
3038.19	339.08333
3040.242	322.41667
3042.292	317.41667
3044.341	316.08333
3046.388	334.08333
3048.435	304.75
3050.48	322.08333
3052.524	316.75
3054.566	291.75
3056.607	312.75
3058.647	303.75
3060.686	283.08333
3062.723	281.08333
3064.759	265.75
3066.794	-0.58333
3068.828	0.41667
3070.86	-2.91667
