-0.839	427.79167
3.438	458.79167
7.711	132.125
11.981	55.79167
16.247	49.79167
20.509	44.125
24.768	45.45833
29.024	48.45833
33.276	46.45833
37.524	50.79167
41.769	44.125
46.01	39.125
50.247	54.125
54.481	62.45833
58.712	67.79167
62.939	55.45833
67.162	64.125
71.382	63.45833
75.599	51.45833
79.812	66.125
84.021	83.79167
88.227	62.79167
92.429	71.125
96.628	56.125
100.823	68.125
105.015	78.125
109.204	85.125
113.388	85.125
117.57	84.45833
121.748	97.45833
125.922	93.125
130.093	113.45833
134.261	120.79167
138.425	114.125
142.585	158.45833
146.742	166.125
150.896	197.45833
155.046	250.125
159.193	402.79167
163.336	707.79167
167.476	1299.79167
171.613	2363.79167
175.746	3953.79167
179.875	5789.79167
184.002	7564.45833
188.124	8685.45833
192.244	9118.45833
196.36	9090.79167
200.472	8879.125
204.581	8688.79167
208.687	8557.125
212.79	8540.125
216.889	8601.125
220.984	8731.125
225.077	8884.45833
229.165	9010.125
233.251	9138.79167
237.333	9221.79167
241.412	9243.45833
245.487	9273.125
249.559	9161.45833
253.628	9057.125
257.694	8965.125
261.756	8801.45833
265.814	8655.79167
269.87	8373.79167
273.922	7990.45833
277.97	7699.79167
282.016	7348.45833
286.058	7042.125
290.097	6806.125
294.132	6712.125
298.164	6584.79167
302.193	6448.45833
306.219	6019.125
310.241	5547.45833
314.26	4987.125
318.276	4581.45833
322.288	4254.79167
326.297	4001.79167
330.303	3816.45833
334.305	3696.125
338.305	3629.45833
342.301	3593.125
346.294	3553.45833
350.283	3525.125
354.269	3500.125
358.252	3517.125
362.232	3459.79167
366.209	3470.79167
370.182	3429.79167
374.152	3426.79167
378.119	3443.125
382.083	3436.79167
386.043	3469.45833
390	3426.125
393.954	3371.45833
397.905	3326.45833
401.852	3314.79167
405.797	3227.79167
409.738	3163.79167
413.676	3119.45833
417.61	3065.79167
421.542	3029.79167
425.47	2973.125
429.396	2945.45833
433.318	2900.45833
437.236	2904.79167
441.152	2893.79167
445.065	2820.45833
448.974	2814.125
452.88	2795.45833
456.783	2763.79167
460.683	2745.45833
464.58	2774.79167
468.473	2755.45833
472.364	2766.125
476.251	2767.45833
480.135	2775.45833
484.016	2799.125
487.894	2786.45833
491.769	2803.125
495.641	2811.45833
499.509	2794.45833
503.375	2785.79167
507.237	2805.125
511.096	2782.79167
514.952	2767.125
518.805	2787.45833
522.655	2773.125
526.502	2739.45833
530.346	2780.45833
534.187	2761.45833
538.024	2742.79167
541.859	2767.125
545.69	2796.45833
549.519	2758.45833
553.344	2755.45833
557.166	2707.79167
560.985	2704.125
564.802	2660.45833
568.615	2619.125
572.425	2606.125
576.232	2575.45833
580.036	2577.125
583.836	2590.45833
587.634	2563.125
591.429	2565.79167
595.221	2603.125
599.01	2635.79167
602.796	2683.79167
606.578	2708.125
610.358	2688.45833
614.135	2712.79167
617.909	2701.79167
621.679	2691.79167
625.447	2661.79167
629.212	2708.125
632.973	2674.125
636.732	2661.79167
640.488	2675.125
644.241	2642.125
647.991	2645.125
651.737	2682.45833
655.481	2662.125
659.222	2686.125
662.96	2690.125
666.695	2702.45833
670.427	2696.79167
674.156	2700.45833
677.882	2707.45833
681.605	2691.45833
685.325	2649.125
689.043	2645.79167
692.757	2636.125
696.468	2677.125
700.177	2651.45833
703.882	2644.79167
707.585	2647.45833
711.284	2640.45833
714.981	2659.79167
718.675	2650.125
722.366	2663.125
726.054	2629.125
729.739	2666.45833
733.421	2643.125
737.1	2669.45833
740.777	2677.79167
744.45	2698.125
748.121	2677.45833
751.789	2749.79167
755.453	2739.125
759.115	2770.45833
762.774	2801.79167
766.431	2803.45833
770.084	2838.45833
773.734	2868.79167
777.382	2911.79167
781.027	2931.79167
784.669	2948.125
788.308	2974.79167
791.944	2970.125
795.577	3042.45833
799.208	3052.79167
802.835	3083.45833
806.46	3129.79167
810.082	3164.125
813.701	3184.125
817.317	3227.79167
820.931	3224.45833
824.542	3227.79167
828.149	3192.79167
831.754	3154.45833
835.357	3109.79167
838.956	3101.125
842.553	3097.79167
846.146	3070.125
849.737	3053.45833
853.326	3055.79167
856.911	3065.125
860.493	3105.79167
864.073	3145.45833
867.65	3182.125
871.225	3229.45833
874.796	3237.79167
878.365	3220.45833
881.931	3259.125
885.494	3292.79167
889.054	3263.45833
892.612	3278.79167
896.166	3251.79167
899.719	3234.79167
903.268	3197.45833
906.814	3182.79167
910.358	3186.79167
913.899	3172.79167
917.438	3175.79167
920.973	3194.45833
924.506	3218.125
928.036	3260.125
931.564	3299.79167
935.088	3344.79167
938.61	3316.125
942.129	3344.45833
945.646	3412.45833
949.16	3486.79167
952.671	3584.79167
956.179	3631.125
959.685	3666.125
963.188	3657.125
966.688	3601.79167
970.185	3497.79167
973.68	3451.125
977.173	3393.79167
980.662	3333.79167
984.149	3343.45833
987.633	3384.79167
991.114	3429.45833
994.593	3549.79167
998.069	3659.125
1001.542	3800.45833
1005.013	3722.125
1008.481	3513.125
1011.947	3436.45833
1015.409	3430.79167
1018.869	3403.79167
1022.327	3406.125
1025.782	3391.45833
1029.234	3393.45833
1032.683	3360.125
1036.13	3249.79167
1039.574	3113.79167
1043.016	3075.45833
1046.455	2991.125
1049.891	2955.45833
1053.325	2938.79167
1056.756	2924.125
1060.184	2946.79167
1063.61	2962.125
1067.033	2994.79167
1070.454	2973.45833
1073.872	3017.79167
1077.287	3015.125
1080.7	3014.125
1084.11	3029.79167
1087.517	3019.45833
1090.922	2954.45833
1094.325	2917.79167
1097.724	2889.79167
1101.122	2901.45833
1104.516	2902.79167
1107.908	2882.125
1111.298	2956.125
1114.684	2990.79167
1118.069	3030.125
1121.45	3038.45833
1124.83	3011.125
1128.206	3026.79167
1131.58	3066.79167
1134.951	3150.125
1138.32	3239.79167
1141.687	3363.79167
1145.05	3458.45833
1148.412	3513.125
1151.77	3516.125
1155.126	3488.79167
1158.48	3501.79167
1161.831	3546.45833
1165.18	3566.45833
1168.525	3604.125
1171.869	3678.45833
1175.21	3678.125
1178.548	3756.125
1181.884	3788.45833
1185.217	3807.45833
1188.548	3875.45833
1191.877	3925.125
1195.202	3996.125
1198.526	4063.125
1201.846	4039.45833
1205.165	4063.125
1208.48	4047.125
1211.794	4009.125
1215.104	4019.125
1218.413	4008.125
1221.719	4009.45833
1225.022	3966.79167
1228.323	3910.45833
1231.621	3930.79167
1234.917	3903.79167
1238.21	3934.125
1241.501	3925.79167
1244.79	3905.79167
1248.076	3920.125
1251.359	3949.45833
1254.64	4043.79167
1257.919	4053.79167
1261.195	4106.79167
1264.468	4201.125
1267.74	4201.79167
1271.008	4250.79167
1274.275	4240.125
1277.538	4209.79167
1280.8	4172.79167
1284.059	4190.45833
1287.315	4240.79167
1290.569	4258.79167
1293.821	4294.125
1297.07	4342.79167
1300.317	4352.79167
1303.562	4310.125
1306.803	4300.45833
1310.043	4294.79167
1313.28	4227.79167
1316.515	4167.125
1319.747	4188.125
1322.977	4127.79167
1326.204	4028.125
1329.429	4020.125
1332.652	3984.125
1335.872	3957.79167
1339.09	3948.45833
1342.306	3973.45833
1345.519	3948.125
1348.729	3915.45833
1351.938	3914.45833
1355.144	3861.79167
1358.347	3789.45833
1361.548	3781.125
1364.747	3796.45833
1367.944	3789.45833
1371.138	3849.45833
1374.329	3839.125
1377.518	3887.125
1380.705	3893.125
1383.89	3874.79167
1387.072	3779.79167
1390.252	3639.45833
1393.429	3517.79167
1396.605	3428.45833
1399.777	3310.79167
1402.948	3288.125
1406.116	3257.79167
1409.282	3247.45833
1412.445	3248.45833
1415.606	3276.79167
1418.765	3289.125
1421.921	3360.125
1425.075	3434.125
1428.227	3565.125
1431.376	3734.45833
1434.524	3894.125
1437.668	3960.125
1440.811	4009.45833
1443.951	4036.125
1447.089	4016.45833
1450.224	4029.45833
1453.357	3999.79167
1456.488	4003.45833
1459.617	3919.45833
1462.743	3885.79167
1465.867	3762.45833
1468.989	3751.125
1472.108	3663.125
1475.225	3606.45833
1478.34	3587.79167
1481.453	3565.125
1484.563	3600.125
1487.671	3637.79167
1490.776	3694.125
1493.88	3739.45833
1496.981	3847.125
1500.08	3917.79167
1503.176	3990.45833
1506.271	4067.45833
1509.363	4143.45833
1512.452	4185.79167
1515.54	4288.79167
1518.625	4420.125
1521.708	4619.45833
1524.789	4908.45833
1527.867	5224.125
1530.944	5497.125
1534.018	5677.45833
1537.089	5714.45833
1540.159	5610.79167
1543.226	5440.79167
1546.291	5195.79167
1549.354	5035.79167
1552.415	4876.45833
1555.473	4780.79167
1558.529	4689.125
1561.583	4677.79167
1564.634	4652.125
1567.684	4648.79167
1570.731	4673.79167
1573.776	4748.45833
1576.819	4827.45833
1579.859	4858.45833
1582.898	4949.45833
1585.934	4967.45833
1588.968	5033.125
1591.999	4980.45833
1595.029	4987.125
1598.056	5001.125
1601.081	5069.125
1604.104	5016.125
1607.125	4954.125
1610.144	4876.79167
1613.16	4777.125
1616.174	4679.125
1619.186	4592.125
1622.196	4522.125
1625.203	4435.125
1628.209	4371.45833
1631.212	4331.125
1634.213	4330.125
1637.212	4290.125
1640.209	4239.45833
1643.203	4162.125
1646.196	4032.125
1649.186	3840.79167
1652.174	3724.125
1655.16	3624.125
1658.144	3510.79167
1661.125	3324.125
1664.105	3165.45833
1667.082	2998.45833
1670.057	2835.45833
1673.03	2657.45833
1676.001	2472.79167
1678.97	2334.79167
1681.937	2172.79167
1684.901	2044.79167
1687.863	2000.79167
1690.824	1901.125
1693.782	1870.125
1696.738	1806.125
1699.692	1746.45833
1702.643	1715.45833
1705.593	1703.45833
1708.54	1672.45833
1711.486	1664.125
1714.429	1618.79167
1717.37	1621.125
1720.309	1577.79167
1723.246	1598.125
1726.181	1552.45833
1729.113	1554.125
1732.044	1531.45833
1734.972	1511.125
1737.899	1502.125
1740.823	1501.45833
1743.745	1490.45833
1746.665	1453.125
1749.583	1423.79167
1752.499	1410.125
1755.413	1389.125
1758.325	1360.79167
1761.235	1359.79167
1764.142	1324.45833
1767.048	1318.79167
1769.951	1299.125
1772.852	1298.45833
1775.752	1288.125
1778.649	1283.45833
1781.544	1288.125
1784.437	1254.125
1787.328	1277.79167
1790.217	1264.125
1793.104	1232.79167
1795.989	1219.45833
1798.872	1211.79167
1801.753	1249.125
1804.631	1229.79167
1807.508	1232.125
1810.383	1215.79167
1813.255	1216.79167
1816.126	1231.125
1818.994	1186.45833
1821.861	1193.45833
1824.725	1192.125
1827.587	1177.45833
1830.448	1183.79167
1833.306	1155.79167
1836.162	1165.79167
1839.017	1146.79167
1841.869	1158.45833
1844.719	1147.79167
1847.567	1148.125
1850.414	1149.45833
1853.258	1123.125
1856.1	1142.125
1858.94	1143.79167
1861.778	1139.45833
1864.614	1127.79167
1867.448	1129.125
1870.28	1115.45833
1873.111	1147.45833
1875.939	1133.125
1878.765	1137.125
1881.589	1113.125
1884.411	1123.79167
1887.231	1129.45833
1890.049	1115.79167
1892.865	1110.79167
1895.68	1100.79167
1898.492	1095.125
1901.302	1084.45833
1904.11	1081.45833
1906.916	1081.79167
1909.721	1075.125
1912.523	1085.79167
1915.323	1063.45833
1918.122	1073.45833
1920.918	1069.45833
1923.712	1052.79167
1926.505	1060.79167
1929.295	1041.79167
1932.084	1071.45833
1934.87	1072.79167
1937.655	1055.125
1940.438	1036.79167
1943.218	1042.45833
1945.997	1065.45833
1948.774	1054.45833
1951.549	1062.45833
1954.322	1043.45833
1957.093	1043.79167
1959.862	1032.79167
1962.629	1031.79167
1965.394	1019.125
1968.157	1004.125
1970.918	1028.79167
1973.678	1015.45833
1976.435	1012.45833
1979.19	1011.125
1981.944	1005.125
1984.696	1007.79167
1987.445	990.125
1990.193	1001.125
1992.939	1012.45833
1995.683	993.125
1998.425	974.45833
2001.165	1009.79167
2003.903	989.45833
2006.639	981.45833
2009.374	977.125
2012.106	996.125
2014.837	963.79167
2017.566	987.79167
2020.292	967.125
2023.017	977.79167
2025.74	973.125
2028.461	971.45833
2031.18	972.79167
2033.898	964.45833
2036.613	988.79167
2039.327	971.125
2042.038	953.45833
2044.748	943.79167
2047.456	954.125
2050.162	937.125
2052.866	948.79167
2055.568	940.125
2058.268	951.125
2060.967	950.45833
2063.663	937.125
2066.358	942.45833
2069.051	926.125
2071.742	935.45833
2074.431	939.125
2077.118	933.79167
2079.804	931.45833
2082.487	932.45833
2085.169	943.125
2087.849	974.125
2090.527	928.125
2093.203	940.125
2095.877	942.79167
2098.55	933.45833
2101.22	958.45833
2103.889	964.45833
2106.556	952.125
2109.221	977.79167
2111.884	985.79167
2114.546	1041.125
2117.205	1074.125
2119.863	1157.45833
2122.519	1230.79167
2125.173	1317.45833
2127.825	1412.125
2130.475	1484.45833
2133.124	1470.79167
2135.771	1442.79167
2138.416	1398.79167
2141.059	1310.125
2143.7	1279.125
2146.339	1204.79167
2148.977	1152.125
2151.613	1127.79167
2154.247	1091.45833
2156.879	1085.125
2159.51	1067.125
2162.138	1050.125
2164.765	1078.45833
2167.39	1060.45833
2170.013	1073.125
2172.634	1072.45833
2175.254	1071.79167
2177.872	1096.45833
2180.488	1066.79167
2183.102	1067.45833
2185.714	1041.79167
2188.325	1010.125
2190.934	1016.79167
2193.541	1000.79167
2196.146	975.79167
2198.75	951.45833
2201.351	939.45833
2203.951	899.79167
2206.549	914.125
2209.146	894.45833
2211.74	876.45833
2214.333	892.79167
2216.924	848.45833
2219.514	863.125
2222.101	855.79167
2224.687	862.125
2227.271	840.125
2229.853	839.79167
2232.433	832.45833
2235.012	856.125
2237.589	845.79167
2240.164	859.125
2242.738	830.45833
2245.309	817.45833
2247.879	826.45833
2250.448	824.79167
2253.014	783.125
2255.579	786.45833
2258.142	788.79167
2260.703	759.79167
2263.262	764.79167
2265.82	758.79167
2268.376	765.125
2270.93	745.79167
2273.483	732.125
2276.033	750.125
2278.583	742.45833
2281.13	739.45833
2283.675	725.45833
2286.219	735.125
2288.761	722.45833
2291.302	740.79167
2293.841	729.45833
2296.377	702.79167
2298.913	719.45833
2301.446	726.79167
2303.978	711.79167
2306.508	707.79167
2309.037	703.79167
2311.563	709.45833
2314.088	712.125
2316.612	688.79167
2319.133	699.45833
2321.653	699.45833
2324.171	681.45833
2326.688	695.45833
2329.202	671.79167
2331.715	694.125
2334.227	682.79167
2336.736	684.79167
2339.244	669.125
2341.751	671.79167
2344.255	673.45833
2346.758	667.79167
2349.259	668.79167
2351.759	662.125
2354.257	657.125
2356.753	667.125
2359.247	655.79167
2361.74	671.125
2364.231	663.79167
2366.721	661.125
2369.209	639.45833
2371.695	644.79167
2374.179	646.79167
2376.662	651.125
2379.143	660.45833
2381.622	650.45833
2384.1	658.125
2386.576	642.125
2389.051	652.125
2391.524	658.125
2393.995	659.125
2396.464	634.125
2398.932	628.79167
2401.398	632.45833
2403.863	637.79167
2406.325	636.45833
2408.787	638.45833
2411.246	636.125
2413.704	618.79167
2416.16	621.79167
2418.615	622.79167
2421.068	637.79167
2423.519	630.45833
2425.969	615.45833
2428.417	634.79167
2430.863	645.45833
2433.308	634.125
2435.751	628.125
2438.193	616.125
2440.633	620.79167
2443.071	618.79167
2445.508	604.125
2447.943	597.45833
2450.376	605.125
2452.808	608.125
2455.238	605.45833
2457.667	631.125
2460.093	603.45833
2462.519	583.125
2464.942	592.79167
2467.365	601.79167
2469.785	596.79167
2472.204	605.45833
2474.621	591.45833
2477.037	614.79167
2479.451	578.45833
2481.863	579.125
2484.274	584.125
2486.683	584.125
2489.091	594.79167
2491.497	584.125
2493.901	588.45833
2496.304	579.79167
2498.705	586.79167
2501.105	576.125
2503.503	608.45833
2505.899	569.125
2508.294	599.125
2510.687	564.45833
2513.079	587.45833
2515.469	557.45833
2517.858	572.45833
2520.245	586.45833
2522.63	568.125
2525.014	569.125
2527.396	576.45833
2529.776	555.45833
2532.156	573.79167
2534.533	550.125
2536.909	559.125
2539.283	551.79167
2541.656	551.79167
2544.027	580.79167
2546.397	575.45833
2548.765	544.45833
2551.131	555.45833
2553.496	556.45833
2555.86	570.79167
2558.221	559.125
2560.582	550.79167
2562.94	548.79167
2565.298	550.125
2567.653	561.45833
2570.007	532.45833
2572.36	557.45833
2574.711	545.79167
2577.06	560.79167
2579.408	550.125
2581.754	547.79167
2584.099	549.125
2586.442	547.45833
2588.784	536.79167
2591.124	549.125
2593.463	539.79167
2595.8	544.45833
2598.135	528.79167
2600.469	547.125
2602.802	548.79167
2605.133	551.45833
2607.462	531.125
2609.79	533.45833
2612.116	533.125
2614.441	537.79167
2616.764	552.125
2619.086	529.45833
2621.406	531.125
2623.725	555.45833
2626.042	541.45833
2628.358	531.45833
2630.672	533.125
2632.985	542.125
2635.296	547.79167
2637.606	550.79167
2639.914	530.45833
2642.22	541.125
2644.525	527.79167
2646.829	541.45833
2649.131	544.79167
2651.432	549.45833
2653.731	540.45833
2656.028	551.125
2658.324	547.45833
2660.619	539.79167
2662.912	545.79167
2665.204	546.45833
2667.494	559.45833
2669.782	544.125
2672.07	551.79167
2674.355	555.45833
2676.639	543.79167
2678.922	533.79167
2681.203	555.79167
2683.483	530.125
2685.761	532.45833
2688.038	549.79167
2690.313	557.45833
2692.587	545.79167
2694.859	546.125
2697.13	548.79167
2699.399	551.79167
2701.667	566.125
2703.933	570.125
2706.198	563.79167
2708.461	575.45833
2710.723	582.79167
2712.984	561.125
2715.243	588.125
2717.5	578.125
2719.757	583.45833
2722.011	574.79167
2724.264	584.79167
2726.516	597.79167
2728.766	591.79167
2731.015	593.45833
2733.262	582.45833
2735.508	586.79167
2737.753	588.79167
2739.996	569.45833
2742.237	558.125
2744.477	576.79167
2746.716	578.79167
2748.953	560.79167
2751.189	563.125
2753.423	554.79167
2755.656	548.45833
2757.887	545.45833
2760.117	546.125
2762.346	540.79167
2764.573	529.125
2766.798	528.125
2769.022	552.45833
2771.245	548.125
2773.467	546.125
2775.686	548.45833
2777.905	552.45833
2780.122	560.45833
2782.337	551.79167
2784.552	551.79167
2786.764	558.125
2788.976	568.125
2791.186	560.45833
2793.394	566.79167
2795.601	577.125
2797.807	581.79167
2800.011	600.79167
2802.214	607.125
2804.415	601.45833
2806.615	601.45833
2808.814	620.79167
2811.011	607.79167
2813.206	612.79167
2815.401	625.79167
2817.594	650.79167
2819.785	672.125
2821.975	650.79167
2824.164	671.79167
2826.351	684.45833
2828.537	707.45833
2830.722	734.125
2832.905	736.45833
2835.086	773.45833
2837.267	808.45833
2839.445	830.79167
2841.623	872.45833
2843.799	916.45833
2845.974	967.125
2848.147	1017.45833
2850.319	1040.45833
2852.489	1083.45833
2854.659	1088.79167
2856.826	1125.45833
2858.993	1142.125
2861.158	1139.79167
2863.321	1154.45833
2865.483	1181.79167
2867.644	1169.45833
2869.804	1162.79167
2871.962	1159.45833
2874.118	1160.45833
2876.274	1149.79167
2878.428	1155.45833
2880.58	1146.79167
2882.731	1136.45833
2884.881	1151.79167
2887.03	1142.79167
2889.177	1165.79167
2891.322	1166.79167
2893.467	1175.45833
2895.61	1171.125
2897.751	1192.45833
2899.892	1190.125
2902.03	1211.125
2904.168	1217.79167
2906.304	1225.125
2908.439	1244.125
2910.572	1236.79167
2912.704	1253.45833
2914.835	1243.45833
2916.965	1252.79167
2919.093	1257.79167
2921.219	1222.125
2923.345	1250.125
2925.469	1211.45833
2927.591	1209.45833
2929.712	1168.79167
2931.832	1164.45833
2933.951	1140.79167
2936.068	1103.79167
2938.184	1082.125
2940.299	1041.79167
2942.412	1012.79167
2944.524	971.125
2946.634	946.79167
2948.744	889.45833
2950.851	904.79167
2952.958	848.45833
2955.063	826.79167
2957.167	816.125
2959.269	779.79167
2961.371	795.125
2963.471	737.45833
2965.569	747.125
2967.666	698.125
2969.762	700.45833
2971.857	668.45833
2973.95	641.45833
2976.042	644.45833
2978.133	620.79167
2980.222	609.45833
2982.31	585.45833
2984.396	566.125
2986.482	559.79167
2988.566	557.79167
2990.648	548.79167
2992.73	550.125
2994.81	526.79167
2996.889	524.79167
2998.966	518.79167
3001.042	522.125
3003.117	508.79167
3005.191	515.79167
3007.263	501.45833
3009.334	492.79167
3011.403	485.79167
3013.472	472.125
3015.539	480.79167
3017.604	479.45833
3019.669	441.45833
3021.732	449.79167
3023.794	451.45833
3025.854	427.79167
3027.914	432.45833
3029.971	436.79167
3032.028	433.45833
3034.083	440.79167
3036.137	430.125
3038.19	409.79167
3040.242	402.125
3042.292	388.79167
3044.341	389.125
3046.388	402.79167
3048.435	368.79167
3050.48	395.45833
3052.524	383.45833
3054.566	358.79167
3056.607	383.125
3058.647	367.45833
3060.686	355.125
3062.723	343.45833
3064.759	329.125
3066.794	-0.54167
3068.828	-1.20833
3070.86	-2.54167
