-0.839	472.70833
3.438	492.70833
7.711	142.04167
11.981	56.375
16.247	51.04167
20.509	47.70833
24.768	48.375
29.024	47.375
33.276	47.375
37.524	52.375
41.769	43.375
46.01	37.04167
50.247	54.375
54.481	60.375
58.712	71.04167
62.939	51.04167
67.162	63.70833
71.382	59.04167
75.599	52.375
79.812	69.04167
84.021	84.70833
88.227	61.375
92.429	68.70833
96.628	56.70833
100.823	75.04167
105.015	82.375
109.204	83.375
113.388	87.04167
117.57	85.04167
121.748	97.04167
125.922	90.70833
130.093	110.04167
134.261	119.375
138.425	114.04167
142.585	160.375
146.742	166.04167
150.896	195.70833
155.046	250.375
159.193	399.375
163.336	689.70833
167.476	1263.70833
171.613	2307.70833
175.746	3831.375
179.875	5674.375
184.002	7375.70833
188.124	8488.375
192.244	8896.70833
196.36	8851.04167
200.472	8665.04167
204.581	8516.375
208.687	8353.04167
212.79	8328.04167
216.889	8402.04167
220.984	8484.04167
225.077	8610.70833
229.165	8745.375
233.251	8897.04167
237.333	9018.04167
241.412	9029.70833
245.487	9011.375
249.559	8951.70833
253.628	8854.70833
257.694	8729.70833
261.756	8650.70833
265.814	8468.70833
269.87	8175.375
273.922	7836.04167
277.97	7500.375
282.016	7220.04167
286.058	6948.70833
290.097	6825.04167
294.132	6715.70833
298.164	6573.70833
302.193	6365.04167
306.219	5955.375
310.241	5466.375
314.26	4968.70833
318.276	4574.70833
322.288	4284.70833
326.297	4088.04167
330.303	3928.04167
334.305	3790.70833
338.305	3734.04167
342.301	3703.70833
346.294	3638.04167
350.283	3616.04167
354.269	3598.375
358.252	3599.375
362.232	3575.375
366.209	3568.375
370.182	3530.04167
374.152	3518.70833
378.119	3526.375
382.083	3522.70833
386.043	3580.70833
390	3510.375
393.954	3485.04167
397.905	3439.70833
401.852	3426.04167
405.797	3355.70833
409.738	3317.70833
413.676	3269.04167
417.61	3233.375
421.542	3197.70833
425.47	3148.375
429.396	3120.375
433.318	3105.375
437.236	3080.375
441.152	3082.70833
445.065	3023.375
448.974	3010.375
452.88	2973.04167
456.783	2981.375
460.683	2933.375
464.58	2958.04167
468.473	2948.375
472.364	2946.70833
476.251	2976.04167
480.135	2997.04167
484.016	3007.04167
487.894	3042.375
491.769	3032.375
495.641	3045.70833
499.509	3035.70833
503.375	3025.70833
507.237	3016.70833
511.096	3008.70833
514.952	2975.375
518.805	3013.70833
522.655	2975.70833
526.502	2961.70833
530.346	2971.04167
534.187	2980.04167
538.024	2968.375
541.859	2969.70833
545.69	3002.70833
549.519	2987.04167
553.344	2960.375
557.166	2914.04167
560.985	2890.70833
564.802	2866.375
568.615	2844.04167
572.425	2791.375
576.232	2782.04167
580.036	2762.375
583.836	2788.375
587.634	2786.375
591.429	2773.70833
595.221	2818.04167
599.01	2864.70833
602.796	2884.70833
606.578	2924.04167
610.358	2899.375
614.135	2894.375
617.909	2906.375
621.679	2872.375
625.447	2866.04167
629.212	2879.375
632.973	2866.375
636.732	2870.04167
640.488	2867.04167
644.241	2824.04167
647.991	2838.70833
651.737	2854.375
655.481	2849.70833
659.222	2875.04167
662.96	2881.375
666.695	2901.70833
670.427	2882.70833
674.156	2891.70833
677.882	2872.70833
681.605	2859.70833
685.325	2824.375
689.043	2840.375
692.757	2835.70833
696.468	2850.375
700.177	2839.70833
703.882	2822.375
707.585	2845.04167
711.284	2822.375
714.981	2827.70833
718.675	2847.04167
722.366	2852.375
726.054	2814.375
729.739	2818.04167
733.421	2824.04167
737.1	2808.04167
740.777	2858.375
744.45	2867.70833
748.121	2895.70833
751.789	2947.04167
755.453	2937.375
759.115	2933.375
762.774	2988.04167
766.431	3006.375
770.084	3005.04167
773.734	3053.70833
777.382	3113.04167
781.027	3137.04167
784.669	3138.04167
788.308	3159.375
791.944	3158.04167
795.577	3217.70833
799.208	3221.70833
802.835	3266.70833
806.46	3290.375
810.082	3346.04167
813.701	3370.04167
817.317	3403.375
820.931	3403.375
824.542	3376.70833
828.149	3335.375
831.754	3289.375
835.357	3272.70833
838.956	3249.04167
842.553	3234.70833
846.146	3213.04167
849.737	3197.375
853.326	3224.70833
856.911	3199.375
860.493	3295.70833
864.073	3296.70833
867.65	3328.04167
871.225	3336.70833
874.796	3345.375
878.365	3368.70833
881.931	3376.04167
885.494	3417.70833
889.054	3425.04167
892.612	3431.70833
896.166	3376.04167
899.719	3363.04167
903.268	3334.375
906.814	3294.70833
910.358	3300.70833
913.899	3297.04167
917.438	3308.70833
920.973	3289.04167
924.506	3316.375
928.036	3383.04167
931.564	3404.70833
935.088	3458.375
938.61	3466.04167
942.129	3457.375
945.646	3523.375
949.16	3621.04167
952.671	3712.375
956.179	3759.375
959.685	3741.375
963.188	3751.375
966.688	3741.04167
970.185	3597.375
973.68	3553.375
977.173	3520.70833
980.662	3484.375
984.149	3524.04167
987.633	3531.70833
991.114	3602.70833
994.593	3649.70833
998.069	3785.04167
1001.542	3939.70833
1005.013	3814.04167
1008.481	3586.70833
1011.947	3515.04167
1015.409	3517.375
1018.869	3526.375
1022.327	3496.04167
1025.782	3491.04167
1029.234	3509.375
1032.683	3475.70833
1036.13	3355.04167
1039.574	3215.375
1043.016	3150.70833
1046.455	3080.04167
1049.891	3044.04167
1053.325	3037.375
1056.756	3046.70833
1060.184	3045.70833
1063.61	3065.70833
1067.033	3066.70833
1070.454	3084.70833
1073.872	3118.70833
1077.287	3106.70833
1080.7	3115.04167
1084.11	3122.70833
1087.517	3092.375
1090.922	3049.375
1094.325	3016.70833
1097.724	2976.70833
1101.122	2989.04167
1104.516	2946.04167
1107.908	2960.375
1111.298	3016.70833
1114.684	3063.375
1118.069	3104.375
1121.45	3117.04167
1124.83	3076.70833
1128.206	3097.70833
1131.58	3134.04167
1134.951	3237.70833
1138.32	3344.375
1141.687	3483.70833
1145.05	3558.375
1148.412	3567.375
1151.77	3578.04167
1155.126	3579.70833
1158.48	3589.04167
1161.831	3605.04167
1165.18	3628.04167
1168.525	3689.375
1171.869	3713.04167
1175.21	3742.375
1178.548	3825.04167
1181.884	3849.375
1185.217	3864.375
1188.548	3950.375
1191.877	4029.375
1195.202	4058.04167
1198.526	4140.375
1201.846	4135.70833
1205.165	4138.375
1208.48	4125.04167
1211.794	4106.70833
1215.104	4088.70833
1218.413	4085.04167
1221.719	4083.04167
1225.022	4036.04167
1228.323	4002.04167
1231.621	4009.04167
1234.917	3987.70833
1238.21	3980.70833
1241.501	4002.375
1244.79	3993.04167
1248.076	3983.375
1251.359	4025.375
1254.64	4088.375
1257.919	4122.375
1261.195	4189.70833
1264.468	4221.70833
1267.74	4286.375
1271.008	4314.04167
1274.275	4292.04167
1277.538	4254.375
1280.8	4258.375
1284.059	4251.375
1287.315	4279.375
1290.569	4330.70833
1293.821	4367.70833
1297.07	4343.375
1300.317	4368.04167
1303.562	4340.70833
1306.803	4332.70833
1310.043	4316.04167
1313.28	4256.70833
1316.515	4224.375
1319.747	4187.04167
1322.977	4154.375
1326.204	4081.375
1329.429	4042.375
1332.652	4016.04167
1335.872	4019.70833
1339.09	4025.04167
1342.306	3993.375
1345.519	3972.375
1348.729	3961.04167
1351.938	3968.375
1355.144	3904.70833
1358.347	3823.70833
1361.548	3788.375
1364.747	3838.04167
1367.944	3786.04167
1371.138	3810.70833
1374.329	3807.375
1377.518	3857.375
1380.705	3882.375
1383.89	3865.04167
1387.072	3749.375
1390.252	3627.375
1393.429	3514.375
1396.605	3382.04167
1399.777	3310.04167
1402.948	3274.70833
1406.116	3251.04167
1409.282	3231.70833
1412.445	3240.375
1415.606	3302.70833
1418.765	3324.04167
1421.921	3384.04167
1425.075	3433.70833
1428.227	3591.04167
1431.376	3748.70833
1434.524	3886.70833
1437.668	3991.375
1440.811	4019.04167
1443.951	4030.70833
1447.089	4044.70833
1450.224	4027.70833
1453.357	4009.70833
1456.488	3990.375
1459.617	3888.375
1462.743	3865.375
1465.867	3779.70833
1468.989	3758.70833
1472.108	3691.04167
1475.225	3633.375
1478.34	3595.04167
1481.453	3582.70833
1484.563	3599.375
1487.671	3663.375
1490.776	3715.375
1493.88	3793.70833
1496.981	3859.04167
1500.08	3942.375
1503.176	3970.375
1506.271	4018.70833
1509.363	4112.04167
1512.452	4158.70833
1515.54	4216.375
1518.625	4326.375
1521.708	4513.375
1524.789	4779.04167
1527.867	5094.04167
1530.944	5394.70833
1534.018	5576.70833
1537.089	5634.04167
1540.159	5558.70833
1543.226	5368.70833
1546.291	5168.375
1549.354	5013.375
1552.415	4866.375
1555.473	4720.375
1558.529	4625.70833
1561.583	4615.70833
1564.634	4579.04167
1567.684	4571.04167
1570.731	4624.70833
1573.776	4695.375
1576.819	4746.70833
1579.859	4794.70833
1582.898	4876.70833
1585.934	4908.04167
1588.968	4908.70833
1591.999	4922.375
1595.029	4880.04167
1598.056	4924.70833
1601.081	4942.04167
1604.104	4925.70833
1607.125	4875.375
1610.144	4768.375
1613.16	4670.04167
1616.174	4587.70833
1619.186	4495.04167
1622.196	4419.70833
1625.203	4335.70833
1628.209	4266.04167
1631.212	4267.375
1634.213	4252.04167
1637.212	4246.375
1640.209	4196.70833
1643.203	4103.04167
1646.196	3991.70833
1649.186	3800.70833
1652.174	3674.04167
1655.16	3606.375
1658.144	3467.375
1661.125	3319.04167
1664.105	3160.70833
1667.082	2996.375
1670.057	2858.04167
1673.03	2651.375
1676.001	2487.04167
1678.97	2324.70833
1681.937	2173.04167
1684.901	2053.375
1687.863	1999.70833
1690.824	1914.375
1693.782	1873.70833
1696.738	1803.04167
1699.692	1749.70833
1702.643	1729.70833
1705.593	1714.70833
1708.54	1676.375
1711.486	1649.04167
1714.429	1633.70833
1717.37	1618.375
1720.309	1589.70833
1723.246	1604.375
1726.181	1561.04167
1729.113	1561.70833
1732.044	1539.04167
1734.972	1509.375
1737.899	1515.70833
1740.823	1495.70833
1743.745	1468.04167
1746.665	1459.04167
1749.583	1429.70833
1752.499	1421.70833
1755.413	1397.70833
1758.325	1361.04167
1761.235	1356.375
1764.142	1338.04167
1767.048	1313.375
1769.951	1324.70833
1772.852	1315.70833
1775.752	1291.375
1778.649	1305.375
1781.544	1281.375
1784.437	1259.375
1787.328	1274.70833
1790.217	1267.04167
1793.104	1250.375
1795.989	1242.04167
1798.872	1230.375
1801.753	1260.375
1804.631	1250.70833
1807.508	1252.375
1810.383	1250.04167
1813.255	1217.375
1816.126	1225.375
1818.994	1222.70833
1821.861	1211.70833
1824.725	1217.70833
1827.587	1206.70833
1830.448	1193.70833
1833.306	1167.70833
1836.162	1183.04167
1839.017	1160.375
1841.869	1174.375
1844.719	1181.04167
1847.567	1148.375
1850.414	1136.04167
1853.258	1156.375
1856.1	1159.375
1858.94	1171.04167
1861.778	1159.04167
1864.614	1135.375
1867.448	1144.375
1870.28	1134.375
1873.111	1149.04167
1875.939	1137.04167
1878.765	1138.70833
1881.589	1127.04167
1884.411	1121.70833
1887.231	1134.70833
1890.049	1124.70833
1892.865	1119.04167
1895.68	1105.70833
1898.492	1120.375
1901.302	1093.375
1904.11	1103.70833
1906.916	1098.04167
1909.721	1090.375
1912.523	1102.04167
1915.323	1062.375
1918.122	1074.375
1920.918	1077.70833
1923.712	1059.375
1926.505	1068.04167
1929.295	1069.04167
1932.084	1073.70833
1934.87	1075.04167
1937.655	1056.04167
1940.438	1059.375
1943.218	1052.375
1945.997	1051.70833
1948.774	1076.375
1951.549	1055.375
1954.322	1051.04167
1957.093	1056.375
1959.862	1040.375
1962.629	1039.04167
1965.394	1027.70833
1968.157	1021.70833
1970.918	1030.375
1973.678	1013.70833
1976.435	1022.04167
1979.19	1008.04167
1981.944	1004.70833
1984.696	1001.70833
1987.445	1001.70833
1990.193	988.375
1992.939	1015.04167
1995.683	1000.70833
1998.425	984.70833
2001.165	1009.375
2003.903	993.04167
2006.639	989.70833
2009.374	989.70833
2012.106	981.70833
2014.837	950.70833
2017.566	985.04167
2020.292	973.375
2023.017	972.70833
2025.74	980.04167
2028.461	959.70833
2031.18	975.04167
2033.898	966.70833
2036.613	962.375
2039.327	972.375
2042.038	950.375
2044.748	952.70833
2047.456	956.375
2050.162	941.375
2052.866	940.04167
2055.568	934.70833
2058.268	943.375
2060.967	940.04167
2063.663	927.375
2066.358	929.04167
2069.051	920.70833
2071.742	939.70833
2074.431	939.70833
2077.118	933.375
2079.804	927.375
2082.487	918.70833
2085.169	935.70833
2087.849	945.70833
2090.527	923.375
2093.203	938.04167
2095.877	941.70833
2098.55	937.70833
2101.22	955.375
2103.889	964.04167
2106.556	961.70833
2109.221	987.70833
2111.884	994.70833
2114.546	1040.70833
2117.205	1094.04167
2119.863	1176.70833
2122.519	1227.70833
2125.173	1314.70833
2127.825	1423.375
2130.475	1474.04167
2133.124	1438.375
2135.771	1385.375
2138.416	1371.375
2141.059	1286.04167
2143.7	1248.70833
2146.339	1177.70833
2148.977	1113.70833
2151.613	1103.375
2154.247	1068.70833
2156.879	1066.70833
2159.51	1051.04167
2162.138	1041.375
2164.765	1051.04167
2167.39	1023.375
2170.013	1068.375
2172.634	1061.70833
2175.254	1034.70833
2177.872	1076.04167
2180.488	1030.04167
2183.102	1035.70833
2185.714	1013.04167
2188.325	974.04167
2190.934	972.70833
2193.541	981.04167
2196.146	924.375
2198.75	905.70833
2201.351	912.04167
2203.951	877.70833
2206.549	877.70833
2209.146	867.04167
2211.74	856.70833
2214.333	867.04167
2216.924	835.70833
2219.514	836.375
2222.101	832.04167
2224.687	848.70833
2227.271	820.70833
2229.853	809.70833
2232.433	801.70833
2235.012	830.70833
2237.589	832.375
2240.164	827.04167
2242.738	817.375
2245.309	800.04167
2247.879	785.70833
2250.448	793.04167
2253.014	770.375
2255.579	755.70833
2258.142	752.375
2260.703	744.375
2263.262	742.375
2265.82	735.04167
2268.376	741.375
2270.93	734.70833
2273.483	721.375
2276.033	726.375
2278.583	718.375
2281.13	713.375
2283.675	711.375
2286.219	712.375
2288.761	719.375
2291.302	709.375
2293.841	707.70833
2296.377	684.04167
2298.913	694.04167
2301.446	694.04167
2303.978	687.375
2306.508	682.70833
2309.037	681.375
2311.563	690.70833
2314.088	689.04167
2316.612	672.04167
2319.133	671.375
2321.653	670.375
2324.171	665.375
2326.688	680.70833
2329.202	664.375
2331.715	663.375
2334.227	663.04167
2336.736	656.70833
2339.244	656.70833
2341.751	646.375
2344.255	643.04167
2346.758	640.70833
2349.259	637.04167
2351.759	638.04167
2354.257	634.70833
2356.753	636.04167
2359.247	635.375
2361.74	641.375
2364.231	623.04167
2366.721	641.375
2369.209	625.375
2371.695	616.70833
2374.179	625.375
2376.662	613.70833
2379.143	643.04167
2381.622	618.375
2384.1	629.04167
2386.576	619.375
2389.051	628.375
2391.524	648.04167
2393.995	639.04167
2396.464	630.70833
2398.932	605.375
2401.398	613.04167
2403.863	603.375
2406.325	606.70833
2408.787	600.04167
2411.246	602.375
2413.704	599.375
2416.16	606.70833
2418.615	596.375
2421.068	605.70833
2423.519	604.375
2425.969	598.04167
2428.417	604.375
2430.863	615.70833
2433.308	603.04167
2435.751	596.04167
2438.193	588.375
2440.633	597.04167
2443.071	596.04167
2445.508	571.04167
2447.943	573.375
2450.376	562.04167
2452.808	590.04167
2455.238	566.375
2457.667	598.375
2460.093	583.70833
2462.519	556.04167
2464.942	560.04167
2467.365	576.04167
2469.785	569.70833
2472.204	568.70833
2474.621	567.375
2477.037	576.04167
2479.451	547.70833
2481.863	557.70833
2484.274	548.375
2486.683	553.375
2489.091	567.04167
2491.497	561.70833
2493.901	552.375
2496.304	559.70833
2498.705	561.04167
2501.105	556.70833
2503.503	575.04167
2505.899	534.70833
2508.294	562.375
2510.687	543.04167
2513.079	537.375
2515.469	536.04167
2517.858	537.375
2520.245	558.04167
2522.63	532.70833
2525.014	526.375
2527.396	530.04167
2529.776	524.70833
2532.156	535.70833
2534.533	533.70833
2536.909	520.04167
2539.283	510.375
2541.656	520.70833
2544.027	546.04167
2546.397	532.375
2548.765	521.70833
2551.131	525.70833
2553.496	527.04167
2555.86	535.04167
2558.221	516.375
2560.582	524.04167
2562.94	505.04167
2565.298	519.70833
2567.653	534.04167
2570.007	509.375
2572.36	525.70833
2574.711	512.04167
2577.06	531.375
2579.408	509.375
2581.754	514.375
2584.099	516.375
2586.442	512.70833
2588.784	508.04167
2591.124	512.70833
2593.463	511.375
2595.8	508.70833
2598.135	503.04167
2600.469	502.70833
2602.802	515.04167
2605.133	511.375
2607.462	490.70833
2609.79	484.70833
2612.116	503.375
2614.441	500.04167
2616.764	497.04167
2619.086	489.375
2621.406	494.375
2623.725	511.70833
2626.042	505.04167
2628.358	496.70833
2630.672	493.70833
2632.985	502.04167
2635.296	498.375
2637.606	507.375
2639.914	484.70833
2642.22	502.375
2644.525	499.375
2646.829	501.04167
2649.131	513.70833
2651.432	514.70833
2653.731	505.04167
2656.028	505.04167
2658.324	499.70833
2660.619	492.04167
2662.912	504.70833
2665.204	487.70833
2667.494	513.375
2669.782	491.70833
2672.07	506.04167
2674.355	502.375
2676.639	495.375
2678.922	492.04167
2681.203	509.04167
2683.483	489.04167
2685.761	492.70833
2688.038	505.375
2690.313	525.375
2692.587	506.375
2694.859	497.04167
2697.13	488.70833
2699.399	503.70833
2701.667	508.04167
2703.933	517.70833
2706.198	524.375
2708.461	520.375
2710.723	532.70833
2712.984	518.375
2715.243	535.70833
2717.5	518.04167
2719.757	531.70833
2722.011	522.70833
2724.264	530.04167
2726.516	546.375
2728.766	529.04167
2731.015	546.70833
2733.262	538.70833
2735.508	533.70833
2737.753	528.375
2739.996	504.70833
2742.237	508.375
2744.477	520.70833
2746.716	520.70833
2748.953	510.70833
2751.189	516.375
2753.423	497.70833
2755.656	491.70833
2757.887	492.04167
2760.117	492.70833
2762.346	490.375
2764.573	481.70833
2766.798	484.04167
2769.022	498.70833
2771.245	502.04167
2773.467	495.70833
2775.686	488.375
2777.905	494.04167
2780.122	501.375
2782.337	505.70833
2784.552	501.04167
2786.764	513.70833
2788.976	505.70833
2791.186	514.04167
2793.394	522.375
2795.601	529.375
2797.807	533.375
2800.011	539.70833
2802.214	547.70833
2804.415	546.70833
2806.615	547.70833
2808.814	565.375
2811.011	570.04167
2813.206	571.375
2815.401	572.70833
2817.594	585.70833
2819.785	606.04167
2821.975	591.375
2824.164	609.70833
2826.351	628.70833
2828.537	652.70833
2830.722	671.04167
2832.905	665.04167
2835.086	699.70833
2837.267	740.375
2839.445	777.375
2841.623	792.04167
2843.799	834.375
2845.974	878.04167
2848.147	925.04167
2850.319	959.04167
2852.489	988.04167
2854.659	1004.375
2856.826	1024.70833
2858.993	1047.04167
2861.158	1037.70833
2863.321	1045.70833
2865.483	1067.04167
2867.644	1065.04167
2869.804	1066.04167
2871.962	1056.375
2874.118	1058.70833
2876.274	1039.70833
2878.428	1056.04167
2880.58	1051.375
2882.731	1032.70833
2884.881	1051.70833
2887.03	1048.375
2889.177	1035.70833
2891.322	1067.04167
2893.467	1062.04167
2895.61	1065.375
2897.751	1099.70833
2899.892	1081.70833
2902.03	1101.70833
2904.168	1101.375
2906.304	1103.04167
2908.439	1131.70833
2910.572	1113.375
2912.704	1121.375
2914.835	1137.375
2916.965	1126.375
2919.093	1151.375
2921.219	1100.375
2923.345	1135.04167
2925.469	1093.70833
2927.591	1087.04167
2929.712	1042.04167
2931.832	1046.70833
2933.951	1000.375
2936.068	985.70833
2938.184	954.375
2940.299	929.04167
2942.412	909.375
2944.524	862.70833
2946.634	842.375
2948.744	791.70833
2950.851	803.70833
2952.958	760.04167
2955.063	740.04167
2957.167	719.375
2959.269	687.70833
2961.371	713.375
2963.471	651.375
2965.569	662.04167
2967.666	626.375
2969.762	608.375
2971.857	580.04167
2973.95	558.375
2976.042	579.04167
2978.133	543.04167
2980.222	532.04167
2982.31	512.04167
2984.396	496.375
2986.482	496.04167
2988.566	484.70833
2990.648	467.375
2992.73	472.70833
2994.81	451.375
2996.889	456.375
2998.966	445.70833
3001.042	451.70833
3003.117	434.375
3005.191	437.04167
3007.263	431.70833
3009.334	424.70833
3011.403	417.70833
3013.472	396.375
3015.539	401.70833
3017.604	417.375
3019.669	375.375
3021.732	390.375
3023.794	379.375
3025.854	365.04167
3027.914	362.04167
3029.971	374.375
3032.028	368.70833
3034.083	360.04167
3036.137	360.375
3038.19	339.04167
3040.242	336.70833
3042.292	327.70833
3044.341	324.04167
3046.388	353.04167
3048.435	320.04167
3050.48	335.375
3052.524	325.375
3054.566	304.70833
3056.607	321.375
3058.647	310.04167
3060.686	291.70833
3062.723	280.70833
3064.759	275.70833
3066.794	2.04167
3068.828	-0.95833
3070.86	-1.625
