-0.839	447.41667
3.438	490.41667
7.711	136.75
11.981	53.08333
16.247	47.41667
20.509	43.75
24.768	49.75
29.024	47.41667
33.276	44.41667
37.524	49.75
41.769	43.75
46.01	38.75
50.247	52.75
54.481	64.08333
58.712	67.08333
62.939	47.08333
67.162	63.75
71.382	61.41667
75.599	52.08333
79.812	66.08333
84.021	86.75
88.227	62.08333
92.429	67.75
96.628	52.75
100.823	72.41667
105.015	80.41667
109.204	81.41667
113.388	77.08333
117.57	81.75
121.748	95.41667
125.922	85.75
130.093	108.75
134.261	115.75
138.425	116.41667
142.585	153.08333
146.742	162.41667
150.896	188.08333
155.046	241.75
159.193	383.08333
163.336	657.08333
167.476	1230.75
171.613	2249.08333
175.746	3747.41667
179.875	5522.75
184.002	7148.41667
188.124	8204.41667
192.244	8553.41667
196.36	8512.08333
200.472	8352.08333
204.581	8075.08333
208.687	7905.41667
212.79	7886.08333
216.889	7891.75
220.984	7946.41667
225.077	8040.41667
229.165	8165.08333
233.251	8261.41667
237.333	8345.41667
241.412	8376.08333
245.487	8369.41667
249.559	8336.08333
253.628	8229.08333
257.694	8160.08333
261.756	8113.75
265.814	7916.75
269.87	7679.41667
273.922	7405.08333
277.97	7159.41667
282.016	6866.41667
286.058	6663.75
290.097	6522.41667
294.132	6468.41667
298.164	6371.75
302.193	6163.41667
306.219	5779.08333
310.241	5229.41667
314.26	4751.75
318.276	4303.41667
322.288	3999.41667
326.297	3787.41667
330.303	3618.41667
334.305	3502.41667
338.305	3401.08333
342.301	3330.08333
346.294	3284.41667
350.283	3245.41667
354.269	3244.41667
358.252	3195.41667
362.232	3168.75
366.209	3150.08333
370.182	3108.41667
374.152	3085.08333
378.119	3086.41667
382.083	3076.08333
386.043	3086.41667
390	3042.41667
393.954	3021.75
397.905	3020.08333
401.852	2975.08333
405.797	2948.41667
409.738	2905.41667
413.676	2910.41667
417.61	2854.41667
421.542	2820.08333
425.47	2776.41667
429.396	2770.75
433.318	2725.75
437.236	2708.75
441.152	2742.75
445.065	2677.08333
448.974	2659.08333
452.88	2623.41667
456.783	2621.41667
460.683	2583.08333
464.58	2596.41667
468.473	2596.75
472.364	2591.41667
476.251	2615.75
480.135	2603.75
484.016	2644.08333
487.894	2636.75
491.769	2654.75
495.641	2642.08333
499.509	2652.41667
503.375	2666.75
507.237	2680.75
511.096	2659.75
514.952	2661.08333
518.805	2662.41667
522.655	2662.75
526.502	2623.75
530.346	2630.75
534.187	2672.41667
538.024	2658.41667
541.859	2649.41667
545.69	2697.75
549.519	2678.41667
553.344	2635.75
557.166	2612.08333
560.985	2602.08333
564.802	2549.41667
568.615	2512.08333
572.425	2485.75
576.232	2448.08333
580.036	2430.75
583.836	2450.41667
587.634	2452.41667
591.429	2442.41667
595.221	2495.41667
599.01	2510.41667
602.796	2564.75
606.578	2551.75
610.358	2575.41667
614.135	2542.08333
617.909	2589.41667
621.679	2550.75
625.447	2526.41667
629.212	2537.41667
632.973	2527.41667
636.732	2519.08333
640.488	2532.75
644.241	2518.41667
647.991	2500.08333
651.737	2530.75
655.481	2516.08333
659.222	2546.75
662.96	2518.08333
666.695	2529.75
670.427	2541.41667
674.156	2550.75
677.882	2535.75
681.605	2527.08333
685.325	2516.41667
689.043	2507.08333
692.757	2486.75
696.468	2505.08333
700.177	2485.75
703.882	2512.08333
707.585	2489.41667
711.284	2469.75
714.981	2484.41667
718.675	2503.08333
722.366	2499.41667
726.054	2460.08333
729.739	2474.41667
733.421	2468.08333
737.1	2465.41667
740.777	2519.08333
744.45	2529.75
748.121	2541.75
751.789	2595.08333
755.453	2577.41667
759.115	2601.08333
762.774	2654.75
766.431	2681.08333
770.084	2721.41667
773.734	2725.41667
777.382	2803.08333
781.027	2831.08333
784.669	2846.75
788.308	2864.08333
791.944	2876.08333
795.577	2875.75
799.208	2896.08333
802.835	2917.41667
806.46	2973.08333
810.082	2993.08333
813.701	3013.08333
817.317	3034.08333
820.931	3049.08333
824.542	3041.41667
828.149	3003.41667
831.754	2991.08333
835.357	2992.75
838.956	2972.08333
842.553	2962.75
846.146	2961.75
849.737	2918.41667
853.326	2945.41667
856.911	2952.75
860.493	3013.41667
864.073	3018.41667
867.65	3088.41667
871.225	3121.75
874.796	3097.75
878.365	3126.08333
881.931	3137.75
885.494	3158.41667
889.054	3148.08333
892.612	3181.75
896.166	3143.08333
899.719	3132.75
903.268	3086.08333
906.814	3081.75
910.358	3057.41667
913.899	3033.75
917.438	3081.75
920.973	3055.41667
924.506	3108.08333
928.036	3098.08333
931.564	3180.75
935.088	3194.41667
938.61	3183.41667
942.129	3202.08333
945.646	3304.41667
949.16	3410.41667
952.671	3462.08333
956.179	3533.41667
959.685	3470.75
963.188	3483.08333
966.688	3409.41667
970.185	3321.08333
973.68	3230.41667
977.173	3229.41667
980.662	3204.41667
984.149	3172.75
987.633	3168.75
991.114	3225.75
994.593	3346.41667
998.069	3452.08333
1001.542	3595.41667
1005.013	3528.08333
1008.481	3326.08333
1011.947	3260.08333
1015.409	3267.41667
1018.869	3272.75
1022.327	3231.08333
1025.782	3204.08333
1029.234	3198.41667
1032.683	3171.75
1036.13	3083.41667
1039.574	2941.75
1043.016	2878.75
1046.455	2829.41667
1049.891	2780.41667
1053.325	2782.75
1056.756	2786.41667
1060.184	2814.75
1063.61	2840.75
1067.033	2811.75
1070.454	2837.08333
1073.872	2863.41667
1077.287	2873.41667
1080.7	2853.75
1084.11	2850.08333
1087.517	2822.75
1090.922	2770.08333
1094.325	2759.41667
1097.724	2730.75
1101.122	2753.75
1104.516	2762.41667
1107.908	2768.41667
1111.298	2805.08333
1114.684	2859.41667
1118.069	2881.08333
1121.45	2918.41667
1124.83	2911.75
1128.206	2938.41667
1131.58	3004.08333
1134.951	3098.08333
1138.32	3182.41667
1141.687	3358.08333
1145.05	3492.75
1148.412	3518.08333
1151.77	3499.41667
1155.126	3524.41667
1158.48	3492.41667
1161.831	3521.08333
1165.18	3515.08333
1168.525	3588.08333
1171.869	3639.41667
1175.21	3701.08333
1178.548	3725.08333
1181.884	3783.41667
1185.217	3773.75
1188.548	3837.75
1191.877	3876.08333
1195.202	3973.08333
1198.526	4001.75
1201.846	4010.08333
1205.165	3984.75
1208.48	3952.08333
1211.794	3934.75
1215.104	3938.08333
1218.413	3925.75
1221.719	3886.08333
1225.022	3825.08333
1228.323	3807.75
1231.621	3810.75
1234.917	3800.08333
1238.21	3814.75
1241.501	3803.41667
1244.79	3811.75
1248.076	3761.75
1251.359	3780.41667
1254.64	3899.75
1257.919	3911.08333
1261.195	4002.75
1264.468	4071.41667
1267.74	4120.08333
1271.008	4152.41667
1274.275	4154.41667
1277.538	4086.41667
1280.8	4083.41667
1284.059	4057.41667
1287.315	4121.41667
1290.569	4139.75
1293.821	4166.08333
1297.07	4190.08333
1300.317	4218.08333
1303.562	4181.41667
1306.803	4131.08333
1310.043	4129.41667
1313.28	4086.41667
1316.515	4031.41667
1319.747	3986.08333
1322.977	3945.08333
1326.204	3862.41667
1329.429	3840.75
1332.652	3801.08333
1335.872	3789.41667
1339.09	3762.08333
1342.306	3748.41667
1345.519	3721.75
1348.729	3673.08333
1351.938	3652.08333
1355.144	3600.41667
1358.347	3559.41667
1361.548	3517.41667
1364.747	3543.08333
1367.944	3531.41667
1371.138	3538.75
1374.329	3575.75
1377.518	3615.08333
1380.705	3673.75
1383.89	3635.41667
1387.072	3557.75
1390.252	3453.08333
1393.429	3292.08333
1396.605	3208.08333
1399.777	3096.75
1402.948	3080.08333
1406.116	3034.75
1409.282	3048.08333
1412.445	3022.75
1415.606	3066.08333
1418.765	3082.41667
1421.921	3159.75
1425.075	3241.41667
1428.227	3353.08333
1431.376	3526.08333
1434.524	3679.75
1437.668	3762.41667
1440.811	3821.75
1443.951	3858.75
1447.089	3868.08333
1450.224	3871.75
1453.357	3844.41667
1456.488	3821.08333
1459.617	3791.75
1462.743	3729.75
1465.867	3672.08333
1468.989	3643.08333
1472.108	3573.41667
1475.225	3518.41667
1478.34	3515.75
1481.453	3498.08333
1484.563	3498.75
1487.671	3579.41667
1490.776	3631.41667
1493.88	3692.75
1496.981	3818.08333
1500.08	3891.08333
1503.176	3945.41667
1506.271	4015.41667
1509.363	4094.75
1512.452	4107.08333
1515.54	4203.75
1518.625	4300.41667
1521.708	4494.41667
1524.789	4712.08333
1527.867	5020.41667
1530.944	5295.08333
1534.018	5492.75
1537.089	5578.41667
1540.159	5481.41667
1543.226	5325.75
1546.291	5150.08333
1549.354	5000.75
1552.415	4879.75
1555.473	4736.75
1558.529	4660.41667
1561.583	4620.08333
1564.634	4600.41667
1567.684	4633.75
1570.731	4628.08333
1573.776	4696.75
1576.819	4773.08333
1579.859	4806.75
1582.898	4887.75
1585.934	4943.41667
1588.968	4919.75
1591.999	4924.08333
1595.029	4928.75
1598.056	4938.41667
1601.081	4952.41667
1604.104	4929.08333
1607.125	4842.41667
1610.144	4767.41667
1613.16	4625.41667
1616.174	4547.75
1619.186	4459.08333
1622.196	4360.41667
1625.203	4207.75
1628.209	4171.08333
1631.212	4127.75
1634.213	4071.41667
1637.212	4040.08333
1640.209	3936.08333
1643.203	3788.75
1646.196	3674.75
1649.186	3507.08333
1652.174	3404.08333
1655.16	3272.08333
1658.144	3146.75
1661.125	3003.08333
1664.105	2860.08333
1667.082	2717.08333
1670.057	2556.08333
1673.03	2397.41667
1676.001	2264.75
1678.97	2124.41667
1681.937	1987.08333
1684.901	1883.08333
1687.863	1807.75
1690.824	1735.08333
1693.782	1681.41667
1696.738	1620.41667
1699.692	1587.41667
1702.643	1565.08333
1705.593	1532.75
1708.54	1512.41667
1711.486	1498.08333
1714.429	1467.08333
1717.37	1457.41667
1720.309	1437.08333
1723.246	1431.41667
1726.181	1393.41667
1729.113	1414.08333
1732.044	1384.08333
1734.972	1358.08333
1737.899	1357.08333
1740.823	1345.75
1743.745	1310.08333
1746.665	1293.41667
1749.583	1282.41667
1752.499	1270.41667
1755.413	1261.08333
1758.325	1211.41667
1761.235	1195.41667
1764.142	1194.08333
1767.048	1176.75
1769.951	1155.08333
1772.852	1168.08333
1775.752	1168.75
1778.649	1148.75
1781.544	1151.08333
1784.437	1129.41667
1787.328	1131.41667
1790.217	1113.75
1793.104	1103.75
1795.989	1084.08333
1798.872	1070.75
1801.753	1111.08333
1804.631	1090.75
1807.508	1089.08333
1810.383	1074.41667
1813.255	1074.75
1816.126	1079.08333
1818.994	1059.75
1821.861	1064.08333
1824.725	1058.41667
1827.587	1045.41667
1830.448	1052.41667
1833.306	1007.41667
1836.162	1050.75
1839.017	1022.75
1841.869	1030.75
1844.719	1023.08333
1847.567	1012.41667
1850.414	1012.41667
1853.258	1004.75
1856.1	1011.75
1858.94	1016.41667
1861.778	1019.75
1864.614	989.41667
1867.448	1002.75
1870.28	1009.75
1873.111	1021.41667
1875.939	1004.75
1878.765	1027.08333
1881.589	997.08333
1884.411	990.75
1887.231	1009.08333
1890.049	985.08333
1892.865	987.41667
1895.68	974.75
1898.492	978.08333
1901.302	971.75
1904.11	954.41667
1906.916	944.41667
1909.721	942.41667
1912.523	960.75
1915.323	942.75
1918.122	945.41667
1920.918	959.08333
1923.712	936.08333
1926.505	943.75
1929.295	921.75
1932.084	950.08333
1934.87	933.41667
1937.655	941.41667
1940.438	926.08333
1943.218	927.08333
1945.997	946.08333
1948.774	940.41667
1951.549	938.41667
1954.322	935.75
1957.093	921.41667
1959.862	914.08333
1962.629	931.75
1965.394	911.08333
1968.157	899.75
1970.918	905.75
1973.678	905.41667
1976.435	890.08333
1979.19	892.08333
1981.944	881.75
1984.696	889.75
1987.445	877.08333
1990.193	886.75
1992.939	895.75
1995.683	896.75
1998.425	857.08333
2001.165	906.08333
2003.903	882.75
2006.639	875.41667
2009.374	870.41667
2012.106	874.75
2014.837	850.41667
2017.566	877.41667
2020.292	869.08333
2023.017	876.41667
2025.74	858.41667
2028.461	847.08333
2031.18	861.41667
2033.898	856.41667
2036.613	874.41667
2039.327	874.75
2042.038	852.75
2044.748	842.08333
2047.456	847.41667
2050.162	835.41667
2052.866	837.08333
2055.568	835.75
2058.268	834.41667
2060.967	844.75
2063.663	821.75
2066.358	832.75
2069.051	812.41667
2071.742	821.08333
2074.431	834.41667
2077.118	831.75
2079.804	817.08333
2082.487	826.75
2085.169	831.75
2087.849	845.41667
2090.527	827.75
2093.203	836.41667
2095.877	838.08333
2098.55	835.08333
2101.22	853.75
2103.889	855.08333
2106.556	836.41667
2109.221	861.75
2111.884	868.75
2114.546	899.08333
2117.205	943.75
2119.863	1012.08333
2122.519	1061.08333
2125.173	1135.41667
2127.825	1224.41667
2130.475	1269.75
2133.124	1252.41667
2135.771	1226.75
2138.416	1207.41667
2141.059	1131.41667
2143.7	1102.41667
2146.339	1019.08333
2148.977	961.08333
2151.613	952.75
2154.247	919.08333
2156.879	925.08333
2159.51	909.75
2162.138	897.75
2164.765	891.41667
2167.39	895.08333
2170.013	903.75
2172.634	911.41667
2175.254	901.41667
2177.872	926.41667
2180.488	885.75
2183.102	879.08333
2185.714	853.41667
2188.325	841.41667
2190.934	861.75
2193.541	834.08333
2196.146	819.75
2198.75	796.75
2201.351	801.08333
2203.951	780.41667
2206.549	790.41667
2209.146	772.08333
2211.74	775.08333
2214.333	775.08333
2216.924	756.75
2219.514	756.08333
2222.101	752.41667
2224.687	755.08333
2227.271	750.75
2229.853	735.08333
2232.433	733.08333
2235.012	748.41667
2237.589	743.08333
2240.164	749.08333
2242.738	738.41667
2245.309	724.08333
2247.879	724.75
2250.448	719.41667
2253.014	693.41667
2255.579	693.41667
2258.142	686.41667
2260.703	673.08333
2263.262	679.75
2265.82	676.41667
2268.376	679.75
2270.93	664.75
2273.483	654.41667
2276.033	656.08333
2278.583	659.08333
2281.13	660.75
2283.675	631.75
2286.219	643.08333
2288.761	645.75
2291.302	649.08333
2293.841	640.08333
2296.377	620.41667
2298.913	630.75
2301.446	643.08333
2303.978	624.75
2306.508	632.41667
2309.037	625.75
2311.563	627.75
2314.088	631.75
2316.612	607.75
2319.133	613.08333
2321.653	618.41667
2324.171	605.41667
2326.688	617.75
2329.202	607.08333
2331.715	612.08333
2334.227	603.41667
2336.736	596.41667
2339.244	600.41667
2341.751	587.41667
2344.255	609.41667
2346.758	593.75
2349.259	588.41667
2351.759	592.75
2354.257	591.08333
2356.753	586.41667
2359.247	580.75
2361.74	588.08333
2364.231	587.08333
2366.721	587.08333
2369.209	580.08333
2371.695	578.41667
2374.179	579.08333
2376.662	577.41667
2379.143	591.08333
2381.622	566.08333
2384.1	580.08333
2386.576	570.75
2389.051	586.41667
2391.524	597.08333
2393.995	578.75
2396.464	572.75
2398.932	552.08333
2401.398	573.75
2403.863	558.75
2406.325	565.75
2408.787	558.41667
2411.246	567.41667
2413.704	556.41667
2416.16	557.08333
2418.615	562.08333
2421.068	567.41667
2423.519	561.75
2425.969	555.75
2428.417	571.41667
2430.863	571.08333
2433.308	563.08333
2435.751	561.41667
2438.193	546.75
2440.633	559.41667
2443.071	558.41667
2445.508	543.08333
2447.943	545.75
2450.376	530.75
2452.808	551.08333
2455.238	525.41667
2457.667	570.75
2460.093	548.41667
2462.519	531.75
2464.942	534.08333
2467.365	539.08333
2469.785	540.75
2472.204	538.75
2474.621	526.08333
2477.037	553.08333
2479.451	514.41667
2481.863	521.75
2484.274	522.75
2486.683	522.41667
2489.091	542.41667
2491.497	536.41667
2493.901	524.41667
2496.304	530.08333
2498.705	527.08333
2501.105	517.75
2503.503	545.75
2505.899	517.41667
2508.294	533.08333
2510.687	503.08333
2513.079	522.08333
2515.469	506.08333
2517.858	513.75
2520.245	524.08333
2522.63	518.08333
2525.014	512.08333
2527.396	511.08333
2529.776	504.08333
2532.156	509.08333
2534.533	500.41667
2536.909	503.41667
2539.283	497.08333
2541.656	502.75
2544.027	528.75
2546.397	514.08333
2548.765	500.75
2551.131	503.41667
2553.496	504.08333
2555.86	509.41667
2558.221	494.41667
2560.582	499.75
2562.94	485.08333
2565.298	500.75
2567.653	511.75
2570.007	487.41667
2572.36	501.41667
2574.711	495.75
2577.06	511.08333
2579.408	492.08333
2581.754	501.75
2584.099	495.41667
2586.442	504.41667
2588.784	495.75
2591.124	498.41667
2593.463	485.75
2595.8	495.41667
2598.135	483.75
2600.469	496.41667
2602.802	506.75
2605.133	495.41667
2607.462	489.41667
2609.79	486.41667
2612.116	495.41667
2614.441	496.75
2616.764	497.75
2619.086	487.41667
2621.406	478.75
2623.725	501.41667
2626.042	494.41667
2628.358	489.08333
2630.672	489.41667
2632.985	505.08333
2635.296	502.41667
2637.606	501.75
2639.914	481.75
2642.22	488.08333
2644.525	481.75
2646.829	505.08333
2649.131	505.75
2651.432	510.08333
2653.731	497.41667
2656.028	499.75
2658.324	500.41667
2660.619	492.41667
2662.912	503.75
2665.204	482.75
2667.494	512.41667
2669.782	484.41667
2672.07	499.75
2674.355	512.75
2676.639	498.75
2678.922	489.08333
2681.203	503.41667
2683.483	490.75
2685.761	473.75
2688.038	516.75
2690.313	503.75
2692.587	499.08333
2694.859	493.75
2697.13	510.08333
2699.399	513.08333
2701.667	518.41667
2703.933	515.41667
2706.198	524.08333
2708.461	527.08333
2710.723	529.41667
2712.984	527.08333
2715.243	548.41667
2717.5	524.41667
2719.757	540.41667
2722.011	525.41667
2724.264	540.41667
2726.516	556.75
2728.766	535.08333
2731.015	545.75
2733.262	550.41667
2735.508	544.41667
2737.753	533.41667
2739.996	529.41667
2742.237	525.75
2744.477	538.75
2746.716	540.41667
2748.953	525.08333
2751.189	530.75
2753.423	520.41667
2755.656	507.41667
2757.887	507.41667
2760.117	507.75
2762.346	501.08333
2764.573	500.75
2766.798	495.75
2769.022	497.41667
2771.245	496.41667
2773.467	504.41667
2775.686	510.08333
2777.905	506.08333
2780.122	515.08333
2782.337	522.75
2784.552	522.08333
2786.764	519.08333
2788.976	529.08333
2791.186	536.41667
2793.394	535.41667
2795.601	541.41667
2797.807	551.41667
2800.011	557.75
2802.214	569.08333
2804.415	565.08333
2806.615	561.08333
2808.814	581.75
2811.011	576.75
2813.206	576.08333
2815.401	597.08333
2817.594	610.08333
2819.785	623.08333
2821.975	599.75
2824.164	635.08333
2826.351	645.75
2828.537	666.75
2830.722	692.08333
2832.905	700.41667
2835.086	737.41667
2837.267	770.75
2839.445	800.08333
2841.623	827.08333
2843.799	868.75
2845.974	911.75
2848.147	974.75
2850.319	982.41667
2852.489	1034.75
2854.659	1043.41667
2856.826	1058.75
2858.993	1085.41667
2861.158	1076.08333
2863.321	1087.08333
2865.483	1119.75
2867.644	1119.08333
2869.804	1111.41667
2871.962	1116.75
2874.118	1114.08333
2876.274	1144.75
2878.428	1124.41667
2880.58	1110.41667
2882.731	1103.08333
2884.881	1100.08333
2887.03	1105.08333
2889.177	1093.41667
2891.322	1136.75
2893.467	1103.75
2895.61	1108.75
2897.751	1144.08333
2899.892	1130.08333
2902.03	1156.41667
2904.168	1148.75
2906.304	1170.08333
2908.439	1200.08333
2910.572	1150.75
2912.704	1187.75
2914.835	1182.75
2916.965	1181.08333
2919.093	1188.08333
2921.219	1151.08333
2923.345	1191.75
2925.469	1162.41667
2927.591	1143.41667
2929.712	1117.75
2931.832	1109.08333
2933.951	1075.08333
2936.068	1060.41667
2938.184	1023.75
2940.299	985.08333
2942.412	971.75
2944.524	927.08333
2946.634	903.08333
2948.744	851.41667
2950.851	869.08333
2952.958	814.75
2955.063	793.41667
2957.167	777.75
2959.269	748.41667
2961.371	751.41667
2963.471	705.08333
2965.569	713.08333
2967.666	680.08333
2969.762	664.08333
2971.857	643.41667
2973.95	623.41667
2976.042	621.08333
2978.133	598.75
2980.222	586.08333
2982.31	563.41667
2984.396	534.41667
2986.482	536.75
2988.566	531.75
2990.648	524.75
2992.73	514.75
2994.81	510.41667
2996.889	509.08333
2998.966	511.75
3001.042	496.75
3003.117	494.08333
3005.191	489.75
3007.263	485.41667
3009.334	473.75
3011.403	473.08333
3013.472	452.75
3015.539	455.75
3017.604	466.41667
3019.669	429.08333
3021.732	433.75
3023.794	433.08333
3025.854	416.41667
3027.914	419.75
3029.971	433.08333
3032.028	413.41667
3034.083	417.41667
3036.137	414.75
3038.19	392.75
3040.242	387.08333
3042.292	385.08333
3044.341	369.41667
3046.388	385.08333
3048.435	364.75
3050.48	378.41667
3052.524	373.41667
3054.566	346.41667
3056.607	369.41667
3058.647	355.08333
3060.686	340.41667
3062.723	332.75
3064.759	322.08333
3066.794	0.41667
3068.828	0.08333
3070.86	-1.58333
