-0.839	463.625
3.438	489.95833
7.711	133.625
11.981	56.95833
16.247	46.625
20.509	47.29167
24.768	51.95833
29.024	51.29167
33.276	44.29167
37.524	52.95833
41.769	43.625
46.01	38.625
50.247	54.29167
54.481	60.95833
58.712	70.29167
62.939	51.95833
67.162	67.29167
71.382	63.29167
75.599	54.29167
79.812	72.95833
84.021	87.29167
88.227	63.625
92.429	69.29167
96.628	53.95833
100.823	74.95833
105.015	85.625
109.204	80.95833
113.388	85.625
117.57	83.95833
121.748	104.95833
125.922	92.29167
130.093	115.625
134.261	126.95833
138.425	119.625
142.585	165.29167
146.742	164.29167
150.896	194.95833
155.046	255.625
159.193	401.95833
163.336	702.625
167.476	1266.29167
171.613	2336.95833
175.746	3891.29167
179.875	5692.29167
184.002	7396.95833
188.124	8555.625
192.244	8901.29167
196.36	8872.625
200.472	8676.625
204.581	8487.95833
208.687	8347.625
212.79	8298.95833
216.889	8390.625
220.984	8456.29167
225.077	8591.625
229.165	8692.29167
233.251	8841.29167
237.333	8988.625
241.412	8995.625
245.487	8967.95833
249.559	8876.95833
253.628	8793.95833
257.694	8681.95833
261.756	8560.625
265.814	8370.95833
269.87	8104.625
273.922	7759.95833
277.97	7475.29167
282.016	7167.625
286.058	6909.95833
290.097	6751.95833
294.132	6648.625
298.164	6530.625
302.193	6278.95833
306.219	5909.29167
310.241	5376.29167
314.26	4924.29167
318.276	4489.95833
322.288	4245.95833
326.297	4027.625
330.303	3882.29167
334.305	3742.95833
338.305	3693.625
342.301	3618.29167
346.294	3580.29167
350.283	3545.95833
354.269	3521.29167
358.252	3535.625
362.232	3492.625
366.209	3492.29167
370.182	3453.625
374.152	3429.625
378.119	3450.95833
382.083	3445.29167
386.043	3466.625
390	3427.625
393.954	3390.625
397.905	3365.29167
401.852	3343.625
405.797	3289.625
409.738	3233.625
413.676	3212.95833
417.61	3163.625
421.542	3106.625
425.47	3069.29167
429.396	3039.95833
433.318	3026.29167
437.236	3003.29167
441.152	3021.95833
445.065	2957.29167
448.974	2948.95833
452.88	2907.29167
456.783	2893.29167
460.683	2864.29167
464.58	2879.29167
468.473	2867.625
472.364	2904.625
476.251	2901.29167
480.135	2923.625
484.016	2956.625
487.894	2954.625
491.769	2957.95833
495.641	2963.95833
499.509	2959.95833
503.375	2956.29167
507.237	2950.625
511.096	2923.95833
514.952	2935.95833
518.805	2912.95833
522.655	2937.95833
526.502	2890.625
530.346	2893.95833
534.187	2919.95833
538.024	2945.29167
541.859	2922.625
545.69	2946.95833
549.519	2897.29167
553.344	2905.95833
557.166	2855.95833
560.985	2838.95833
564.802	2800.625
568.615	2770.625
572.425	2729.625
576.232	2712.29167
580.036	2710.625
583.836	2741.625
587.634	2730.95833
591.429	2694.29167
595.221	2752.95833
599.01	2777.625
602.796	2803.95833
606.578	2836.95833
610.358	2853.95833
614.135	2842.95833
617.909	2820.95833
621.679	2837.95833
625.447	2816.625
629.212	2811.625
632.973	2824.625
636.732	2810.625
640.488	2798.95833
644.241	2760.29167
647.991	2797.29167
651.737	2798.29167
655.481	2792.29167
659.222	2819.29167
662.96	2813.95833
666.695	2830.29167
670.427	2828.29167
674.156	2825.625
677.882	2798.625
681.605	2825.625
685.325	2752.95833
689.043	2774.95833
692.757	2759.29167
696.468	2784.29167
700.177	2775.95833
703.882	2777.625
707.585	2786.29167
711.284	2764.95833
714.981	2772.95833
718.675	2793.95833
722.366	2776.29167
726.054	2765.625
729.739	2767.95833
733.421	2763.29167
737.1	2775.29167
740.777	2810.95833
744.45	2788.625
748.121	2837.29167
751.789	2871.625
755.453	2865.625
759.115	2900.625
762.774	2911.95833
766.431	2963.95833
770.084	2956.625
773.734	3003.95833
777.382	3061.625
781.027	3068.95833
784.669	3083.29167
788.308	3094.29167
791.944	3089.95833
795.577	3140.95833
799.208	3165.95833
802.835	3195.625
806.46	3215.625
810.082	3268.29167
813.701	3300.625
817.317	3354.625
820.931	3333.625
824.542	3308.29167
828.149	3253.95833
831.754	3230.95833
835.357	3186.95833
838.956	3218.29167
842.553	3181.625
846.146	3155.95833
849.737	3144.625
853.326	3162.95833
856.911	3178.29167
860.493	3224.95833
864.073	3232.95833
867.65	3281.95833
871.225	3318.95833
874.796	3325.95833
878.365	3311.29167
881.931	3352.95833
885.494	3375.29167
889.054	3373.95833
892.612	3366.29167
896.166	3330.625
899.719	3329.95833
903.268	3280.95833
906.814	3282.95833
910.358	3257.29167
913.899	3263.625
917.438	3272.625
920.973	3269.29167
924.506	3301.625
928.036	3320.625
931.564	3351.95833
935.088	3397.625
938.61	3404.625
942.129	3428.625
945.646	3480.625
949.16	3558.95833
952.671	3677.95833
956.179	3699.95833
959.685	3719.95833
963.188	3708.95833
966.688	3670.95833
970.185	3546.29167
973.68	3491.29167
977.173	3458.625
980.662	3431.29167
984.149	3455.625
987.633	3484.625
991.114	3536.625
994.593	3618.95833
998.069	3740.625
1001.542	3857.95833
1005.013	3779.625
1008.481	3543.29167
1011.947	3493.625
1015.409	3481.625
1018.869	3471.625
1022.327	3455.625
1025.782	3456.625
1029.234	3463.625
1032.683	3410.625
1036.13	3291.95833
1039.574	3195.95833
1043.016	3112.625
1046.455	3038.29167
1049.891	2996.29167
1053.325	3006.29167
1056.756	2987.95833
1060.184	3019.95833
1063.61	3007.95833
1067.033	3044.29167
1070.454	3015.625
1073.872	3073.625
1077.287	3080.29167
1080.7	3082.29167
1084.11	3067.29167
1087.517	3029.625
1090.922	3006.625
1094.325	2956.625
1097.724	2936.29167
1101.122	2934.29167
1104.516	2949.29167
1107.908	2933.95833
1111.298	2994.95833
1114.684	3010.29167
1118.069	3057.625
1121.45	3082.625
1124.83	3061.29167
1128.206	3070.625
1131.58	3130.29167
1134.951	3192.29167
1138.32	3281.29167
1141.687	3393.95833
1145.05	3515.625
1148.412	3534.29167
1151.77	3552.625
1155.126	3557.625
1158.48	3541.625
1161.831	3589.625
1165.18	3592.625
1168.525	3621.95833
1171.869	3670.29167
1175.21	3733.625
1178.548	3757.29167
1181.884	3824.95833
1185.217	3849.29167
1188.548	3895.95833
1191.877	3982.625
1195.202	4055.95833
1198.526	4095.95833
1201.846	4095.29167
1205.165	4117.95833
1208.48	4074.625
1211.794	4067.29167
1215.104	4078.29167
1218.413	4059.29167
1221.719	4058.625
1225.022	4001.29167
1228.323	3977.625
1231.621	3963.95833
1234.917	3954.625
1238.21	3972.95833
1241.501	3956.29167
1244.79	3965.95833
1248.076	3960.95833
1251.359	4003.95833
1254.64	4068.625
1257.919	4040.95833
1261.195	4157.29167
1264.468	4203.95833
1267.74	4260.625
1271.008	4252.29167
1274.275	4286.95833
1277.538	4218.625
1280.8	4204.625
1284.059	4222.95833
1287.315	4275.625
1290.569	4261.625
1293.821	4299.95833
1297.07	4334.95833
1300.317	4354.29167
1303.562	4331.625
1306.803	4299.95833
1310.043	4244.625
1313.28	4232.625
1316.515	4185.625
1319.747	4143.29167
1322.977	4117.95833
1326.204	4075.29167
1329.429	4000.95833
1332.652	3974.625
1335.872	3976.625
1339.09	3949.95833
1342.306	3964.95833
1345.519	3909.95833
1348.729	3909.95833
1351.938	3879.95833
1355.144	3832.29167
1358.347	3790.625
1361.548	3755.625
1364.747	3777.29167
1367.944	3772.29167
1371.138	3756.625
1374.329	3772.95833
1377.518	3802.95833
1380.705	3840.29167
1383.89	3811.95833
1387.072	3708.95833
1390.252	3567.95833
1393.429	3449.29167
1396.605	3365.625
1399.777	3251.95833
1402.948	3232.29167
1406.116	3208.95833
1409.282	3214.95833
1412.445	3236.29167
1415.606	3246.95833
1418.765	3286.625
1421.921	3349.95833
1425.075	3414.29167
1428.227	3543.625
1431.376	3727.29167
1434.524	3838.95833
1437.668	3922.625
1440.811	3957.95833
1443.951	4004.95833
1447.089	3980.625
1450.224	4005.29167
1453.357	3981.95833
1456.488	3931.29167
1459.617	3898.29167
1462.743	3824.625
1465.867	3752.95833
1468.989	3712.95833
1472.108	3666.95833
1475.225	3596.29167
1478.34	3570.29167
1481.453	3550.625
1484.563	3562.95833
1487.671	3584.29167
1490.776	3665.95833
1493.88	3727.29167
1496.981	3810.95833
1500.08	3901.29167
1503.176	3974.95833
1506.271	4004.625
1509.363	4060.625
1512.452	4116.29167
1515.54	4206.29167
1518.625	4310.29167
1521.708	4490.29167
1524.789	4762.95833
1527.867	5048.625
1530.944	5366.29167
1534.018	5548.625
1537.089	5633.95833
1540.159	5514.625
1543.226	5387.625
1546.291	5150.29167
1549.354	5011.29167
1552.415	4824.29167
1555.473	4704.29167
1558.529	4650.625
1561.583	4571.95833
1564.634	4557.95833
1567.684	4558.95833
1570.731	4609.29167
1573.776	4657.29167
1576.819	4690.95833
1579.859	4779.95833
1582.898	4872.29167
1585.934	4892.95833
1588.968	4869.625
1591.999	4840.29167
1595.029	4878.95833
1598.056	4911.95833
1601.081	4930.625
1604.104	4899.95833
1607.125	4849.625
1610.144	4773.29167
1613.16	4663.29167
1616.174	4540.29167
1619.186	4465.29167
1622.196	4368.95833
1625.203	4300.625
1628.209	4223.29167
1631.212	4197.29167
1634.213	4216.29167
1637.212	4221.625
1640.209	4143.29167
1643.203	4030.95833
1646.196	3918.625
1649.186	3746.95833
1652.174	3641.29167
1655.16	3513.625
1658.144	3424.625
1661.125	3263.625
1664.105	3076.95833
1667.082	2937.625
1670.057	2786.625
1673.03	2606.625
1676.001	2443.29167
1678.97	2286.29167
1681.937	2150.95833
1684.901	2023.95833
1687.863	1963.625
1690.824	1888.95833
1693.782	1849.95833
1696.738	1754.625
1699.692	1730.95833
1702.643	1694.29167
1705.593	1665.29167
1708.54	1648.29167
1711.486	1637.95833
1714.429	1593.625
1717.37	1582.95833
1720.309	1569.29167
1723.246	1561.95833
1726.181	1523.95833
1729.113	1536.29167
1732.044	1513.625
1734.972	1500.625
1737.899	1494.95833
1740.823	1481.95833
1743.745	1438.29167
1746.665	1431.95833
1749.583	1419.29167
1752.499	1391.625
1755.413	1374.95833
1758.325	1339.95833
1761.235	1340.29167
1764.142	1318.29167
1767.048	1313.95833
1769.951	1287.625
1772.852	1294.625
1775.752	1286.625
1778.649	1276.625
1781.544	1277.95833
1784.437	1250.29167
1787.328	1260.625
1790.217	1257.29167
1793.104	1223.625
1795.989	1237.625
1798.872	1206.95833
1801.753	1233.95833
1804.631	1221.625
1807.508	1226.29167
1810.383	1219.29167
1813.255	1201.625
1816.126	1200.29167
1818.994	1188.625
1821.861	1191.29167
1824.725	1171.29167
1827.587	1190.625
1830.448	1173.29167
1833.306	1146.95833
1836.162	1153.29167
1839.017	1138.29167
1841.869	1148.625
1844.719	1140.29167
1847.567	1117.95833
1850.414	1107.29167
1853.258	1114.95833
1856.1	1129.625
1858.94	1147.95833
1861.778	1127.625
1864.614	1116.95833
1867.448	1122.29167
1870.28	1109.95833
1873.111	1132.625
1875.939	1113.29167
1878.765	1131.625
1881.589	1107.29167
1884.411	1095.95833
1887.231	1116.29167
1890.049	1085.29167
1892.865	1103.95833
1895.68	1092.29167
1898.492	1087.29167
1901.302	1076.29167
1904.11	1087.625
1906.916	1071.95833
1909.721	1067.29167
1912.523	1087.625
1915.323	1051.29167
1918.122	1035.625
1920.918	1064.625
1923.712	1055.95833
1926.505	1050.95833
1929.295	1030.95833
1932.084	1050.29167
1934.87	1043.625
1937.655	1027.29167
1940.438	1022.95833
1943.218	1024.625
1945.997	1041.95833
1948.774	1041.95833
1951.549	1039.625
1954.322	1027.29167
1957.093	1044.625
1959.862	1015.95833
1962.629	1025.625
1965.394	1007.29167
1968.157	1005.625
1970.918	1013.625
1973.678	993.625
1976.435	1007.29167
1979.19	998.29167
1981.944	991.29167
1984.696	988.95833
1987.445	974.29167
1990.193	991.29167
1992.939	992.29167
1995.683	990.625
1998.425	964.29167
2001.165	987.95833
2003.903	974.29167
2006.639	967.625
2009.374	976.95833
2012.106	976.625
2014.837	940.95833
2017.566	970.95833
2020.292	973.29167
2023.017	966.625
2025.74	957.29167
2028.461	959.29167
2031.18	955.29167
2033.898	952.29167
2036.613	947.625
2039.327	949.625
2042.038	931.29167
2044.748	946.625
2047.456	949.29167
2050.162	918.29167
2052.866	920.95833
2055.568	924.95833
2058.268	912.29167
2060.967	933.95833
2063.663	907.29167
2066.358	914.29167
2069.051	904.625
2071.742	918.625
2074.431	917.29167
2077.118	912.29167
2079.804	898.29167
2082.487	898.625
2085.169	913.625
2087.849	941.95833
2090.527	907.625
2093.203	936.625
2095.877	931.625
2098.55	923.29167
2101.22	946.625
2103.889	958.95833
2106.556	941.625
2109.221	964.29167
2111.884	980.95833
2114.546	1029.29167
2117.205	1073.95833
2119.863	1172.95833
2122.519	1224.29167
2125.173	1307.29167
2127.825	1426.95833
2130.475	1457.95833
2133.124	1442.95833
2135.771	1412.29167
2138.416	1364.29167
2141.059	1275.95833
2143.7	1246.29167
2146.339	1177.625
2148.977	1098.29167
2151.613	1107.29167
2154.247	1057.95833
2156.879	1045.95833
2159.51	1042.95833
2162.138	1037.95833
2164.765	1030.95833
2167.39	1013.625
2170.013	1051.29167
2172.634	1043.625
2175.254	1040.95833
2177.872	1055.29167
2180.488	1021.29167
2183.102	1027.95833
2185.714	987.95833
2188.325	967.29167
2190.934	967.29167
2193.541	954.95833
2196.146	928.625
2198.75	907.29167
2201.351	893.625
2203.951	851.95833
2206.549	883.95833
2209.146	854.29167
2211.74	849.625
2214.333	859.29167
2216.924	818.95833
2219.514	832.95833
2222.101	808.29167
2224.687	831.625
2227.271	803.29167
2229.853	800.29167
2232.433	803.29167
2235.012	823.95833
2237.589	822.29167
2240.164	819.29167
2242.738	805.625
2245.309	781.29167
2247.879	793.625
2250.448	791.29167
2253.014	752.95833
2255.579	753.29167
2258.142	756.95833
2260.703	735.29167
2263.262	729.625
2265.82	729.95833
2268.376	734.95833
2270.93	716.95833
2273.483	712.625
2276.033	717.625
2278.583	713.625
2281.13	711.625
2283.675	679.95833
2286.219	697.95833
2288.761	694.29167
2291.302	696.29167
2293.841	700.95833
2296.377	678.625
2298.913	684.625
2301.446	695.95833
2303.978	686.29167
2306.508	672.95833
2309.037	674.95833
2311.563	683.625
2314.088	688.29167
2316.612	653.29167
2319.133	670.95833
2321.653	658.95833
2324.171	660.29167
2326.688	665.95833
2329.202	652.95833
2331.715	659.95833
2334.227	661.29167
2336.736	648.95833
2339.244	639.625
2341.751	629.625
2344.255	644.625
2346.758	635.29167
2349.259	629.625
2351.759	647.95833
2354.257	634.625
2356.753	630.95833
2359.247	624.29167
2361.74	634.95833
2364.231	619.625
2366.721	630.29167
2369.209	618.29167
2371.695	617.625
2374.179	617.95833
2376.662	615.625
2379.143	628.625
2381.622	622.95833
2384.1	617.29167
2386.576	611.625
2389.051	622.625
2391.524	622.625
2393.995	610.625
2396.464	597.625
2398.932	597.625
2401.398	600.625
2403.863	603.29167
2406.325	598.95833
2408.787	585.29167
2411.246	595.625
2413.704	585.625
2416.16	598.95833
2418.615	603.95833
2421.068	602.95833
2423.519	594.95833
2425.969	578.625
2428.417	596.29167
2430.863	613.29167
2433.308	592.29167
2435.751	588.29167
2438.193	577.625
2440.633	588.29167
2443.071	590.95833
2445.508	564.29167
2447.943	570.29167
2450.376	568.29167
2452.808	571.29167
2455.238	561.625
2457.667	603.29167
2460.093	573.29167
2462.519	552.95833
2464.942	562.625
2467.365	569.29167
2469.785	572.29167
2472.204	557.625
2474.621	555.95833
2477.037	584.95833
2479.451	541.625
2481.863	547.625
2484.274	550.625
2486.683	560.29167
2489.091	557.29167
2491.497	552.95833
2493.901	543.29167
2496.304	543.29167
2498.705	553.95833
2501.105	534.95833
2503.503	564.95833
2505.899	538.625
2508.294	565.95833
2510.687	532.625
2513.079	538.29167
2515.469	521.625
2517.858	537.95833
2520.245	549.95833
2522.63	532.29167
2525.014	526.29167
2527.396	524.29167
2529.776	522.29167
2532.156	531.29167
2534.533	506.95833
2536.909	520.95833
2539.283	510.29167
2541.656	514.625
2544.027	536.29167
2546.397	518.625
2548.765	525.625
2551.131	515.625
2553.496	518.29167
2555.86	515.95833
2558.221	514.29167
2560.582	509.625
2562.94	499.625
2565.298	516.29167
2567.653	524.95833
2570.007	502.29167
2572.36	517.29167
2574.711	512.29167
2577.06	532.29167
2579.408	510.95833
2581.754	511.95833
2584.099	506.625
2586.442	506.95833
2588.784	508.95833
2591.124	502.625
2593.463	498.625
2595.8	501.95833
2598.135	488.95833
2600.469	496.625
2602.802	508.625
2605.133	508.29167
2607.462	490.625
2609.79	483.95833
2612.116	490.625
2614.441	492.95833
2616.764	500.625
2619.086	500.625
2621.406	485.625
2623.725	506.625
2626.042	499.29167
2628.358	497.95833
2630.672	490.625
2632.985	505.29167
2635.296	493.625
2637.606	500.29167
2639.914	485.29167
2642.22	492.95833
2644.525	487.29167
2646.829	501.625
2649.131	504.625
2651.432	507.29167
2653.731	490.95833
2656.028	508.29167
2658.324	494.29167
2660.619	488.95833
2662.912	500.95833
2665.204	491.29167
2667.494	511.95833
2669.782	493.29167
2672.07	507.95833
2674.355	514.95833
2676.639	497.95833
2678.922	483.95833
2681.203	512.625
2683.483	481.625
2685.761	484.625
2688.038	497.95833
2690.313	516.29167
2692.587	499.95833
2694.859	482.625
2697.13	495.29167
2699.399	510.625
2701.667	517.95833
2703.933	511.29167
2706.198	505.625
2708.461	509.95833
2710.723	521.29167
2712.984	518.625
2715.243	528.95833
2717.5	522.95833
2719.757	529.95833
2722.011	523.95833
2724.264	536.625
2726.516	538.29167
2728.766	530.625
2731.015	537.95833
2733.262	530.29167
2735.508	536.29167
2737.753	522.29167
2739.996	515.95833
2742.237	513.95833
2744.477	519.625
2746.716	519.29167
2748.953	517.95833
2751.189	519.29167
2753.423	498.625
2755.656	502.95833
2757.887	489.625
2760.117	498.95833
2762.346	492.625
2764.573	485.29167
2766.798	480.29167
2769.022	496.95833
2771.245	494.625
2773.467	496.29167
2775.686	482.95833
2777.905	504.625
2780.122	499.95833
2782.337	505.29167
2784.552	498.625
2786.764	504.95833
2788.976	506.95833
2791.186	519.625
2793.394	511.625
2795.601	521.95833
2797.807	528.625
2800.011	538.625
2802.214	546.625
2804.415	545.95833
2806.615	542.29167
2808.814	566.625
2811.011	570.625
2813.206	560.95833
2815.401	582.29167
2817.594	591.29167
2819.785	593.625
2821.975	587.95833
2824.164	612.29167
2826.351	627.625
2828.537	635.29167
2830.722	666.625
2832.905	667.625
2835.086	708.625
2837.267	745.95833
2839.445	764.95833
2841.623	790.625
2843.799	838.29167
2845.974	879.29167
2848.147	918.95833
2850.319	949.625
2852.489	984.29167
2854.659	995.29167
2856.826	1010.95833
2858.993	1045.29167
2861.158	1037.95833
2863.321	1048.29167
2865.483	1057.625
2867.644	1055.29167
2869.804	1051.625
2871.962	1041.29167
2874.118	1041.29167
2876.274	1049.95833
2878.428	1036.29167
2880.58	1029.625
2882.731	1039.95833
2884.881	1037.29167
2887.03	1046.625
2889.177	1038.625
2891.322	1067.29167
2893.467	1055.95833
2895.61	1057.29167
2897.751	1085.95833
2899.892	1083.95833
2902.03	1089.625
2904.168	1099.95833
2906.304	1110.95833
2908.439	1128.95833
2910.572	1106.95833
2912.704	1125.95833
2914.835	1119.29167
2916.965	1111.625
2919.093	1138.29167
2921.219	1097.29167
2923.345	1123.29167
2925.469	1085.625
2927.591	1084.625
2929.712	1049.625
2931.832	1023.29167
2933.951	1002.95833
2936.068	986.625
2938.184	958.95833
2940.299	930.625
2942.412	902.29167
2944.524	850.625
2946.634	850.95833
2948.744	786.625
2950.851	802.29167
2952.958	744.95833
2955.063	732.95833
2957.167	727.625
2959.269	685.29167
2961.371	695.29167
2963.471	650.625
2965.569	655.29167
2967.666	619.95833
2969.762	611.29167
2971.857	584.625
2973.95	562.29167
2976.042	564.95833
2978.133	561.625
2980.222	533.95833
2982.31	506.625
2984.396	488.29167
2986.482	492.29167
2988.566	478.29167
2990.648	467.95833
2992.73	466.625
2994.81	446.625
2996.889	454.625
2998.966	444.95833
3001.042	451.95833
3003.117	434.29167
3005.191	439.95833
3007.263	437.95833
3009.334	431.95833
3011.403	420.29167
3013.472	401.29167
3015.539	405.29167
3017.604	414.625
3019.669	374.29167
3021.732	376.625
3023.794	379.29167
3025.854	371.625
3027.914	361.29167
3029.971	370.95833
3032.028	364.95833
3034.083	375.95833
3036.137	365.625
3038.19	342.625
3040.242	343.95833
3042.292	324.95833
3044.341	326.29167
3046.388	345.625
3048.435	308.625
3050.48	335.29167
3052.524	330.95833
3054.566	313.29167
3056.607	318.95833
3058.647	307.29167
3060.686	286.95833
3062.723	281.29167
3064.759	272.29167
3066.794	0.95833
3068.828	-1.70833
3070.86	-0.375
