-0.839	455.54167
3.438	491.20833
7.711	138.20833
11.981	54.54167
16.247	44.875
20.509	43.54167
24.768	48.875
29.024	47.54167
33.276	43.875
37.524	50.875
41.769	45.20833
46.01	37.20833
50.247	50.875
54.481	62.20833
58.712	68.54167
62.939	49.20833
67.162	67.54167
71.382	58.875
75.599	47.20833
79.812	66.20833
84.021	79.54167
88.227	63.20833
92.429	65.875
96.628	52.54167
100.823	71.54167
105.015	80.875
109.204	80.20833
113.388	81.20833
117.57	81.875
121.748	96.54167
125.922	86.54167
130.093	109.54167
134.261	113.875
138.425	110.20833
142.585	153.20833
146.742	154.54167
150.896	182.875
155.046	236.875
159.193	389.54167
163.336	660.54167
167.476	1232.20833
171.613	2266.20833
175.746	3719.54167
179.875	5515.20833
184.002	7132.20833
188.124	8241.20833
192.244	8630.875
196.36	8550.875
200.472	8326.20833
204.581	8101.54167
208.687	7994.54167
212.79	7947.875
216.889	7951.875
220.984	8030.54167
225.077	8114.20833
229.165	8199.20833
233.251	8343.54167
237.333	8433.54167
241.412	8457.875
245.487	8536.20833
249.559	8434.875
253.628	8347.20833
257.694	8247.875
261.756	8163.54167
265.814	8049.54167
269.87	7792.20833
273.922	7498.875
277.97	7237.875
282.016	6957.54167
286.058	6726.20833
290.097	6602.54167
294.132	6469.20833
298.164	6394.20833
302.193	6261.54167
306.219	5895.875
310.241	5346.20833
314.26	4834.20833
318.276	4379.875
322.288	4108.20833
326.297	3842.54167
330.303	3707.54167
334.305	3562.54167
338.305	3457.20833
342.301	3418.54167
346.294	3383.20833
350.283	3331.54167
354.269	3321.875
358.252	3281.875
362.232	3286.54167
366.209	3247.54167
370.182	3203.54167
374.152	3189.54167
378.119	3206.20833
382.083	3173.875
386.043	3196.875
390	3153.875
393.954	3127.20833
397.905	3127.875
401.852	3080.875
405.797	3012.20833
409.738	2993.20833
413.676	2995.54167
417.61	2966.20833
421.542	2906.20833
425.47	2867.20833
429.396	2836.20833
433.318	2829.20833
437.236	2813.875
441.152	2831.54167
445.065	2746.20833
448.974	2743.875
452.88	2694.20833
456.783	2686.54167
460.683	2674.20833
464.58	2687.20833
468.473	2672.54167
472.364	2685.875
476.251	2679.54167
480.135	2698.54167
484.016	2737.875
487.894	2728.20833
491.769	2738.875
495.641	2751.54167
499.509	2741.875
503.375	2738.54167
507.237	2745.20833
511.096	2712.875
514.952	2729.54167
518.805	2759.54167
522.655	2748.20833
526.502	2702.54167
530.346	2724.54167
534.187	2722.875
538.024	2733.54167
541.859	2747.20833
545.69	2764.54167
549.519	2746.54167
553.344	2755.875
557.166	2685.54167
560.985	2663.875
564.802	2616.54167
568.615	2559.875
572.425	2544.875
576.232	2540.875
580.036	2511.20833
583.836	2515.20833
587.634	2525.20833
591.429	2535.20833
595.221	2576.875
599.01	2600.20833
602.796	2622.54167
606.578	2643.54167
610.358	2655.54167
614.135	2640.54167
617.909	2664.54167
621.679	2635.54167
625.447	2602.20833
629.212	2626.20833
632.973	2621.54167
636.732	2600.20833
640.488	2609.54167
644.241	2564.875
647.991	2576.54167
651.737	2596.875
655.481	2590.54167
659.222	2616.54167
662.96	2613.54167
666.695	2611.54167
670.427	2606.20833
674.156	2627.875
677.882	2636.875
681.605	2624.20833
685.325	2566.20833
689.043	2594.875
692.757	2588.54167
696.468	2576.875
700.177	2607.875
703.882	2577.54167
707.585	2584.54167
711.284	2570.54167
714.981	2572.875
718.675	2568.20833
722.366	2576.20833
726.054	2555.875
729.739	2557.875
733.421	2577.20833
737.1	2561.20833
740.777	2589.875
744.45	2597.20833
748.121	2618.54167
751.789	2665.54167
755.453	2658.20833
759.115	2667.20833
762.774	2730.54167
766.431	2748.875
770.084	2780.20833
773.734	2804.54167
777.382	2859.54167
781.027	2897.20833
784.669	2911.54167
788.308	2901.875
791.944	2910.54167
795.577	2955.20833
799.208	2970.54167
802.835	3001.54167
806.46	3016.875
810.082	3062.875
813.701	3090.54167
817.317	3135.54167
820.931	3113.875
824.542	3113.54167
828.149	3072.54167
831.754	3047.20833
835.357	3044.20833
838.956	3027.20833
842.553	3002.20833
846.146	2987.20833
849.737	2990.20833
853.326	2976.54167
856.911	2980.20833
860.493	3046.20833
864.073	3062.20833
867.65	3105.54167
871.225	3141.20833
874.796	3139.875
878.365	3152.54167
881.931	3165.20833
885.494	3190.20833
889.054	3198.875
892.612	3217.20833
896.166	3178.20833
899.719	3166.875
903.268	3130.20833
906.814	3102.54167
910.358	3083.20833
913.899	3098.54167
917.438	3092.20833
920.973	3093.875
924.506	3144.20833
928.036	3150.20833
931.564	3215.54167
935.088	3243.875
938.61	3249.54167
942.129	3256.20833
945.646	3336.875
949.16	3413.20833
952.671	3509.875
956.179	3567.54167
959.685	3547.20833
963.188	3543.20833
966.688	3495.54167
970.185	3403.20833
973.68	3340.54167
977.173	3291.875
980.662	3243.875
984.149	3247.875
987.633	3281.54167
991.114	3301.20833
994.593	3400.20833
998.069	3517.54167
1001.542	3681.20833
1005.013	3577.20833
1008.481	3392.54167
1011.947	3323.20833
1015.409	3284.54167
1018.869	3312.875
1022.327	3277.875
1025.782	3258.54167
1029.234	3284.20833
1032.683	3251.875
1036.13	3130.875
1039.574	3028.20833
1043.016	2942.875
1046.455	2884.875
1049.891	2825.20833
1053.325	2836.20833
1056.756	2839.875
1060.184	2844.20833
1063.61	2864.20833
1067.033	2884.20833
1070.454	2889.54167
1073.872	2915.20833
1077.287	2917.875
1080.7	2912.875
1084.11	2930.875
1087.517	2895.875
1090.922	2856.20833
1094.325	2828.875
1097.724	2789.875
1101.122	2811.875
1104.516	2809.54167
1107.908	2802.54167
1111.298	2871.875
1114.684	2905.54167
1118.069	2959.54167
1121.45	2961.20833
1124.83	2950.875
1128.206	2986.875
1131.58	3031.20833
1134.951	3115.20833
1138.32	3215.54167
1141.687	3369.875
1145.05	3487.54167
1148.412	3501.875
1151.77	3512.875
1155.126	3506.875
1158.48	3492.20833
1161.831	3511.54167
1165.18	3569.20833
1168.525	3599.875
1171.869	3629.875
1175.21	3657.20833
1178.548	3692.875
1181.884	3723.20833
1185.217	3789.20833
1188.548	3842.875
1191.877	3892.54167
1195.202	3963.20833
1198.526	4006.20833
1201.846	3983.20833
1205.165	3996.54167
1208.48	3968.875
1211.794	3957.20833
1215.104	3950.875
1218.413	3969.54167
1221.719	3926.54167
1225.022	3892.875
1228.323	3859.54167
1231.621	3830.54167
1234.917	3822.875
1238.21	3828.54167
1241.501	3810.54167
1244.79	3812.875
1248.076	3798.875
1251.359	3853.875
1254.64	3919.20833
1257.919	3971.54167
1261.195	4012.54167
1264.468	4096.20833
1267.74	4194.20833
1271.008	4213.875
1274.275	4164.54167
1277.538	4149.875
1280.8	4129.54167
1284.059	4109.54167
1287.315	4159.20833
1290.569	4165.20833
1293.821	4203.20833
1297.07	4213.54167
1300.317	4250.54167
1303.562	4213.20833
1306.803	4206.875
1310.043	4185.54167
1313.28	4113.875
1316.515	4103.20833
1319.747	4071.20833
1322.977	4013.875
1326.204	3933.20833
1329.429	3900.20833
1332.652	3856.54167
1335.872	3864.20833
1339.09	3817.54167
1342.306	3817.54167
1345.519	3776.20833
1348.729	3723.875
1351.938	3702.875
1355.144	3642.54167
1358.347	3585.54167
1361.548	3611.54167
1364.747	3625.20833
1367.944	3586.20833
1371.138	3640.875
1374.329	3650.54167
1377.518	3703.20833
1380.705	3720.20833
1383.89	3728.20833
1387.072	3636.54167
1390.252	3476.54167
1393.429	3377.20833
1396.605	3248.20833
1399.777	3150.875
1402.948	3116.20833
1406.116	3068.20833
1409.282	3096.875
1412.445	3062.54167
1415.606	3119.54167
1418.765	3132.875
1421.921	3226.54167
1425.075	3278.875
1428.227	3409.875
1431.376	3578.20833
1434.524	3731.54167
1437.668	3832.54167
1440.811	3880.54167
1443.951	3918.54167
1447.089	3903.875
1450.224	3900.875
1453.357	3903.875
1456.488	3869.54167
1459.617	3788.875
1462.743	3743.20833
1465.867	3693.875
1468.989	3634.54167
1472.108	3599.20833
1475.225	3543.20833
1478.34	3498.20833
1481.453	3525.875
1484.563	3542.54167
1487.671	3585.54167
1490.776	3630.20833
1493.88	3725.20833
1496.981	3782.54167
1500.08	3865.20833
1503.176	3939.20833
1506.271	3983.54167
1509.363	4054.875
1512.452	4141.20833
1515.54	4199.54167
1518.625	4272.54167
1521.708	4492.54167
1524.789	4741.875
1527.867	5012.20833
1530.944	5276.54167
1534.018	5485.54167
1537.089	5548.20833
1540.159	5456.875
1543.226	5288.875
1546.291	5121.54167
1549.354	4953.875
1552.415	4819.875
1555.473	4716.20833
1558.529	4618.54167
1561.583	4599.20833
1564.634	4586.54167
1567.684	4598.20833
1570.731	4601.20833
1573.776	4665.54167
1576.819	4724.875
1579.859	4789.875
1582.898	4851.20833
1585.934	4855.20833
1588.968	4917.20833
1591.999	4867.54167
1595.029	4889.54167
1598.056	4878.875
1601.081	4929.20833
1604.104	4880.20833
1607.125	4831.54167
1610.144	4741.54167
1613.16	4618.54167
1616.174	4551.875
1619.186	4475.875
1622.196	4376.875
1625.203	4293.20833
1628.209	4258.54167
1631.212	4207.20833
1634.213	4204.54167
1637.212	4150.20833
1640.209	4049.54167
1643.203	3930.20833
1646.196	3779.54167
1649.186	3622.54167
1652.174	3527.875
1655.16	3372.20833
1658.144	3271.20833
1661.125	3113.875
1664.105	2939.54167
1667.082	2814.54167
1670.057	2656.875
1673.03	2469.54167
1676.001	2303.20833
1678.97	2161.875
1681.937	2036.54167
1684.901	1912.20833
1687.863	1871.20833
1690.824	1778.875
1693.782	1731.54167
1696.738	1669.54167
1699.692	1632.875
1702.643	1600.54167
1705.593	1579.54167
1708.54	1569.54167
1711.486	1533.54167
1714.429	1509.875
1717.37	1488.20833
1720.309	1461.20833
1723.246	1477.20833
1726.181	1429.54167
1729.113	1436.54167
1732.044	1412.875
1734.972	1422.875
1737.899	1405.54167
1740.823	1379.54167
1743.745	1352.875
1746.665	1343.20833
1749.583	1326.20833
1752.499	1290.54167
1755.413	1274.20833
1758.325	1243.20833
1761.235	1250.20833
1764.142	1204.54167
1767.048	1214.875
1769.951	1208.54167
1772.852	1196.54167
1775.752	1192.54167
1778.649	1206.20833
1781.544	1191.54167
1784.437	1153.20833
1787.328	1164.20833
1790.217	1163.20833
1793.104	1130.54167
1795.989	1139.54167
1798.872	1114.20833
1801.753	1124.20833
1804.631	1137.54167
1807.508	1140.20833
1810.383	1121.54167
1813.255	1120.20833
1816.126	1114.20833
1818.994	1117.54167
1821.861	1104.875
1824.725	1098.875
1827.587	1094.54167
1830.448	1088.54167
1833.306	1057.54167
1836.162	1081.20833
1839.017	1053.54167
1841.869	1063.875
1844.719	1052.875
1847.567	1047.54167
1850.414	1046.875
1853.258	1041.875
1856.1	1058.875
1858.94	1060.875
1861.778	1043.20833
1864.614	1036.54167
1867.448	1041.20833
1870.28	1008.875
1873.111	1044.20833
1875.939	1040.54167
1878.765	1047.20833
1881.589	1038.54167
1884.411	1027.54167
1887.231	1040.54167
1890.049	1015.54167
1892.865	1020.54167
1895.68	1002.54167
1898.492	1018.20833
1901.302	1003.54167
1904.11	997.875
1906.916	993.20833
1909.721	979.20833
1912.523	986.20833
1915.323	961.875
1918.122	989.20833
1920.918	990.54167
1923.712	961.875
1926.505	981.20833
1929.295	950.875
1932.084	976.20833
1934.87	971.20833
1937.655	957.54167
1940.438	967.20833
1943.218	962.875
1945.997	962.875
1948.774	969.875
1951.549	971.54167
1954.322	958.54167
1957.093	961.875
1959.862	948.875
1962.629	945.20833
1965.394	943.20833
1968.157	914.54167
1970.918	941.20833
1973.678	920.20833
1976.435	935.54167
1979.19	918.20833
1981.944	916.20833
1984.696	919.54167
1987.445	907.54167
1990.193	904.54167
1992.939	928.54167
1995.683	928.20833
1998.425	903.875
2001.165	910.875
2003.903	910.875
2006.639	914.875
2009.374	909.54167
2012.106	909.20833
2014.837	879.54167
2017.566	900.875
2020.292	902.875
2023.017	898.54167
2025.74	882.54167
2028.461	881.875
2031.18	888.54167
2033.898	875.54167
2036.613	880.54167
2039.327	880.54167
2042.038	872.54167
2044.748	873.20833
2047.456	871.20833
2050.162	860.20833
2052.866	853.875
2055.568	869.875
2058.268	871.54167
2060.967	864.875
2063.663	839.875
2066.358	845.20833
2069.051	845.20833
2071.742	859.54167
2074.431	861.875
2077.118	840.875
2079.804	838.875
2082.487	851.54167
2085.169	866.20833
2087.849	866.54167
2090.527	846.875
2093.203	857.54167
2095.877	850.20833
2098.55	860.54167
2101.22	863.875
2103.889	877.875
2106.556	856.20833
2109.221	888.20833
2111.884	892.875
2114.546	925.54167
2117.205	967.20833
2119.863	1012.54167
2122.519	1064.54167
2125.173	1151.875
2127.825	1218.20833
2130.475	1255.875
2133.124	1252.875
2135.771	1215.54167
2138.416	1184.54167
2141.059	1125.54167
2143.7	1102.54167
2146.339	1008.875
2148.977	982.875
2151.613	978.54167
2154.247	951.875
2156.879	922.875
2159.51	910.20833
2162.138	900.875
2164.765	903.875
2167.39	898.20833
2170.013	924.54167
2172.634	923.20833
2175.254	907.54167
2177.872	935.875
2180.488	890.875
2183.102	903.20833
2185.714	863.875
2188.325	859.54167
2190.934	856.54167
2193.541	858.54167
2196.146	848.875
2198.75	806.875
2201.351	804.875
2203.951	797.20833
2206.549	807.875
2209.146	777.875
2211.74	793.20833
2214.333	789.54167
2216.924	762.875
2219.514	782.20833
2222.101	764.54167
2224.687	783.54167
2227.271	758.875
2229.853	762.54167
2232.433	753.20833
2235.012	766.54167
2237.589	767.875
2240.164	772.875
2242.738	757.54167
2245.309	741.54167
2247.879	748.54167
2250.448	741.20833
2253.014	708.20833
2255.579	705.20833
2258.142	708.54167
2260.703	688.875
2263.262	691.54167
2265.82	687.20833
2268.376	686.875
2270.93	675.54167
2273.483	676.875
2276.033	682.875
2278.583	667.875
2281.13	669.54167
2283.675	648.875
2286.219	671.54167
2288.761	678.20833
2291.302	662.54167
2293.841	667.20833
2296.377	647.54167
2298.913	649.54167
2301.446	657.54167
2303.978	645.20833
2306.508	639.54167
2309.037	642.875
2311.563	643.20833
2314.088	646.875
2316.612	624.54167
2319.133	638.875
2321.653	632.20833
2324.171	623.875
2326.688	635.875
2329.202	619.54167
2331.715	633.875
2334.227	621.20833
2336.736	617.20833
2339.244	606.54167
2341.751	601.875
2344.255	610.54167
2346.758	615.54167
2349.259	600.20833
2351.759	607.875
2354.257	601.20833
2356.753	594.54167
2359.247	592.875
2361.74	601.54167
2364.231	601.20833
2366.721	598.875
2369.209	591.875
2371.695	600.875
2374.179	594.54167
2376.662	594.54167
2379.143	604.20833
2381.622	595.54167
2384.1	602.54167
2386.576	585.20833
2389.051	595.54167
2391.524	604.54167
2393.995	594.54167
2396.464	577.875
2398.932	581.875
2401.398	569.20833
2403.863	572.875
2406.325	577.875
2408.787	580.54167
2411.246	586.20833
2413.704	565.20833
2416.16	576.54167
2418.615	572.54167
2421.068	573.875
2423.519	568.875
2425.969	568.875
2428.417	578.20833
2430.863	590.20833
2433.308	574.54167
2435.751	577.54167
2438.193	565.875
2440.633	580.20833
2443.071	577.20833
2445.508	553.20833
2447.943	557.54167
2450.376	545.20833
2452.808	559.54167
2455.238	548.54167
2457.667	573.20833
2460.093	554.54167
2462.519	537.20833
2464.942	543.20833
2467.365	561.875
2469.785	543.875
2472.204	546.20833
2474.621	537.20833
2477.037	560.20833
2479.451	527.54167
2481.863	524.875
2484.274	527.20833
2486.683	543.54167
2489.091	537.20833
2491.497	537.875
2493.901	535.20833
2496.304	541.20833
2498.705	546.20833
2501.105	539.54167
2503.503	555.20833
2505.899	524.875
2508.294	537.54167
2510.687	527.20833
2513.079	525.20833
2515.469	517.54167
2517.858	525.20833
2520.245	537.20833
2522.63	520.875
2525.014	520.875
2527.396	522.20833
2529.776	510.20833
2532.156	527.20833
2534.533	519.54167
2536.909	520.20833
2539.283	498.875
2541.656	504.875
2544.027	532.54167
2546.397	515.20833
2548.765	509.875
2551.131	507.875
2553.496	519.20833
2555.86	520.54167
2558.221	513.54167
2560.582	507.20833
2562.94	498.875
2565.298	508.54167
2567.653	523.20833
2570.007	491.20833
2572.36	504.54167
2574.711	505.20833
2577.06	523.54167
2579.408	508.20833
2581.754	504.54167
2584.099	503.875
2586.442	490.875
2588.784	508.54167
2591.124	503.54167
2593.463	505.875
2595.8	500.875
2598.135	497.20833
2600.469	493.875
2602.802	510.20833
2605.133	515.875
2607.462	489.20833
2609.79	497.875
2612.116	495.20833
2614.441	493.54167
2616.764	498.54167
2619.086	508.875
2621.406	485.875
2623.725	506.875
2626.042	509.875
2628.358	490.54167
2630.672	498.20833
2632.985	513.875
2635.296	497.54167
2637.606	505.20833
2639.914	493.20833
2642.22	495.875
2644.525	493.875
2646.829	505.20833
2649.131	511.54167
2651.432	508.875
2653.731	513.20833
2656.028	518.875
2658.324	502.54167
2660.619	500.875
2662.912	507.20833
2665.204	490.54167
2667.494	516.54167
2669.782	500.875
2672.07	504.875
2674.355	521.54167
2676.639	506.875
2678.922	497.54167
2681.203	511.54167
2683.483	499.20833
2685.761	497.54167
2688.038	505.20833
2690.313	518.875
2692.587	502.20833
2694.859	496.54167
2697.13	509.875
2699.399	512.875
2701.667	520.54167
2703.933	531.875
2706.198	533.875
2708.461	525.20833
2710.723	541.20833
2712.984	523.20833
2715.243	538.54167
2717.5	544.20833
2719.757	544.875
2722.011	544.54167
2724.264	551.20833
2726.516	558.20833
2728.766	553.875
2731.015	541.875
2733.262	542.54167
2735.508	546.20833
2737.753	535.875
2739.996	531.54167
2742.237	519.20833
2744.477	539.54167
2746.716	533.20833
2748.953	533.875
2751.189	535.875
2753.423	513.875
2755.656	513.875
2757.887	505.54167
2760.117	512.875
2762.346	503.875
2764.573	503.54167
2766.798	496.20833
2769.022	503.20833
2771.245	512.20833
2773.467	507.20833
2775.686	507.20833
2777.905	503.20833
2780.122	518.875
2782.337	522.20833
2784.552	512.875
2786.764	527.20833
2788.976	524.20833
2791.186	533.20833
2793.394	530.875
2795.601	548.54167
2797.807	551.20833
2800.011	544.54167
2802.214	564.20833
2804.415	560.20833
2806.615	561.875
2808.814	576.20833
2811.011	580.875
2813.206	581.54167
2815.401	592.875
2817.594	609.54167
2819.785	612.54167
2821.975	612.875
2824.164	615.875
2826.351	640.875
2828.537	661.20833
2830.722	682.875
2832.905	692.20833
2835.086	727.20833
2837.267	757.20833
2839.445	797.20833
2841.623	828.20833
2843.799	876.875
2845.974	921.875
2848.147	958.54167
2850.319	983.54167
2852.489	1047.54167
2854.659	1040.875
2856.826	1068.20833
2858.993	1092.875
2861.158	1092.875
2863.321	1074.875
2865.483	1099.20833
2867.644	1105.54167
2869.804	1108.20833
2871.962	1108.54167
2874.118	1114.875
2876.274	1135.20833
2878.428	1137.54167
2880.58	1116.875
2882.731	1098.20833
2884.881	1099.875
2887.03	1104.875
2889.177	1110.54167
2891.322	1121.875
2893.467	1105.875
2895.61	1122.54167
2897.751	1144.875
2899.892	1128.875
2902.03	1146.20833
2904.168	1157.20833
2906.304	1169.54167
2908.439	1184.875
2910.572	1178.54167
2912.704	1196.54167
2914.835	1191.54167
2916.965	1220.54167
2919.093	1205.875
2921.219	1171.54167
2923.345	1196.875
2925.469	1165.875
2927.591	1162.54167
2929.712	1121.875
2931.832	1125.20833
2933.951	1088.20833
2936.068	1063.54167
2938.184	1038.20833
2940.299	995.54167
2942.412	968.54167
2944.524	926.875
2946.634	905.875
2948.744	846.54167
2950.851	863.54167
2952.958	803.20833
2955.063	794.875
2957.167	772.54167
2959.269	742.20833
2961.371	756.875
2963.471	710.875
2965.569	713.54167
2967.666	674.20833
2969.762	655.54167
2971.857	648.54167
2973.95	627.54167
2976.042	612.20833
2978.133	596.875
2980.222	575.875
2982.31	554.20833
2984.396	544.875
2986.482	550.875
2988.566	532.54167
2990.648	518.875
2992.73	521.20833
2994.81	500.54167
2996.889	506.875
2998.966	493.54167
3001.042	498.20833
3003.117	494.20833
3005.191	493.20833
3007.263	479.54167
3009.334	479.875
3011.403	476.875
3013.472	450.875
3015.539	452.54167
3017.604	464.20833
3019.669	425.20833
3021.732	433.875
3023.794	431.20833
3025.854	413.875
3027.914	414.875
3029.971	420.875
3032.028	420.875
3034.083	412.875
3036.137	412.875
3038.19	389.20833
3040.242	381.875
3042.292	377.54167
3044.341	373.54167
3046.388	390.20833
3048.435	354.875
3050.48	383.20833
3052.524	365.54167
3054.566	348.875
3056.607	364.54167
3058.647	350.20833
3060.686	340.875
3062.723	323.20833
3064.759	317.875
3066.794	1.875
3068.828	-1.125
3070.86	-1.79167
