-0.839	412.83333
3.438	440.83333
7.711	127.83333
11.981	55.83333
16.247	48.5
20.509	45.16667
24.768	43.83333
29.024	49.16667
33.276	45.16667
37.524	46.83333
41.769	38.5
46.01	41.16667
50.247	55.5
54.481	64.5
58.712	70.5
62.939	48.16667
67.162	62.83333
71.382	61.5
75.599	54.16667
79.812	67.5
84.021	82.16667
88.227	60.16667
92.429	64.83333
96.628	52.83333
100.823	71.16667
105.015	76.5
109.204	81.83333
113.388	79.16667
117.57	81.83333
121.748	93.16667
125.922	86.16667
130.093	108.5
134.261	112.83333
138.425	110.16667
142.585	158.83333
146.742	151.5
150.896	179.5
155.046	217.16667
159.193	356.5
163.336	618.5
167.476	1128.5
171.613	2091.83333
175.746	3496.16667
179.875	5179.5
184.002	6826.5
188.124	7878.5
192.244	8231.83333
196.36	8161.5
200.472	7958.5
204.581	7733.5
208.687	7508.83333
212.79	7428.16667
216.889	7458.83333
220.984	7540.16667
225.077	7615.83333
229.165	7740.16667
233.251	7776.83333
237.333	7788.16667
241.412	7771.83333
245.487	7765.5
249.559	7661.83333
253.628	7627.16667
257.694	7538.5
261.756	7529.5
265.814	7362.16667
269.87	7189.16667
273.922	7028.83333
277.97	6990.5
282.016	6976.83333
286.058	6997.5
290.097	7165.5
294.132	7201.16667
298.164	7122.5
302.193	6760.83333
306.219	6268.83333
310.241	5688.5
314.26	5176.83333
318.276	4719.83333
322.288	4385.5
326.297	4109.16667
330.303	3911.83333
334.305	3788.16667
338.305	3684.83333
342.301	3626.5
346.294	3573.5
350.283	3531.16667
354.269	3513.5
358.252	3496.16667
362.232	3429.16667
366.209	3425.83333
370.182	3374.5
374.152	3366.5
378.119	3348.16667
382.083	3348.5
386.043	3339.16667
390	3332.5
393.954	3294.83333
397.905	3253.83333
401.852	3250.16667
405.797	3178.5
409.738	3184.5
413.676	3145.83333
417.61	3117.83333
421.542	3097.5
425.47	3087.83333
429.396	3062.83333
433.318	3029.83333
437.236	3002.16667
441.152	3030.16667
445.065	2959.5
448.974	2945.16667
452.88	2941.16667
456.783	2915.5
460.683	2912.16667
464.58	2915.5
468.473	2914.5
472.364	2919.5
476.251	2934.16667
480.135	2958.5
484.016	2998.83333
487.894	2970.5
491.769	2976.16667
495.641	3000.16667
499.509	3002.16667
503.375	3022.5
507.237	2982.5
511.096	2980.16667
514.952	2971.16667
518.805	2994.83333
522.655	3006.83333
526.502	2968.16667
530.346	2972.16667
534.187	2991.5
538.024	3003.5
541.859	2989.5
545.69	3032.83333
549.519	2998.16667
553.344	2975.5
557.166	2942.5
560.985	2903.5
564.802	2874.16667
568.615	2820.83333
572.425	2783.5
576.232	2757.5
580.036	2747.16667
583.836	2768.16667
587.634	2739.83333
591.429	2749.83333
595.221	2813.83333
599.01	2851.16667
602.796	2872.5
606.578	2903.83333
610.358	2896.5
614.135	2869.5
617.909	2877.5
621.679	2886.83333
625.447	2869.5
629.212	2851.83333
632.973	2884.16667
636.732	2885.83333
640.488	2860.83333
644.241	2811.16667
647.991	2828.83333
651.737	2831.5
655.481	2797.83333
659.222	2829.16667
662.96	2794.16667
666.695	2823.16667
670.427	2837.16667
674.156	2851.16667
677.882	2833.16667
681.605	2836.16667
685.325	2829.5
689.043	2841.16667
692.757	2820.16667
696.468	2831.16667
700.177	2847.16667
703.882	2814.5
707.585	2810.5
711.284	2836.83333
714.981	2823.16667
718.675	2859.5
722.366	2868.5
726.054	2831.16667
729.739	2822.83333
733.421	2835.16667
737.1	2845.5
740.777	2844.5
744.45	2864.16667
748.121	2895.5
751.789	2954.16667
755.453	2968.83333
759.115	2979.5
762.774	2993.16667
766.431	3017.83333
770.084	3047.5
773.734	3085.83333
777.382	3156.83333
781.027	3172.16667
784.669	3184.16667
788.308	3219.16667
791.944	3256.5
795.577	3284.83333
799.208	3282.83333
802.835	3312.83333
806.46	3343.16667
810.082	3369.5
813.701	3337.83333
817.317	3388.83333
820.931	3418.83333
824.542	3399.5
828.149	3355.16667
831.754	3318.5
835.357	3337.5
838.956	3331.16667
842.553	3286.16667
846.146	3294.16667
849.737	3261.16667
853.326	3316.5
856.911	3309.5
860.493	3372.16667
864.073	3380.83333
867.65	3428.16667
871.225	3445.5
874.796	3454.83333
878.365	3472.5
881.931	3522.83333
885.494	3526.83333
889.054	3506.5
892.612	3528.5
896.166	3492.83333
899.719	3456.83333
903.268	3433.16667
906.814	3418.16667
910.358	3407.16667
913.899	3363.83333
917.438	3379.16667
920.973	3361.16667
924.506	3400.5
928.036	3454.16667
931.564	3494.5
935.088	3525.5
938.61	3536.16667
942.129	3601.16667
945.646	3676.16667
949.16	3771.16667
952.671	3821.5
956.179	3858.5
959.685	3821.83333
963.188	3752.83333
966.688	3722.5
970.185	3589.16667
973.68	3543.16667
977.173	3512.83333
980.662	3503.83333
984.149	3484.5
987.633	3486.5
991.114	3588.5
994.593	3661.83333
998.069	3786.5
1001.542	3927.16667
1005.013	3811.16667
1008.481	3629.16667
1011.947	3546.16667
1015.409	3546.16667
1018.869	3550.5
1022.327	3521.83333
1025.782	3534.5
1029.234	3532.5
1032.683	3480.16667
1036.13	3363.83333
1039.574	3269.5
1043.016	3200.16667
1046.455	3135.16667
1049.891	3085.5
1053.325	3085.83333
1056.756	3106.16667
1060.184	3127.83333
1063.61	3137.5
1067.033	3138.16667
1070.454	3139.5
1073.872	3174.5
1077.287	3192.5
1080.7	3207.83333
1084.11	3210.16667
1087.517	3184.5
1090.922	3159.83333
1094.325	3130.83333
1097.724	3076.16667
1101.122	3081.16667
1104.516	3088.16667
1107.908	3083.5
1111.298	3135.5
1114.684	3162.83333
1118.069	3204.5
1121.45	3229.5
1124.83	3235.83333
1128.206	3285.16667
1131.58	3323.5
1134.951	3410.16667
1138.32	3486.5
1141.687	3655.16667
1145.05	3707.16667
1148.412	3751.83333
1151.77	3746.83333
1155.126	3744.5
1158.48	3753.16667
1161.831	3769.16667
1165.18	3808.83333
1168.525	3839.16667
1171.869	3895.83333
1175.21	3910.5
1178.548	3936.5
1181.884	4014.83333
1185.217	4010.16667
1188.548	4070.83333
1191.877	4151.5
1195.202	4230.83333
1198.526	4288.16667
1201.846	4316.16667
1205.165	4339.16667
1208.48	4276.16667
1211.794	4296.83333
1215.104	4305.16667
1218.413	4293.16667
1221.719	4283.83333
1225.022	4257.83333
1228.323	4201.83333
1231.621	4234.83333
1234.917	4245.16667
1238.21	4257.16667
1241.501	4244.5
1244.79	4247.5
1248.076	4273.16667
1251.359	4294.5
1254.64	4411.83333
1257.919	4356.83333
1261.195	4473.83333
1264.468	4550.16667
1267.74	4576.16667
1271.008	4590.16667
1274.275	4578.16667
1277.538	4542.16667
1280.8	4549.16667
1284.059	4543.16667
1287.315	4596.5
1290.569	4603.5
1293.821	4603.83333
1297.07	4637.16667
1300.317	4654.5
1303.562	4597.16667
1306.803	4579.83333
1310.043	4527.16667
1313.28	4466.83333
1316.515	4454.16667
1319.747	4367.5
1322.977	4323.83333
1326.204	4265.83333
1329.429	4197.83333
1332.652	4186.5
1335.872	4150.83333
1339.09	4123.83333
1342.306	4132.5
1345.519	4097.16667
1348.729	4065.83333
1351.938	4045.83333
1355.144	3990.5
1358.347	3977.83333
1361.548	3973.83333
1364.747	3998.16667
1367.944	3978.83333
1371.138	3992.5
1374.329	4045.83333
1377.518	4070.5
1380.705	4124.83333
1383.89	4106.83333
1387.072	3985.83333
1390.252	3848.5
1393.429	3714.16667
1396.605	3592.5
1399.777	3492.83333
1402.948	3469.83333
1406.116	3446.83333
1409.282	3440.5
1412.445	3471.16667
1415.606	3511.83333
1418.765	3538.83333
1421.921	3635.16667
1425.075	3706.5
1428.227	3849.16667
1431.376	4014.16667
1434.524	4143.16667
1437.668	4238.83333
1440.811	4242.83333
1443.951	4305.83333
1447.089	4312.16667
1450.224	4269.16667
1453.357	4250.83333
1456.488	4223.83333
1459.617	4161.16667
1462.743	4117.83333
1465.867	4004.5
1468.989	3997.16667
1472.108	3924.16667
1475.225	3812.5
1478.34	3787.5
1481.453	3797.5
1484.563	3776.83333
1487.671	3843.5
1490.776	3906.16667
1493.88	3998.83333
1496.981	4058.83333
1500.08	4158.5
1503.176	4203.16667
1506.271	4288.83333
1509.363	4335.16667
1512.452	4418.83333
1515.54	4478.16667
1518.625	4568.16667
1521.708	4749.5
1524.789	4951.83333
1527.867	5216.83333
1530.944	5528.5
1534.018	5830.16667
1537.089	6013.16667
1540.159	6014.16667
1543.226	5888.5
1546.291	5721.83333
1549.354	5531.5
1552.415	5393.5
1555.473	5254.83333
1558.529	5074.16667
1561.583	5031.16667
1564.634	4993.16667
1567.684	5006.83333
1570.731	4977.16667
1573.776	5003.5
1576.819	5004.5
1579.859	5080.83333
1582.898	5133.5
1585.934	5177.5
1588.968	5189.5
1591.999	5138.5
1595.029	5154.5
1598.056	5224.5
1601.081	5202.83333
1604.104	5225.83333
1607.125	5154.16667
1610.144	5023.83333
1613.16	4918.83333
1616.174	4804.5
1619.186	4684.5
1622.196	4592.5
1625.203	4457.83333
1628.209	4368.83333
1631.212	4346.16667
1634.213	4272.16667
1637.212	4221.5
1640.209	4164.5
1643.203	4040.16667
1646.196	3959.16667
1649.186	3802.83333
1652.174	3690.16667
1655.16	3595.5
1658.144	3460.16667
1661.125	3329.16667
1664.105	3168.5
1667.082	3013.16667
1670.057	2844.16667
1673.03	2679.5
1676.001	2539.5
1678.97	2355.5
1681.937	2232.16667
1684.901	2098.16667
1687.863	2034.5
1690.824	1964.16667
1693.782	1912.16667
1696.738	1852.5
1699.692	1822.83333
1702.643	1788.83333
1705.593	1769.83333
1708.54	1735.83333
1711.486	1719.5
1714.429	1676.83333
1717.37	1676.83333
1720.309	1636.83333
1723.246	1648.5
1726.181	1590.16667
1729.113	1598.83333
1732.044	1598.16667
1734.972	1561.83333
1737.899	1555.5
1740.823	1545.83333
1743.745	1546.83333
1746.665	1493.83333
1749.583	1467.83333
1752.499	1450.5
1755.413	1448.5
1758.325	1404.83333
1761.235	1403.16667
1764.142	1362.83333
1767.048	1362.16667
1769.951	1348.83333
1772.852	1335.83333
1775.752	1322.83333
1778.649	1321.5
1781.544	1325.5
1784.437	1299.83333
1787.328	1312.5
1790.217	1299.5
1793.104	1270.83333
1795.989	1266.16667
1798.872	1263.83333
1801.753	1290.5
1804.631	1283.83333
1807.508	1279.5
1810.383	1269.5
1813.255	1241.16667
1816.126	1247.83333
1818.994	1250.5
1821.861	1234.83333
1824.725	1232.83333
1827.587	1228.16667
1830.448	1225.5
1833.306	1195.83333
1836.162	1206.16667
1839.017	1192.83333
1841.869	1181.5
1844.719	1197.16667
1847.567	1178.83333
1850.414	1172.5
1853.258	1156.16667
1856.1	1168.16667
1858.94	1190.83333
1861.778	1173.5
1864.614	1167.16667
1867.448	1167.5
1870.28	1148.5
1873.111	1179.83333
1875.939	1169.16667
1878.765	1177.5
1881.589	1153.5
1884.411	1156.83333
1887.231	1162.16667
1890.049	1155.5
1892.865	1161.5
1895.68	1137.16667
1898.492	1132.5
1901.302	1120.83333
1904.11	1130.5
1906.916	1104.83333
1909.721	1109.83333
1912.523	1125.16667
1915.323	1105.5
1918.122	1094.5
1920.918	1107.5
1923.712	1083.83333
1926.505	1099.16667
1929.295	1083.83333
1932.084	1105.5
1934.87	1107.16667
1937.655	1090.83333
1940.438	1069.16667
1943.218	1082.16667
1945.997	1083.83333
1948.774	1106.83333
1951.549	1090.16667
1954.322	1072.16667
1957.093	1086.5
1959.862	1065.83333
1962.629	1078.83333
1965.394	1057.16667
1968.157	1043.16667
1970.918	1060.5
1973.678	1053.5
1976.435	1065.83333
1979.19	1039.5
1981.944	1035.83333
1984.696	1025.83333
1987.445	1024.83333
1990.193	1033.83333
1992.939	1046.5
1995.683	1035.16667
1998.425	998.5
2001.165	1034.16667
2003.903	1030.16667
2006.639	1015.5
2009.374	1019.5
2012.106	1026.16667
2014.837	989.83333
2017.566	1021.5
2020.292	1018.83333
2023.017	1019.16667
2025.74	999.16667
2028.461	1000.5
2031.18	1010.5
2033.898	995.5
2036.613	1001.5
2039.327	1005.5
2042.038	988.83333
2044.748	988.5
2047.456	997.5
2050.162	967.16667
2052.866	968.83333
2055.568	970.16667
2058.268	971.16667
2060.967	981.5
2063.663	964.83333
2066.358	965.16667
2069.051	961.83333
2071.742	971.5
2074.431	971.16667
2077.118	961.5
2079.804	954.16667
2082.487	967.83333
2085.169	971.5
2087.849	995.83333
2090.527	977.5
2093.203	978.5
2095.877	995.16667
2098.55	991.83333
2101.22	1018.83333
2103.889	1028.16667
2106.556	1033.83333
2109.221	1066.83333
2111.884	1115.5
2114.546	1200.5
2117.205	1278.16667
2119.863	1401.16667
2122.519	1523.5
2125.173	1634.83333
2127.825	1703.83333
2130.475	1723.83333
2133.124	1671.16667
2135.771	1595.5
2138.416	1514.16667
2141.059	1411.5
2143.7	1350.5
2146.339	1262.83333
2148.977	1203.16667
2151.613	1157.16667
2154.247	1131.5
2156.879	1102.5
2159.51	1075.16667
2162.138	1038.5
2164.765	1043.16667
2167.39	1019.83333
2170.013	1021.16667
2172.634	1016.5
2175.254	994.5
2177.872	1027.16667
2180.488	966.83333
2183.102	972.5
2185.714	966.83333
2188.325	937.83333
2190.934	952.83333
2193.541	934.16667
2196.146	906.16667
2198.75	901.83333
2201.351	900.83333
2203.951	879.5
2206.549	904.16667
2209.146	881.16667
2211.74	877.16667
2214.333	871.83333
2216.924	845.5
2219.514	863.16667
2222.101	851.5
2224.687	875.16667
2227.271	847.16667
2229.853	838.16667
2232.433	821.16667
2235.012	844.5
2237.589	841.83333
2240.164	849.5
2242.738	837.5
2245.309	810.83333
2247.879	820.83333
2250.448	819.83333
2253.014	784.5
2255.579	777.16667
2258.142	781.5
2260.703	768.16667
2263.262	770.16667
2265.82	764.16667
2268.376	770.16667
2270.93	746.83333
2273.483	745.5
2276.033	758.16667
2278.583	747.83333
2281.13	749.83333
2283.675	734.16667
2286.219	750.83333
2288.761	743.83333
2291.302	745.83333
2293.841	729.83333
2296.377	709.16667
2298.913	724.16667
2301.446	716.5
2303.978	707.5
2306.508	710.16667
2309.037	700.16667
2311.563	718.83333
2314.088	729.16667
2316.612	688.5
2319.133	707.5
2321.653	694.5
2324.171	691.5
2326.688	709.16667
2329.202	686.5
2331.715	690.83333
2334.227	684.83333
2336.736	675.5
2339.244	682.16667
2341.751	659.5
2344.255	686.5
2346.758	673.83333
2349.259	674.5
2351.759	664.83333
2354.257	666.5
2356.753	664.83333
2359.247	661.5
2361.74	667.16667
2364.231	662.16667
2366.721	659.16667
2369.209	653.5
2371.695	653.83333
2374.179	652.5
2376.662	651.83333
2379.143	661.83333
2381.622	636.83333
2384.1	646.16667
2386.576	631.5
2389.051	652.5
2391.524	658.5
2393.995	656.16667
2396.464	641.16667
2398.932	627.16667
2401.398	630.16667
2403.863	629.5
2406.325	636.5
2408.787	631.5
2411.246	638.5
2413.704	628.16667
2416.16	629.83333
2418.615	620.16667
2421.068	628.16667
2423.519	628.5
2425.969	616.83333
2428.417	628.16667
2430.863	644.83333
2433.308	633.83333
2435.751	619.5
2438.193	623.16667
2440.633	628.83333
2443.071	612.5
2445.508	597.83333
2447.943	599.16667
2450.376	592.16667
2452.808	601.83333
2455.238	600.5
2457.667	623.83333
2460.093	596.16667
2462.519	586.16667
2464.942	587.16667
2467.365	598.83333
2469.785	600.16667
2472.204	585.16667
2474.621	584.5
2477.037	610.5
2479.451	582.83333
2481.863	580.16667
2484.274	577.16667
2486.683	582.83333
2489.091	586.16667
2491.497	581.5
2493.901	570.83333
2496.304	576.5
2498.705	583.16667
2501.105	570.83333
2503.503	602.83333
2505.899	561.83333
2508.294	583.16667
2510.687	563.5
2513.079	560.83333
2515.469	564.5
2517.858	563.16667
2520.245	570.5
2522.63	555.5
2525.014	558.83333
2527.396	560.83333
2529.776	541.16667
2532.156	556.83333
2534.533	549.16667
2536.909	554.83333
2539.283	537.83333
2541.656	537.83333
2544.027	564.83333
2546.397	554.5
2548.765	552.83333
2551.131	541.16667
2553.496	537.16667
2555.86	541.5
2558.221	539.16667
2560.582	538.5
2562.94	527.83333
2565.298	530.83333
2567.653	552.5
2570.007	517.16667
2572.36	536.16667
2574.711	522.16667
2577.06	553.16667
2579.408	536.5
2581.754	538.16667
2584.099	529.16667
2586.442	529.16667
2588.784	533.83333
2591.124	534.16667
2593.463	523.16667
2595.8	532.83333
2598.135	517.16667
2600.469	523.83333
2602.802	540.83333
2605.133	539.5
2607.462	518.83333
2609.79	507.5
2612.116	536.83333
2614.441	519.16667
2616.764	526.16667
2619.086	525.16667
2621.406	519.83333
2623.725	534.83333
2626.042	526.83333
2628.358	517.5
2630.672	517.5
2632.985	536.16667
2635.296	527.16667
2637.606	526.5
2639.914	513.83333
2642.22	523.83333
2644.525	513.5
2646.829	520.16667
2649.131	527.5
2651.432	540.83333
2653.731	524.16667
2656.028	534.16667
2658.324	528.83333
2660.619	522.83333
2662.912	541.16667
2665.204	514.5
2667.494	539.83333
2669.782	533.16667
2672.07	530.83333
2674.355	546.83333
2676.639	519.5
2678.922	530.5
2681.203	541.83333
2683.483	522.5
2685.761	522.16667
2688.038	536.16667
2690.313	548.83333
2692.587	537.16667
2694.859	538.83333
2697.13	537.5
2699.399	539.16667
2701.667	554.16667
2703.933	552.5
2706.198	551.83333
2708.461	563.83333
2710.723	569.5
2712.984	564.5
2715.243	572.83333
2717.5	562.16667
2719.757	582.5
2722.011	577.5
2724.264	578.16667
2726.516	591.5
2728.766	577.16667
2731.015	583.83333
2733.262	573.5
2735.508	568.83333
2737.753	567.5
2739.996	545.16667
2742.237	556.5
2744.477	554.16667
2746.716	567.16667
2748.953	555.83333
2751.189	558.5
2753.423	548.83333
2755.656	552.16667
2757.887	531.16667
2760.117	547.83333
2762.346	534.5
2764.573	534.83333
2766.798	536.83333
2769.022	543.16667
2771.245	543.83333
2773.467	544.16667
2775.686	544.83333
2777.905	547.5
2780.122	561.16667
2782.337	573.16667
2784.552	569.5
2786.764	584.5
2788.976	579.16667
2791.186	594.83333
2793.394	591.16667
2795.601	604.83333
2797.807	615.83333
2800.011	631.5
2802.214	636.5
2804.415	643.83333
2806.615	642.5
2808.814	664.16667
2811.011	669.83333
2813.206	667.83333
2815.401	686.5
2817.594	712.5
2819.785	722.5
2821.975	717.16667
2824.164	727.83333
2826.351	764.83333
2828.537	782.16667
2830.722	791.16667
2832.905	799.5
2835.086	839.16667
2837.267	885.83333
2839.445	916.83333
2841.623	943.16667
2843.799	992.5
2845.974	1033.5
2848.147	1081.83333
2850.319	1115.83333
2852.489	1161.83333
2854.659	1155.5
2856.826	1185.5
2858.993	1203.16667
2861.158	1194.83333
2863.321	1204.5
2865.483	1196.83333
2867.644	1197.83333
2869.804	1215.5
2871.962	1191.5
2874.118	1205.16667
2876.274	1180.16667
2878.428	1176.16667
2880.58	1171.5
2882.731	1158.16667
2884.881	1194.83333
2887.03	1174.16667
2889.177	1170.16667
2891.322	1183.16667
2893.467	1166.5
2895.61	1175.16667
2897.751	1203.5
2899.892	1196.83333
2902.03	1205.83333
2904.168	1214.83333
2906.304	1209.83333
2908.439	1243.5
2910.572	1211.83333
2912.704	1227.83333
2914.835	1229.5
2916.965	1237.5
2919.093	1233.83333
2921.219	1200.16667
2923.345	1226.5
2925.469	1173.83333
2927.591	1165.16667
2929.712	1123.83333
2931.832	1118.83333
2933.951	1081.83333
2936.068	1054.16667
2938.184	1034.5
2940.299	979.5
2942.412	960.83333
2944.524	917.16667
2946.634	892.83333
2948.744	824.5
2950.851	846.5
2952.958	781.5
2955.063	770.16667
2957.167	754.16667
2959.269	719.16667
2961.371	727.5
2963.471	667.16667
2965.569	678.16667
2967.666	636.83333
2969.762	625.16667
2971.857	600.16667
2973.95	591.83333
2976.042	581.16667
2978.133	557.83333
2980.222	542.5
2982.31	507.83333
2984.396	499.16667
2986.482	492.5
2988.566	492.83333
2990.648	474.16667
2992.73	464.5
2994.81	452.83333
2996.889	459.16667
2998.966	439.83333
3001.042	448.5
3003.117	428.5
3005.191	439.5
3007.263	428.16667
3009.334	413.83333
3011.403	407.16667
3013.472	398.83333
3015.539	402.5
3017.604	401.83333
3019.669	365.83333
3021.732	374.5
3023.794	371.83333
3025.854	364.5
3027.914	356.16667
3029.971	367.16667
3032.028	362.5
3034.083	353.83333
3036.137	355.5
3038.19	336.16667
3040.242	327.5
3042.292	310.83333
3044.341	317.5
3046.388	328.5
3048.435	305.5
3050.48	323.16667
3052.524	311.16667
3054.566	291.5
3056.607	308.16667
3058.647	288.83333
3060.686	278.16667
3062.723	269.16667
3064.759	258.83333
3066.794	2.16667
3068.828	-1.5
3070.86	-3.16667
