-0.839	390.08333
3.438	421.75
7.711	126.75
11.981	53.41667
16.247	47.08333
20.509	48.41667
24.768	45.75
29.024	48.41667
33.276	44.41667
37.524	49.75
41.769	41.08333
46.01	38.41667
50.247	51.75
54.481	59.41667
58.712	66.75
62.939	49.41667
67.162	62.75
71.382	58.75
75.599	49.75
79.812	66.75
84.021	83.08333
88.227	58.75
92.429	63.08333
96.628	46.41667
100.823	70.41667
105.015	74.41667
109.204	76.41667
113.388	77.08333
117.57	78.75
121.748	88.08333
125.922	79.08333
130.093	102.08333
134.261	102.75
138.425	100.08333
142.585	141.75
146.742	145.08333
150.896	168.75
155.046	210.41667
159.193	326.41667
163.336	570.41667
167.476	1039.41667
171.613	1923.08333
175.746	3186.08333
179.875	4744.75
184.002	6144.41667
188.124	7122.41667
192.244	7372.08333
196.36	7329.41667
200.472	7117.08333
204.581	6819.08333
208.687	6617.75
212.79	6529.75
216.889	6479.08333
220.984	6484.08333
225.077	6510.75
229.165	6499.08333
233.251	6507.08333
237.333	6494.08333
241.412	6415.41667
245.487	6385.75
249.559	6329.08333
253.628	6250.08333
257.694	6224.75
261.756	6197.75
265.814	6047.08333
269.87	5938.75
273.922	5773.08333
277.97	5673.75
282.016	5625.75
286.058	5646.08333
290.097	5764.41667
294.132	5819.75
298.164	5753.08333
302.193	5467.41667
306.219	5094.08333
310.241	4646.41667
314.26	4267.41667
318.276	3949.08333
322.288	3710.41667
326.297	3511.75
330.303	3360.41667
334.305	3273.08333
338.305	3165.75
342.301	3149.08333
346.294	3112.08333
350.283	3074.08333
354.269	3040.08333
358.252	3012.41667
362.232	3004.08333
366.209	2945.08333
370.182	2931.41667
374.152	2893.08333
378.119	2903.75
382.083	2893.08333
386.043	2907.08333
390	2848.75
393.954	2846.08333
397.905	2819.75
401.852	2819.08333
405.797	2779.08333
409.738	2758.41667
413.676	2754.75
417.61	2745.75
421.542	2722.41667
425.47	2707.75
429.396	2687.41667
433.318	2656.41667
437.236	2663.41667
441.152	2662.41667
445.065	2604.41667
448.974	2632.75
452.88	2567.75
456.783	2565.75
460.683	2549.41667
464.58	2562.75
468.473	2562.41667
472.364	2538.41667
476.251	2582.75
480.135	2601.75
484.016	2612.75
487.894	2634.41667
491.769	2643.75
495.641	2641.75
499.509	2641.75
503.375	2678.75
507.237	2658.41667
511.096	2675.08333
514.952	2780.75
518.805	2883.41667
522.655	2918.08333
526.502	2760.75
530.346	2670.08333
534.187	2676.08333
538.024	2647.41667
541.859	2636.41667
545.69	2665.08333
549.519	2658.75
553.344	2654.41667
557.166	2596.41667
560.985	2575.75
564.802	2523.75
568.615	2505.41667
572.425	2455.08333
576.232	2445.41667
580.036	2425.08333
583.836	2455.75
587.634	2441.75
591.429	2449.75
595.221	2500.08333
599.01	2510.41667
602.796	2544.08333
606.578	2581.08333
610.358	2592.08333
614.135	2555.41667
617.909	2548.41667
621.679	2546.41667
625.447	2522.41667
629.212	2520.41667
632.973	2525.75
636.732	2514.08333
640.488	2526.08333
644.241	2501.08333
647.991	2495.08333
651.737	2493.41667
655.481	2462.41667
659.222	2490.08333
662.96	2495.08333
666.695	2507.41667
670.427	2524.75
674.156	2520.08333
677.882	2509.75
681.605	2515.75
685.325	2460.41667
689.043	2479.41667
692.757	2487.41667
696.468	2497.75
700.177	2468.41667
703.882	2467.41667
707.585	2469.08333
711.284	2479.75
714.981	2455.75
718.675	2479.75
722.366	2499.41667
726.054	2472.41667
729.739	2477.75
733.421	2483.75
737.1	2481.08333
740.777	2518.08333
744.45	2514.08333
748.121	2536.08333
751.789	2600.75
755.453	2556.41667
759.115	2583.41667
762.774	2618.75
766.431	2647.08333
770.084	2664.08333
773.734	2687.08333
777.382	2727.08333
781.027	2754.41667
784.669	2772.41667
788.308	2775.75
791.944	2830.75
795.577	2833.75
799.208	2868.08333
802.835	2878.75
806.46	2885.75
810.082	2893.08333
813.701	2903.75
817.317	2960.08333
820.931	2944.41667
824.542	2960.75
828.149	2898.08333
831.754	2869.75
835.357	2902.41667
838.956	2880.41667
842.553	2879.75
846.146	2860.75
849.737	2869.08333
853.326	2867.75
856.911	2882.08333
860.493	2923.75
864.073	2945.75
867.65	2958.41667
871.225	3022.41667
874.796	3006.75
878.365	3008.41667
881.931	3039.75
885.494	3062.41667
889.054	3078.08333
892.612	3063.08333
896.166	3039.75
899.719	3030.41667
903.268	2962.08333
906.814	2977.08333
910.358	2947.41667
913.899	2933.75
917.438	2948.08333
920.973	2948.41667
924.506	2960.41667
928.036	3025.75
931.564	3062.75
935.088	3065.41667
938.61	3077.41667
942.129	3119.41667
945.646	3189.08333
949.16	3276.75
952.671	3345.08333
956.179	3341.08333
959.685	3299.08333
963.188	3320.41667
966.688	3235.41667
970.185	3172.41667
973.68	3078.41667
977.173	3051.41667
980.662	3010.08333
984.149	3005.75
987.633	3018.41667
991.114	3061.08333
994.593	3162.75
998.069	3269.08333
1001.542	3358.75
1005.013	3285.75
1008.481	3091.75
1011.947	3050.41667
1015.409	3020.41667
1018.869	3038.75
1022.327	3031.08333
1025.782	3000.08333
1029.234	3015.75
1032.683	2964.75
1036.13	2858.41667
1039.574	2752.75
1043.016	2704.41667
1046.455	2654.08333
1049.891	2601.08333
1053.325	2649.41667
1056.756	2648.08333
1060.184	2664.75
1063.61	2683.75
1067.033	2693.41667
1070.454	2692.75
1073.872	2733.41667
1077.287	2745.75
1080.7	2740.08333
1084.11	2735.41667
1087.517	2734.41667
1090.922	2676.75
1094.325	2643.08333
1097.724	2631.41667
1101.122	2637.08333
1104.516	2639.75
1107.908	2620.08333
1111.298	2685.75
1114.684	2735.41667
1118.069	2781.08333
1121.45	2800.41667
1124.83	2817.41667
1128.206	2823.41667
1131.58	2903.08333
1134.951	2994.41667
1138.32	3073.08333
1141.687	3218.08333
1145.05	3315.08333
1148.412	3318.08333
1151.77	3297.08333
1155.126	3311.41667
1158.48	3303.41667
1161.831	3317.75
1165.18	3348.75
1168.525	3385.75
1171.869	3427.41667
1175.21	3426.08333
1178.548	3459.75
1181.884	3478.08333
1185.217	3479.75
1188.548	3546.08333
1191.877	3605.41667
1195.202	3661.41667
1198.526	3693.08333
1201.846	3732.41667
1205.165	3756.41667
1208.48	3711.75
1211.794	3726.75
1215.104	3726.75
1218.413	3743.75
1221.719	3695.41667
1225.022	3655.41667
1228.323	3620.75
1231.621	3620.75
1234.917	3597.08333
1238.21	3631.41667
1241.501	3606.41667
1244.79	3609.41667
1248.076	3612.08333
1251.359	3622.41667
1254.64	3710.41667
1257.919	3717.75
1261.195	3815.08333
1264.468	3891.41667
1267.74	3930.75
1271.008	3950.75
1274.275	3909.41667
1277.538	3878.41667
1280.8	3877.08333
1284.059	3873.08333
1287.315	3914.75
1290.569	3956.08333
1293.821	3967.08333
1297.07	3959.08333
1300.317	3978.08333
1303.562	3974.75
1306.803	3930.75
1310.043	3905.08333
1313.28	3850.41667
1316.515	3801.75
1319.747	3787.75
1322.977	3721.08333
1326.204	3697.75
1329.429	3641.08333
1332.652	3591.41667
1335.872	3608.41667
1339.09	3580.41667
1342.306	3559.41667
1345.519	3536.75
1348.729	3517.75
1351.938	3514.41667
1355.144	3432.75
1358.347	3389.75
1361.548	3388.08333
1364.747	3392.41667
1367.944	3390.41667
1371.138	3417.75
1374.329	3446.75
1377.518	3458.41667
1380.705	3524.41667
1383.89	3483.41667
1387.072	3389.41667
1390.252	3254.41667
1393.429	3133.08333
1396.605	3042.08333
1399.777	2963.08333
1402.948	2919.08333
1406.116	2904.08333
1409.282	2928.75
1412.445	2896.08333
1415.606	2915.75
1418.765	2972.41667
1421.921	3027.08333
1425.075	3130.75
1428.227	3233.75
1431.376	3386.08333
1434.524	3472.08333
1437.668	3554.08333
1440.811	3596.41667
1443.951	3609.08333
1447.089	3622.75
1450.224	3616.08333
1453.357	3599.75
1456.488	3589.08333
1459.617	3506.08333
1462.743	3467.08333
1465.867	3398.41667
1468.989	3384.41667
1472.108	3322.41667
1475.225	3280.08333
1478.34	3246.41667
1481.453	3290.08333
1484.563	3276.08333
1487.671	3358.41667
1490.776	3418.75
1493.88	3467.75
1496.981	3555.75
1500.08	3593.41667
1503.176	3643.75
1506.271	3681.08333
1509.363	3740.08333
1512.452	3792.08333
1515.54	3849.08333
1518.625	3907.41667
1521.708	4021.08333
1524.789	4185.41667
1527.867	4358.41667
1530.944	4595.08333
1534.018	4803.41667
1537.089	4959.08333
1540.159	4978.41667
1543.226	4926.75
1546.291	4795.08333
1549.354	4677.75
1552.415	4542.75
1555.473	4435.75
1558.529	4382.08333
1561.583	4346.75
1564.634	4308.08333
1567.684	4316.08333
1570.731	4316.08333
1573.776	4342.75
1576.819	4399.75
1579.859	4424.75
1582.898	4466.08333
1585.934	4531.08333
1588.968	4540.08333
1591.999	4526.41667
1595.029	4486.08333
1598.056	4507.75
1601.081	4510.08333
1604.104	4494.08333
1607.125	4451.75
1610.144	4341.08333
1613.16	4222.08333
1616.174	4131.08333
1619.186	4033.41667
1622.196	3927.08333
1625.203	3838.08333
1628.209	3737.75
1631.212	3734.75
1634.213	3703.75
1637.212	3667.75
1640.209	3592.08333
1643.203	3473.75
1646.196	3365.41667
1649.186	3242.08333
1652.174	3142.75
1655.16	3030.41667
1658.144	2931.08333
1661.125	2766.41667
1664.105	2645.08333
1667.082	2517.75
1670.057	2392.41667
1673.03	2248.75
1676.001	2099.75
1678.97	1983.41667
1681.937	1883.41667
1684.901	1811.41667
1687.863	1751.41667
1690.824	1659.75
1693.782	1642.41667
1696.738	1578.08333
1699.692	1558.08333
1702.643	1513.08333
1705.593	1496.41667
1708.54	1489.75
1711.486	1472.08333
1714.429	1445.75
1717.37	1429.75
1720.309	1402.41667
1723.246	1439.08333
1726.181	1381.08333
1729.113	1382.41667
1732.044	1352.75
1734.972	1348.08333
1737.899	1355.41667
1740.823	1348.41667
1743.745	1353.08333
1746.665	1306.75
1749.583	1281.41667
1752.499	1271.75
1755.413	1254.08333
1758.325	1216.41667
1761.235	1228.75
1764.142	1178.08333
1767.048	1191.75
1769.951	1172.41667
1772.852	1177.08333
1775.752	1168.08333
1778.649	1170.08333
1781.544	1165.08333
1784.437	1132.75
1787.328	1149.75
1790.217	1140.08333
1793.104	1118.08333
1795.989	1103.41667
1798.872	1117.08333
1801.753	1129.08333
1804.631	1131.41667
1807.508	1140.08333
1810.383	1116.08333
1813.255	1109.41667
1816.126	1120.08333
1818.994	1102.08333
1821.861	1091.41667
1824.725	1083.75
1827.587	1095.08333
1830.448	1094.75
1833.306	1060.08333
1836.162	1062.41667
1839.017	1063.08333
1841.869	1065.75
1844.719	1047.08333
1847.567	1044.08333
1850.414	1026.08333
1853.258	1035.41667
1856.1	1041.41667
1858.94	1080.75
1861.778	1055.08333
1864.614	1038.75
1867.448	1045.41667
1870.28	1037.08333
1873.111	1075.08333
1875.939	1048.41667
1878.765	1058.08333
1881.589	1028.08333
1884.411	1031.08333
1887.231	1047.08333
1890.049	1031.08333
1892.865	1024.41667
1895.68	1016.41667
1898.492	1019.75
1901.302	996.08333
1904.11	999.75
1906.916	998.75
1909.721	994.41667
1912.523	1009.41667
1915.323	981.75
1918.122	985.41667
1920.918	1004.08333
1923.712	991.41667
1926.505	982.75
1929.295	974.08333
1932.084	1008.41667
1934.87	983.08333
1937.655	979.41667
1940.438	972.08333
1943.218	983.08333
1945.997	987.75
1948.774	992.08333
1951.549	982.41667
1954.322	979.41667
1957.093	976.75
1959.862	962.75
1962.629	973.08333
1965.394	954.08333
1968.157	944.08333
1970.918	968.08333
1973.678	939.08333
1976.435	949.41667
1979.19	952.08333
1981.944	941.75
1984.696	935.08333
1987.445	923.41667
1990.193	930.41667
1992.939	953.08333
1995.683	940.41667
1998.425	910.41667
2001.165	940.75
2003.903	928.08333
2006.639	918.75
2009.374	930.75
2012.106	933.08333
2014.837	904.41667
2017.566	922.41667
2020.292	936.75
2023.017	926.75
2025.74	913.75
2028.461	908.41667
2031.18	919.75
2033.898	905.41667
2036.613	914.75
2039.327	918.08333
2042.038	899.41667
2044.748	905.41667
2047.456	900.41667
2050.162	885.08333
2052.866	886.08333
2055.568	903.41667
2058.268	890.08333
2060.967	905.75
2063.663	882.41667
2066.358	884.41667
2069.051	891.08333
2071.742	892.75
2074.431	893.41667
2077.118	882.08333
2079.804	883.41667
2082.487	884.08333
2085.169	909.08333
2087.849	909.08333
2090.527	894.75
2093.203	915.08333
2095.877	908.75
2098.55	897.41667
2101.22	927.41667
2103.889	940.08333
2106.556	930.75
2109.221	958.75
2111.884	973.41667
2114.546	1040.75
2117.205	1080.08333
2119.863	1172.75
2122.519	1240.75
2125.173	1296.08333
2127.825	1376.08333
2130.475	1368.08333
2133.124	1328.41667
2135.771	1276.08333
2138.416	1234.75
2141.059	1162.41667
2143.7	1121.41667
2146.339	1060.41667
2148.977	1016.75
2151.613	1023.75
2154.247	971.75
2156.879	964.75
2159.51	946.41667
2162.138	940.08333
2164.765	940.08333
2167.39	907.75
2170.013	924.41667
2172.634	920.41667
2175.254	916.75
2177.872	933.08333
2180.488	897.75
2183.102	897.08333
2185.714	877.08333
2188.325	858.75
2190.934	871.75
2193.541	869.75
2196.146	861.41667
2198.75	848.08333
2201.351	855.08333
2203.951	830.08333
2206.549	854.08333
2209.146	835.75
2211.74	830.08333
2214.333	832.75
2216.924	813.08333
2219.514	823.41667
2222.101	815.41667
2224.687	830.08333
2227.271	812.75
2229.853	804.75
2232.433	803.08333
2235.012	822.41667
2237.589	802.41667
2240.164	818.08333
2242.738	808.08333
2245.309	796.08333
2247.879	799.08333
2250.448	809.75
2253.014	776.08333
2255.579	765.75
2258.142	773.41667
2260.703	757.75
2263.262	746.08333
2265.82	753.08333
2268.376	772.75
2270.93	746.41667
2273.483	755.41667
2276.033	756.75
2278.583	738.41667
2281.13	746.41667
2283.675	732.41667
2286.219	743.41667
2288.761	754.75
2291.302	752.08333
2293.841	744.08333
2296.377	724.08333
2298.913	729.08333
2301.446	753.75
2303.978	728.41667
2306.508	726.41667
2309.037	737.41667
2311.563	730.75
2314.088	745.08333
2316.612	714.41667
2319.133	723.08333
2321.653	726.75
2324.171	724.08333
2326.688	739.75
2329.202	719.41667
2331.715	729.41667
2334.227	724.41667
2336.736	708.08333
2339.244	715.41667
2341.751	713.75
2344.255	721.08333
2346.758	711.08333
2349.259	704.08333
2351.759	704.41667
2354.257	711.75
2356.753	697.41667
2359.247	713.41667
2361.74	719.41667
2364.231	713.08333
2366.721	702.75
2369.209	692.75
2371.695	703.41667
2374.179	697.08333
2376.662	702.08333
2379.143	723.08333
2381.622	710.41667
2384.1	719.75
2386.576	690.41667
2389.051	731.41667
2391.524	729.41667
2393.995	719.08333
2396.464	719.75
2398.932	691.75
2401.398	703.41667
2403.863	701.41667
2406.325	704.41667
2408.787	700.75
2411.246	702.08333
2413.704	703.08333
2416.16	700.08333
2418.615	694.41667
2421.068	712.41667
2423.519	706.75
2425.969	705.75
2428.417	707.08333
2430.863	739.75
2433.308	710.41667
2435.751	708.08333
2438.193	706.75
2440.633	711.41667
2443.071	712.08333
2445.508	695.75
2447.943	708.08333
2450.376	688.41667
2452.808	698.41667
2455.238	698.75
2457.667	722.75
2460.093	695.41667
2462.519	688.08333
2464.942	692.08333
2467.365	709.41667
2469.785	701.75
2472.204	693.08333
2474.621	698.75
2477.037	713.08333
2479.451	691.75
2481.863	695.75
2484.274	690.75
2486.683	706.75
2489.091	705.08333
2491.497	707.08333
2493.901	702.08333
2496.304	708.08333
2498.705	708.08333
2501.105	701.75
2503.503	738.41667
2505.899	698.75
2508.294	727.75
2510.687	693.41667
2513.079	704.41667
2515.469	697.41667
2517.858	683.08333
2520.245	718.41667
2522.63	702.08333
2525.014	701.08333
2527.396	703.08333
2529.776	701.75
2532.156	711.41667
2534.533	698.41667
2536.909	695.08333
2539.283	704.41667
2541.656	698.41667
2544.027	721.08333
2546.397	704.41667
2548.765	701.08333
2551.131	708.41667
2553.496	707.08333
2555.86	711.75
2558.221	708.75
2560.582	702.75
2562.94	689.41667
2565.298	704.08333
2567.653	731.41667
2570.007	698.75
2572.36	706.75
2574.711	702.08333
2577.06	726.75
2579.408	720.41667
2581.754	727.08333
2584.099	717.41667
2586.442	711.41667
2588.784	721.41667
2591.124	724.08333
2593.463	716.75
2595.8	708.75
2598.135	718.75
2600.469	723.41667
2602.802	732.08333
2605.133	744.08333
2607.462	727.41667
2609.79	707.41667
2612.116	731.75
2614.441	725.75
2616.764	725.08333
2619.086	725.41667
2621.406	730.41667
2623.725	739.41667
2626.042	733.08333
2628.358	726.75
2630.672	731.75
2632.985	747.75
2635.296	742.41667
2637.606	746.08333
2639.914	734.08333
2642.22	749.08333
2644.525	734.41667
2646.829	751.41667
2649.131	762.75
2651.432	753.75
2653.731	759.41667
2656.028	776.75
2658.324	776.41667
2660.619	753.75
2662.912	767.41667
2665.204	759.75
2667.494	790.75
2669.782	755.41667
2672.07	773.75
2674.355	793.41667
2676.639	770.41667
2678.922	766.41667
2681.203	784.41667
2683.483	761.08333
2685.761	762.75
2688.038	775.41667
2690.313	793.41667
2692.587	781.41667
2694.859	779.41667
2697.13	785.75
2699.399	804.75
2701.667	796.75
2703.933	807.41667
2706.198	816.08333
2708.461	819.41667
2710.723	817.41667
2712.984	819.41667
2715.243	835.75
2717.5	826.75
2719.757	848.41667
2722.011	830.08333
2724.264	859.75
2726.516	869.75
2728.766	849.08333
2731.015	863.75
2733.262	844.75
2735.508	839.41667
2737.753	852.08333
2739.996	835.08333
2742.237	828.08333
2744.477	845.41667
2746.716	845.41667
2748.953	846.41667
2751.189	855.08333
2753.423	826.08333
2755.656	824.41667
2757.887	815.08333
2760.117	827.75
2762.346	820.75
2764.573	833.75
2766.798	819.41667
2769.022	834.08333
2771.245	843.08333
2773.467	825.08333
2775.686	840.41667
2777.905	839.08333
2780.122	858.41667
2782.337	858.41667
2784.552	852.75
2786.764	879.41667
2788.976	878.75
2791.186	875.41667
2793.394	894.75
2795.601	903.41667
2797.807	902.08333
2800.011	926.41667
2802.214	942.75
2804.415	925.75
2806.615	925.08333
2808.814	962.75
2811.011	941.41667
2813.206	948.75
2815.401	977.75
2817.594	990.75
2819.785	991.08333
2821.975	978.08333
2824.164	1003.41667
2826.351	1018.75
2828.537	1040.41667
2830.722	1058.41667
2832.905	1046.41667
2835.086	1100.08333
2837.267	1123.75
2839.445	1150.08333
2841.623	1189.41667
2843.799	1204.75
2845.974	1253.41667
2848.147	1292.75
2850.319	1320.75
2852.489	1350.08333
2854.659	1354.41667
2856.826	1379.75
2858.993	1413.41667
2861.158	1381.41667
2863.321	1404.41667
2865.483	1417.75
2867.644	1429.41667
2869.804	1401.08333
2871.962	1392.08333
2874.118	1421.08333
2876.274	1398.08333
2878.428	1396.41667
2880.58	1370.41667
2882.731	1371.75
2884.881	1373.75
2887.03	1375.75
2889.177	1386.08333
2891.322	1396.08333
2893.467	1389.75
2895.61	1386.75
2897.751	1409.41667
2899.892	1406.08333
2902.03	1426.08333
2904.168	1442.41667
2906.304	1434.75
2908.439	1462.08333
2910.572	1436.41667
2912.704	1463.08333
2914.835	1462.41667
2916.965	1459.08333
2919.093	1475.08333
2921.219	1443.75
2923.345	1458.08333
2925.469	1427.08333
2927.591	1424.08333
2929.712	1383.41667
2931.832	1375.41667
2933.951	1353.08333
2936.068	1319.41667
2938.184	1313.41667
2940.299	1279.75
2942.412	1246.75
2944.524	1206.08333
2946.634	1200.08333
2948.744	1148.75
2950.851	1174.75
2952.958	1116.75
2955.063	1119.75
2957.167	1119.08333
2959.269	1086.08333
2961.371	1086.08333
2963.471	1041.41667
2965.569	1062.08333
2967.666	1028.41667
2969.762	1016.75
2971.857	995.41667
2973.95	973.08333
2976.042	980.41667
2978.133	948.08333
2980.222	938.41667
2982.31	909.75
2984.396	894.08333
2986.482	903.75
2988.566	878.75
2990.648	873.75
2992.73	890.41667
2994.81	859.75
2996.889	867.08333
2998.966	869.41667
3001.042	881.41667
3003.117	856.75
3005.191	863.75
3007.263	859.41667
3009.334	849.41667
3011.403	850.08333
3013.472	812.75
3015.539	815.41667
3017.604	830.75
3019.669	786.75
3021.732	784.75
3023.794	787.41667
3025.854	780.75
3027.914	777.08333
3029.971	784.75
3032.028	783.08333
3034.083	775.75
3036.137	768.75
3038.19	753.08333
3040.242	725.41667
3042.292	717.41667
3044.341	703.75
3046.388	723.41667
3048.435	684.75
3050.48	708.08333
3052.524	694.41667
3054.566	672.08333
3056.607	692.41667
3058.647	672.41667
3060.686	644.41667
3062.723	629.08333
3064.759	611.08333
3066.794	-0.58333
3068.828	0.08333
3070.86	-1.58333
