-0.839	420.70833
3.438	459.04167
7.711	132.04167
11.981	51.04167
16.247	47.04167
20.509	44.375
24.768	43.70833
29.024	45.70833
33.276	38.375
37.524	50.04167
41.769	42.70833
46.01	38.04167
50.247	48.70833
54.481	61.375
58.712	68.70833
62.939	44.04167
67.162	63.04167
71.382	56.70833
75.599	49.375
79.812	63.04167
84.021	78.70833
88.227	59.375
92.429	62.70833
96.628	46.04167
100.823	68.375
105.015	75.70833
109.204	76.375
113.388	77.70833
117.57	74.70833
121.748	86.04167
125.922	82.04167
130.093	101.04167
134.261	104.04167
138.425	100.375
142.585	140.375
146.742	140.70833
150.896	172.375
155.046	205.70833
159.193	335.70833
163.336	579.04167
167.476	1053.70833
171.613	1919.375
175.746	3239.375
179.875	4778.375
184.002	6246.375
188.124	7200.70833
192.244	7480.375
196.36	7349.375
200.472	7060.70833
204.581	6846.70833
208.687	6574.04167
212.79	6510.04167
216.889	6461.375
220.984	6495.375
225.077	6522.375
229.165	6571.04167
233.251	6593.04167
237.333	6640.375
241.412	6600.375
245.487	6532.04167
249.559	6482.04167
253.628	6416.70833
257.694	6377.04167
261.756	6308.04167
265.814	6215.375
269.87	6037.70833
273.922	5864.04167
277.97	5815.04167
282.016	5738.375
286.058	5743.04167
290.097	5816.70833
294.132	5830.70833
298.164	5799.04167
302.193	5524.04167
306.219	5103.375
310.241	4621.04167
314.26	4172.70833
318.276	3794.70833
322.288	3547.04167
326.297	3322.375
330.303	3149.70833
334.305	3053.375
338.305	2954.04167
342.301	2909.375
346.294	2872.70833
350.283	2852.375
354.269	2805.375
358.252	2789.375
362.232	2751.375
366.209	2711.04167
370.182	2689.70833
374.152	2694.70833
378.119	2674.04167
382.083	2657.70833
386.043	2688.04167
390	2608.375
393.954	2624.375
397.905	2593.04167
401.852	2581.04167
405.797	2547.04167
409.738	2528.375
413.676	2508.70833
417.61	2495.04167
421.542	2475.375
425.47	2436.70833
429.396	2431.375
433.318	2396.04167
437.236	2394.70833
441.152	2416.04167
445.065	2350.04167
448.974	2338.04167
452.88	2301.375
456.783	2304.04167
460.683	2303.70833
464.58	2296.375
468.473	2284.70833
472.364	2286.70833
476.251	2315.04167
480.135	2313.70833
484.016	2349.04167
487.894	2336.70833
491.769	2349.04167
495.641	2369.70833
499.509	2361.375
503.375	2355.70833
507.237	2359.04167
511.096	2327.70833
514.952	2369.375
518.805	2391.375
522.655	2401.375
526.502	2349.375
530.346	2334.04167
534.187	2365.70833
538.024	2364.375
541.859	2378.04167
545.69	2402.70833
549.519	2380.375
553.344	2365.70833
557.166	2317.375
560.985	2287.375
564.802	2269.375
568.615	2212.375
572.425	2181.04167
576.232	2174.04167
580.036	2157.04167
583.836	2194.70833
587.634	2179.375
591.429	2184.04167
595.221	2244.375
599.01	2254.04167
602.796	2269.375
606.578	2295.70833
610.358	2291.04167
614.135	2281.375
617.909	2294.375
621.679	2272.70833
625.447	2228.04167
629.212	2253.375
632.973	2259.70833
636.732	2252.04167
640.488	2263.04167
644.241	2232.04167
647.991	2192.375
651.737	2235.70833
655.481	2196.375
659.222	2221.04167
662.96	2202.70833
666.695	2234.04167
670.427	2251.375
674.156	2255.70833
677.882	2264.375
681.605	2257.375
685.325	2214.04167
689.043	2232.04167
692.757	2218.70833
696.468	2208.70833
700.177	2212.375
703.882	2186.04167
707.585	2187.70833
711.284	2201.375
714.981	2223.70833
718.675	2230.375
722.366	2252.70833
726.054	2222.04167
729.739	2204.70833
733.421	2240.70833
737.1	2210.04167
740.777	2230.04167
744.45	2240.04167
748.121	2269.04167
751.789	2318.70833
755.453	2328.04167
759.115	2350.04167
762.774	2344.04167
766.431	2370.04167
770.084	2410.375
773.734	2429.70833
777.382	2488.04167
781.027	2514.04167
784.669	2534.04167
788.308	2529.375
791.944	2552.70833
795.577	2575.70833
799.208	2600.04167
802.835	2611.375
806.46	2632.375
810.082	2654.70833
813.701	2656.70833
817.317	2704.70833
820.931	2674.70833
824.542	2703.375
828.149	2659.70833
831.754	2643.375
835.357	2629.375
838.956	2633.04167
842.553	2606.375
846.146	2607.375
849.737	2574.375
853.326	2607.04167
856.911	2601.375
860.493	2655.70833
864.073	2653.04167
867.65	2712.04167
871.225	2728.04167
874.796	2729.375
878.365	2743.70833
881.931	2770.04167
885.494	2778.70833
889.054	2777.70833
892.612	2785.375
896.166	2758.04167
899.719	2714.04167
903.268	2706.04167
906.814	2673.70833
910.358	2674.04167
913.899	2665.04167
917.438	2690.04167
920.973	2664.70833
924.506	2715.375
928.036	2760.375
931.564	2782.04167
935.088	2794.04167
938.61	2797.375
942.129	2860.375
945.646	2933.375
949.16	2998.04167
952.671	3070.375
956.179	3112.70833
959.685	3048.70833
963.188	3062.375
966.688	3012.375
970.185	2937.375
973.68	2845.70833
977.173	2823.70833
980.662	2798.70833
984.149	2811.04167
987.633	2807.375
991.114	2861.04167
994.593	2936.375
998.069	3025.70833
1001.542	3132.04167
1005.013	3067.04167
1008.481	2896.70833
1011.947	2838.04167
1015.409	2804.70833
1018.869	2842.70833
1022.327	2828.375
1025.782	2788.375
1029.234	2795.375
1032.683	2774.375
1036.13	2668.70833
1039.574	2581.04167
1043.016	2515.375
1046.455	2444.04167
1049.891	2435.70833
1053.325	2438.70833
1056.756	2429.375
1060.184	2464.70833
1063.61	2495.04167
1067.033	2500.04167
1070.454	2492.04167
1073.872	2526.70833
1077.287	2514.04167
1080.7	2532.70833
1084.11	2521.70833
1087.517	2520.375
1090.922	2473.70833
1094.325	2454.375
1097.724	2414.70833
1101.122	2438.375
1104.516	2425.70833
1107.908	2431.70833
1111.298	2480.70833
1114.684	2506.04167
1118.069	2517.04167
1121.45	2571.375
1124.83	2560.70833
1128.206	2594.375
1131.58	2635.375
1134.951	2691.70833
1138.32	2822.70833
1141.687	2922.04167
1145.05	3011.375
1148.412	3037.70833
1151.77	3005.375
1155.126	3008.375
1158.48	3006.70833
1161.831	2998.375
1165.18	3019.04167
1168.525	3077.04167
1171.869	3117.375
1175.21	3119.375
1178.548	3171.375
1181.884	3214.70833
1185.217	3209.375
1188.548	3286.70833
1191.877	3344.70833
1195.202	3453.375
1198.526	3502.04167
1201.846	3496.04167
1205.165	3483.04167
1208.48	3466.04167
1211.794	3486.04167
1215.104	3479.70833
1218.413	3490.375
1221.719	3469.375
1225.022	3413.70833
1228.323	3408.375
1231.621	3389.70833
1234.917	3370.375
1238.21	3403.375
1241.501	3367.375
1244.79	3355.375
1248.076	3359.70833
1251.359	3390.375
1254.64	3447.375
1257.919	3473.04167
1261.195	3547.375
1264.468	3615.70833
1267.74	3693.375
1271.008	3720.04167
1274.275	3662.70833
1277.538	3659.375
1280.8	3633.70833
1284.059	3655.70833
1287.315	3684.70833
1290.569	3689.375
1293.821	3714.375
1297.07	3727.70833
1300.317	3753.04167
1303.562	3719.70833
1306.803	3717.04167
1310.043	3667.70833
1313.28	3624.70833
1316.515	3582.375
1319.747	3559.70833
1322.977	3496.70833
1326.204	3455.04167
1329.429	3386.375
1332.652	3369.70833
1335.872	3362.04167
1339.09	3318.375
1342.306	3301.375
1345.519	3282.375
1348.729	3237.375
1351.938	3241.375
1355.144	3157.70833
1358.347	3143.70833
1361.548	3158.70833
1364.747	3177.375
1367.944	3159.70833
1371.138	3169.04167
1374.329	3202.04167
1377.518	3241.70833
1380.705	3288.375
1383.89	3288.04167
1387.072	3177.375
1390.252	3031.04167
1393.429	2933.375
1396.605	2816.70833
1399.777	2709.04167
1402.948	2711.375
1406.116	2654.04167
1409.282	2701.04167
1412.445	2701.70833
1415.606	2722.70833
1418.765	2770.04167
1421.921	2845.70833
1425.075	2902.375
1428.227	3022.70833
1431.376	3189.70833
1434.524	3289.375
1437.668	3394.70833
1440.811	3417.04167
1443.951	3441.70833
1447.089	3457.375
1450.224	3448.375
1453.357	3429.375
1456.488	3424.375
1459.617	3344.04167
1462.743	3284.70833
1465.867	3228.375
1468.989	3198.70833
1472.108	3114.375
1475.225	3077.375
1478.34	3055.70833
1481.453	3037.70833
1484.563	3028.04167
1487.671	3095.70833
1490.776	3145.375
1493.88	3200.70833
1496.981	3280.70833
1500.08	3334.375
1503.176	3411.70833
1506.271	3430.375
1509.363	3465.70833
1512.452	3517.04167
1515.54	3567.70833
1518.625	3651.375
1521.708	3752.70833
1524.789	3935.04167
1527.867	4146.70833
1530.944	4390.375
1534.018	4575.04167
1537.089	4749.70833
1540.159	4767.375
1543.226	4657.70833
1546.291	4519.375
1549.354	4397.375
1552.415	4283.70833
1555.473	4139.04167
1558.529	4050.70833
1561.583	3986.375
1564.634	3996.04167
1567.684	4002.70833
1570.731	4012.70833
1573.776	4042.70833
1576.819	4054.70833
1579.859	4108.375
1582.898	4158.04167
1585.934	4196.70833
1588.968	4248.04167
1591.999	4199.04167
1595.029	4209.70833
1598.056	4241.70833
1601.081	4242.70833
1604.104	4232.04167
1607.125	4179.375
1610.144	4102.04167
1613.16	3980.375
1616.174	3897.70833
1619.186	3800.375
1622.196	3715.04167
1625.203	3622.70833
1628.209	3540.70833
1631.212	3513.375
1634.213	3494.04167
1637.212	3448.04167
1640.209	3431.04167
1643.203	3318.375
1646.196	3222.70833
1649.186	3116.70833
1652.174	3028.04167
1655.16	2916.70833
1658.144	2852.375
1661.125	2693.04167
1664.105	2548.70833
1667.082	2459.70833
1670.057	2312.04167
1673.03	2158.375
1676.001	2026.04167
1678.97	1894.375
1681.937	1750.70833
1684.901	1674.04167
1687.863	1601.70833
1690.824	1538.04167
1693.782	1498.375
1696.738	1443.04167
1699.692	1418.375
1702.643	1366.04167
1705.593	1376.70833
1708.54	1339.04167
1711.486	1331.70833
1714.429	1290.375
1717.37	1295.70833
1720.309	1262.70833
1723.246	1276.375
1726.181	1242.04167
1729.113	1262.70833
1732.044	1229.04167
1734.972	1217.04167
1737.899	1219.375
1740.823	1210.70833
1743.745	1204.04167
1746.665	1140.70833
1749.583	1120.70833
1752.499	1114.04167
1755.413	1101.375
1758.325	1076.70833
1761.235	1074.375
1764.142	1039.375
1767.048	1045.375
1769.951	1029.04167
1772.852	1018.70833
1775.752	1012.375
1778.649	1025.04167
1781.544	1024.375
1784.437	997.70833
1787.328	1004.04167
1790.217	1000.04167
1793.104	963.70833
1795.989	968.04167
1798.872	964.70833
1801.753	976.375
1804.631	960.70833
1807.508	980.04167
1810.383	964.375
1813.255	950.70833
1816.126	951.375
1818.994	944.375
1821.861	937.375
1824.725	944.04167
1827.587	944.04167
1830.448	927.375
1833.306	897.375
1836.162	940.70833
1839.017	911.375
1841.869	902.375
1844.719	907.375
1847.567	890.375
1850.414	884.375
1853.258	889.04167
1856.1	893.375
1858.94	914.375
1861.778	896.04167
1864.614	880.04167
1867.448	899.04167
1870.28	888.70833
1873.111	887.04167
1875.939	898.70833
1878.765	892.70833
1881.589	870.70833
1884.411	885.04167
1887.231	884.04167
1890.049	874.70833
1892.865	872.04167
1895.68	869.04167
1898.492	872.70833
1901.302	847.70833
1904.11	851.375
1906.916	847.375
1909.721	851.375
1912.523	860.70833
1915.323	831.375
1918.122	831.04167
1920.918	848.70833
1923.712	828.04167
1926.505	847.70833
1929.295	816.375
1932.084	838.375
1934.87	842.70833
1937.655	821.70833
1940.438	816.70833
1943.218	830.375
1945.997	827.70833
1948.774	834.04167
1951.549	833.04167
1954.322	821.375
1957.093	830.375
1959.862	822.375
1962.629	814.375
1965.394	799.70833
1968.157	797.04167
1970.918	801.375
1973.678	787.70833
1976.435	802.04167
1979.19	788.70833
1981.944	782.04167
1984.696	788.04167
1987.445	790.375
1990.193	789.375
1992.939	802.70833
1995.683	794.04167
1998.425	771.70833
2001.165	797.70833
2003.903	776.70833
2006.639	774.375
2009.374	773.04167
2012.106	770.04167
2014.837	745.375
2017.566	781.04167
2020.292	766.04167
2023.017	782.04167
2025.74	765.375
2028.461	759.70833
2031.18	755.70833
2033.898	745.70833
2036.613	756.70833
2039.327	762.375
2042.038	744.04167
2044.748	741.04167
2047.456	746.04167
2050.162	727.375
2052.866	748.375
2055.568	748.375
2058.268	736.04167
2060.967	745.70833
2063.663	721.70833
2066.358	744.375
2069.051	727.70833
2071.742	738.375
2074.431	747.70833
2077.118	718.70833
2079.804	730.04167
2082.487	725.04167
2085.169	727.70833
2087.849	756.70833
2090.527	736.70833
2093.203	741.04167
2095.877	750.70833
2098.55	744.375
2101.22	753.375
2103.889	763.70833
2106.556	758.70833
2109.221	788.70833
2111.884	794.04167
2114.546	859.375
2117.205	922.04167
2119.863	988.375
2122.519	1057.70833
2125.173	1126.04167
2127.825	1219.04167
2130.475	1220.70833
2133.124	1185.70833
2135.771	1141.04167
2138.416	1099.70833
2141.059	1017.70833
2143.7	980.70833
2146.339	919.375
2148.977	859.375
2151.613	854.375
2154.247	824.375
2156.879	798.70833
2159.51	787.70833
2162.138	757.70833
2164.765	774.70833
2167.39	751.70833
2170.013	764.375
2172.634	770.70833
2175.254	734.375
2177.872	768.375
2180.488	739.375
2183.102	730.375
2185.714	714.70833
2188.325	697.04167
2190.934	701.04167
2193.541	707.375
2196.146	684.375
2198.75	685.375
2201.351	682.70833
2203.951	660.375
2206.549	685.70833
2209.146	668.04167
2211.74	653.70833
2214.333	677.04167
2216.924	640.04167
2219.514	643.70833
2222.101	632.70833
2224.687	663.04167
2227.271	633.70833
2229.853	632.04167
2232.433	628.04167
2235.012	635.70833
2237.589	636.375
2240.164	643.375
2242.738	628.70833
2245.309	622.375
2247.879	626.375
2250.448	631.375
2253.014	604.70833
2255.579	590.04167
2258.142	600.04167
2260.703	572.70833
2263.262	592.375
2265.82	584.70833
2268.376	585.04167
2270.93	570.375
2273.483	567.04167
2276.033	574.70833
2278.583	567.375
2281.13	564.70833
2283.675	549.04167
2286.219	564.04167
2288.761	563.04167
2291.302	568.04167
2293.841	572.04167
2296.377	544.04167
2298.913	548.70833
2301.446	560.375
2303.978	558.70833
2306.508	547.70833
2309.037	551.04167
2311.563	547.375
2314.088	549.375
2316.612	533.375
2319.133	533.04167
2321.653	527.375
2324.171	518.375
2326.688	548.04167
2329.202	518.04167
2331.715	531.04167
2334.227	526.04167
2336.736	517.70833
2339.244	526.70833
2341.751	509.70833
2344.255	524.04167
2346.758	515.04167
2349.259	513.70833
2351.759	516.70833
2354.257	504.70833
2356.753	510.375
2359.247	503.70833
2361.74	511.04167
2364.231	507.375
2366.721	509.375
2369.209	496.04167
2371.695	506.375
2374.179	495.04167
2376.662	490.04167
2379.143	516.70833
2381.622	498.70833
2384.1	498.70833
2386.576	497.04167
2389.051	514.70833
2391.524	515.70833
2393.995	511.375
2396.464	492.04167
2398.932	479.375
2401.398	489.70833
2403.863	478.70833
2406.325	486.70833
2408.787	493.04167
2411.246	483.04167
2413.704	478.04167
2416.16	477.70833
2418.615	486.04167
2421.068	489.04167
2423.519	477.70833
2425.969	469.70833
2428.417	488.04167
2430.863	498.04167
2433.308	490.375
2435.751	481.375
2438.193	479.375
2440.633	489.70833
2443.071	482.70833
2445.508	467.04167
2447.943	469.04167
2450.376	461.70833
2452.808	474.70833
2455.238	462.70833
2457.667	490.04167
2460.093	477.375
2462.519	448.04167
2464.942	457.70833
2467.365	468.375
2469.785	474.04167
2472.204	450.70833
2474.621	451.375
2477.037	475.04167
2479.451	450.04167
2481.863	452.70833
2484.274	449.375
2486.683	453.375
2489.091	465.70833
2491.497	453.04167
2493.901	456.375
2496.304	446.70833
2498.705	458.375
2501.105	453.375
2503.503	475.375
2505.899	439.375
2508.294	457.70833
2510.687	439.04167
2513.079	443.70833
2515.469	441.04167
2517.858	439.70833
2520.245	463.04167
2522.63	435.375
2525.014	433.04167
2527.396	436.375
2529.776	428.04167
2532.156	446.375
2534.533	421.375
2536.909	430.70833
2539.283	418.375
2541.656	426.70833
2544.027	454.04167
2546.397	436.70833
2548.765	428.04167
2551.131	425.04167
2553.496	434.70833
2555.86	441.04167
2558.221	437.04167
2560.582	428.04167
2562.94	417.375
2565.298	431.70833
2567.653	439.04167
2570.007	409.04167
2572.36	423.70833
2574.711	420.375
2577.06	437.04167
2579.408	422.70833
2581.754	419.375
2584.099	421.375
2586.442	418.375
2588.784	423.04167
2591.124	421.375
2593.463	422.04167
2595.8	423.70833
2598.135	407.04167
2600.469	418.04167
2602.802	423.375
2605.133	437.04167
2607.462	416.70833
2609.79	418.375
2612.116	425.375
2614.441	421.04167
2616.764	423.04167
2619.086	412.04167
2621.406	406.04167
2623.725	434.70833
2626.042	425.04167
2628.358	415.375
2630.672	409.04167
2632.985	423.70833
2635.296	419.70833
2637.606	429.04167
2639.914	410.375
2642.22	420.375
2644.525	413.375
2646.829	427.375
2649.131	434.04167
2651.432	427.04167
2653.731	420.375
2656.028	432.04167
2658.324	424.04167
2660.619	408.375
2662.912	431.375
2665.204	417.04167
2667.494	437.375
2669.782	414.70833
2672.07	423.04167
2674.355	440.70833
2676.639	416.70833
2678.922	419.70833
2681.203	434.70833
2683.483	416.04167
2685.761	418.04167
2688.038	433.375
2690.313	441.70833
2692.587	429.375
2694.859	430.04167
2697.13	430.375
2699.399	434.04167
2701.667	440.70833
2703.933	446.375
2706.198	445.70833
2708.461	456.70833
2710.723	458.70833
2712.984	450.70833
2715.243	462.70833
2717.5	459.70833
2719.757	467.70833
2722.011	456.375
2724.264	470.04167
2726.516	481.70833
2728.766	461.04167
2731.015	460.70833
2733.262	462.04167
2735.508	462.04167
2737.753	460.375
2739.996	450.375
2742.237	449.04167
2744.477	455.04167
2746.716	459.375
2748.953	443.375
2751.189	442.04167
2753.423	441.375
2755.656	435.70833
2757.887	429.04167
2760.117	440.04167
2762.346	434.04167
2764.573	431.04167
2766.798	434.04167
2769.022	438.04167
2771.245	442.375
2773.467	441.04167
2775.686	446.70833
2777.905	447.04167
2780.122	446.375
2782.337	449.375
2784.552	453.04167
2786.764	459.70833
2788.976	462.375
2791.186	479.04167
2793.394	470.70833
2795.601	479.70833
2797.807	483.375
2800.011	491.375
2802.214	502.04167
2804.415	498.70833
2806.615	503.70833
2808.814	517.70833
2811.011	520.04167
2813.206	526.375
2815.401	542.375
2817.594	560.04167
2819.785	564.375
2821.975	557.70833
2824.164	575.04167
2826.351	589.70833
2828.537	620.375
2830.722	628.04167
2832.905	633.04167
2835.086	672.04167
2837.267	706.70833
2839.445	727.70833
2841.623	760.375
2843.799	791.70833
2845.974	828.375
2848.147	878.375
2850.319	896.375
2852.489	935.04167
2854.659	929.70833
2856.826	974.70833
2858.993	1001.375
2861.158	969.04167
2863.321	983.04167
2865.483	990.70833
2867.644	989.70833
2869.804	988.375
2871.962	985.04167
2874.118	996.04167
2876.274	981.70833
2878.428	980.70833
2880.58	970.375
2882.731	967.375
2884.881	969.375
2887.03	976.375
2889.177	972.375
2891.322	993.04167
2893.467	984.375
2895.61	991.375
2897.751	1006.04167
2899.892	1001.04167
2902.03	1011.70833
2904.168	1024.04167
2906.304	1030.04167
2908.439	1047.04167
2910.572	1022.04167
2912.704	1060.70833
2914.835	1042.375
2916.965	1033.375
2919.093	1048.70833
2921.219	1021.70833
2923.345	1036.375
2925.469	1015.04167
2927.591	1002.375
2929.712	949.375
2931.832	957.375
2933.951	936.04167
2936.068	906.04167
2938.184	880.375
2940.299	858.375
2942.412	833.04167
2944.524	779.04167
2946.634	773.04167
2948.744	720.04167
2950.851	736.375
2952.958	677.375
2955.063	673.04167
2957.167	661.375
2959.269	617.04167
2961.371	644.375
2963.471	591.04167
2965.569	596.04167
2967.666	560.04167
2969.762	550.375
2971.857	530.70833
2973.95	508.04167
2976.042	506.04167
2978.133	496.375
2980.222	487.04167
2982.31	458.04167
2984.396	436.70833
2986.482	442.375
2988.566	448.375
2990.648	424.04167
2992.73	423.375
2994.81	412.04167
2996.889	411.70833
2998.966	401.04167
3001.042	410.70833
3003.117	393.70833
3005.191	399.04167
3007.263	393.04167
3009.334	384.04167
3011.403	379.04167
3013.472	362.04167
3015.539	376.04167
3017.604	376.04167
3019.669	335.04167
3021.732	343.04167
3023.794	352.375
3025.854	341.70833
3027.914	330.70833
3029.971	331.70833
3032.028	324.375
3034.083	337.375
3036.137	322.375
3038.19	307.375
3040.242	307.70833
3042.292	300.04167
3044.341	290.04167
3046.388	314.04167
3048.435	280.70833
3050.48	302.375
3052.524	290.04167
3054.566	273.375
3056.607	282.70833
3058.647	284.04167
3060.686	262.04167
3062.723	257.04167
3064.759	254.70833
3066.794	1.375
3068.828	0.04167
3070.86	-3.625
