-0.839	341.16667
3.438	375.16667
7.711	106.16667
11.981	51.5
16.247	46.16667
20.509	41.83333
24.768	43.5
29.024	44.16667
33.276	44.83333
37.524	49.16667
41.769	39.83333
46.01	35.83333
50.247	52.16667
54.481	61.83333
58.712	61.16667
62.939	49.83333
67.162	60.5
71.382	56.83333
75.599	50.83333
79.812	64.16667
84.021	81.16667
88.227	60.5
92.429	61.16667
96.628	50.16667
100.823	66.83333
105.015	76.83333
109.204	77.5
113.388	79.16667
117.57	71.16667
121.748	90.16667
125.922	76.5
130.093	100.5
134.261	102.83333
138.425	98.5
142.585	143.83333
146.742	142.83333
150.896	167.5
155.046	200.83333
159.193	326.5
163.336	557.5
167.476	1019.5
171.613	1863.5
175.746	3146.16667
179.875	4681.16667
184.002	6121.16667
188.124	7034.5
192.244	7408.5
196.36	7358.83333
200.472	7132.83333
204.581	6963.5
208.687	6744.83333
212.79	6735.16667
216.889	6758.83333
220.984	6828.5
225.077	6943.5
229.165	6970.83333
233.251	7069.5
237.333	7030.16667
241.412	7028.5
245.487	6979.16667
249.559	6913.5
253.628	6868.83333
257.694	6771.83333
261.756	6730.83333
265.814	6577.5
269.87	6431.83333
273.922	6270.16667
277.97	6231.83333
282.016	6233.16667
286.058	6297.5
290.097	6385.5
294.132	6411.5
298.164	6324.16667
302.193	6014.5
306.219	5550.5
310.241	5057.83333
314.26	4612.16667
318.276	4205.83333
322.288	3923.5
326.297	3646.16667
330.303	3489.83333
334.305	3383.83333
338.305	3291.16667
342.301	3260.83333
346.294	3199.5
350.283	3186.5
354.269	3142.83333
358.252	3110.5
362.232	3103.5
366.209	3071.5
370.182	3038.16667
374.152	3021.5
378.119	3029.83333
382.083	2990.16667
386.043	3032.83333
390	2973.5
393.954	2945.5
397.905	2915.5
401.852	2894.16667
405.797	2835.16667
409.738	2812.5
413.676	2807.83333
417.61	2808.83333
421.542	2775.16667
425.47	2748.83333
429.396	2733.16667
433.318	2698.5
437.236	2687.5
441.152	2701.83333
445.065	2622.5
448.974	2615.5
452.88	2631.16667
456.783	2604.16667
460.683	2595.16667
464.58	2594.16667
468.473	2605.5
472.364	2607.83333
476.251	2618.83333
480.135	2639.5
484.016	2640.16667
487.894	2667.16667
491.769	2673.83333
495.641	2678.5
499.509	2646.83333
503.375	2658.5
507.237	2630.5
511.096	2633.5
514.952	2642.5
518.805	2652.16667
522.655	2672.83333
526.502	2631.5
530.346	2635.83333
534.187	2636.5
538.024	2631.16667
541.859	2624.16667
545.69	2663.83333
549.519	2640.83333
553.344	2619.83333
557.166	2588.16667
560.985	2554.5
564.802	2527.83333
568.615	2485.16667
572.425	2474.5
576.232	2446.83333
580.036	2437.83333
583.836	2471.5
587.634	2432.83333
591.429	2439.83333
595.221	2504.5
599.01	2552.16667
602.796	2545.83333
606.578	2588.5
610.358	2585.83333
614.135	2540.83333
617.909	2554.83333
621.679	2556.5
625.447	2506.83333
629.212	2545.16667
632.973	2562.16667
636.732	2552.5
640.488	2534.16667
644.241	2501.16667
647.991	2502.16667
651.737	2521.83333
655.481	2467.16667
659.222	2457.83333
662.96	2468.16667
666.695	2495.5
670.427	2493.5
674.156	2507.5
677.882	2507.16667
681.605	2504.83333
685.325	2476.16667
689.043	2489.16667
692.757	2480.16667
696.468	2506.16667
700.177	2521.83333
703.882	2507.16667
707.585	2523.5
711.284	2516.5
714.981	2505.16667
718.675	2525.16667
722.366	2552.5
726.054	2522.83333
729.739	2498.83333
733.421	2549.5
737.1	2529.16667
740.777	2545.5
744.45	2550.16667
748.121	2586.16667
751.789	2645.83333
755.453	2628.5
759.115	2652.83333
762.774	2676.5
766.431	2714.83333
770.084	2727.5
773.734	2756.5
777.382	2820.16667
781.027	2849.16667
784.669	2853.16667
788.308	2872.83333
791.944	2893.16667
795.577	2913.83333
799.208	2944.83333
802.835	2966.16667
806.46	2969.16667
810.082	2980.5
813.701	2969.5
817.317	3004.83333
820.931	2982.5
824.542	3024.83333
828.149	3005.16667
831.754	2968.5
835.357	2960.5
838.956	2978.83333
842.553	2945.83333
846.146	2964.83333
849.737	2965.83333
853.326	2973.16667
856.911	2972.5
860.493	3026.83333
864.073	3036.16667
867.65	3091.16667
871.225	3120.16667
874.796	3156.5
878.365	3150.5
881.931	3186.16667
885.494	3192.83333
889.054	3203.5
892.612	3192.5
896.166	3186.83333
899.719	3122.83333
903.268	3094.83333
906.814	3076.83333
910.358	3062.5
913.899	3033.16667
917.438	3059.16667
920.973	3042.5
924.506	3097.16667
928.036	3122.83333
931.564	3130.16667
935.088	3153.16667
938.61	3168.16667
942.129	3224.5
945.646	3305.83333
949.16	3354.83333
952.671	3432.5
956.179	3446.16667
959.685	3369.5
963.188	3342.5
966.688	3299.5
970.185	3205.16667
973.68	3175.16667
977.173	3167.83333
980.662	3141.16667
984.149	3169.16667
987.633	3169.16667
991.114	3242.83333
994.593	3353.83333
998.069	3455.83333
1001.542	3541.83333
1005.013	3432.83333
1008.481	3272.83333
1011.947	3190.16667
1015.409	3166.83333
1018.869	3198.5
1022.327	3192.83333
1025.782	3160.5
1029.234	3163.16667
1032.683	3131.83333
1036.13	3039.83333
1039.574	2901.83333
1043.016	2843.16667
1046.455	2801.16667
1049.891	2752.5
1053.325	2754.16667
1056.756	2775.16667
1060.184	2812.16667
1063.61	2793.83333
1067.033	2821.16667
1070.454	2812.83333
1073.872	2840.5
1077.287	2857.16667
1080.7	2880.83333
1084.11	2871.83333
1087.517	2849.5
1090.922	2846.83333
1094.325	2804.83333
1097.724	2762.5
1101.122	2763.83333
1104.516	2750.83333
1107.908	2756.16667
1111.298	2807.5
1114.684	2810.83333
1118.069	2865.5
1121.45	2890.5
1124.83	2873.83333
1128.206	2935.5
1131.58	2984.83333
1134.951	3052.16667
1138.32	3137.5
1141.687	3266.83333
1145.05	3329.83333
1148.412	3346.5
1151.77	3338.83333
1155.126	3351.5
1158.48	3344.5
1161.831	3372.5
1165.18	3415.16667
1168.525	3442.5
1171.869	3476.83333
1175.21	3504.83333
1178.548	3571.5
1181.884	3576.16667
1185.217	3614.16667
1188.548	3665.5
1191.877	3741.16667
1195.202	3815.83333
1198.526	3858.16667
1201.846	3895.83333
1205.165	3853.16667
1208.48	3846.5
1211.794	3845.83333
1215.104	3842.83333
1218.413	3837.83333
1221.719	3819.83333
1225.022	3817.5
1228.323	3770.83333
1231.621	3766.16667
1234.917	3737.83333
1238.21	3810.16667
1241.501	3799.83333
1244.79	3817.83333
1248.076	3799.83333
1251.359	3848.5
1254.64	3952.5
1257.919	3954.16667
1261.195	4001.83333
1264.468	4044.5
1267.74	4115.5
1271.008	4109.5
1274.275	4088.83333
1277.538	4024.83333
1280.8	4035.5
1284.059	4027.5
1287.315	4074.16667
1290.569	4122.5
1293.821	4135.83333
1297.07	4124.83333
1300.317	4130.5
1303.562	4120.5
1306.803	4102.83333
1310.043	4023.16667
1313.28	3983.16667
1316.515	3905.5
1319.747	3873.83333
1322.977	3794.5
1326.204	3759.5
1329.429	3694.5
1332.652	3700.5
1335.872	3690.83333
1339.09	3665.16667
1342.306	3651.5
1345.519	3649.83333
1348.729	3607.83333
1351.938	3597.16667
1355.144	3559.16667
1358.347	3515.5
1361.548	3531.5
1364.747	3534.83333
1367.944	3487.16667
1371.138	3558.83333
1374.329	3559.16667
1377.518	3608.16667
1380.705	3627.16667
1383.89	3593.83333
1387.072	3498.83333
1390.252	3385.83333
1393.429	3289.83333
1396.605	3195.16667
1399.777	3100.5
1402.948	3076.83333
1406.116	3058.83333
1409.282	3077.16667
1412.445	3078.5
1415.606	3102.83333
1418.765	3174.83333
1421.921	3239.5
1425.075	3315.83333
1428.227	3406.16667
1431.376	3559.16667
1434.524	3669.83333
1437.668	3725.16667
1440.811	3757.83333
1443.951	3766.83333
1447.089	3794.83333
1450.224	3777.5
1453.357	3719.83333
1456.488	3731.5
1459.617	3690.16667
1462.743	3649.83333
1465.867	3571.83333
1468.989	3523.16667
1472.108	3432.16667
1475.225	3375.5
1478.34	3348.16667
1481.453	3349.5
1484.563	3358.16667
1487.671	3422.16667
1490.776	3481.83333
1493.88	3568.16667
1496.981	3609.83333
1500.08	3683.5
1503.176	3738.83333
1506.271	3796.5
1509.363	3831.83333
1512.452	3885.5
1515.54	3964.16667
1518.625	4056.5
1521.708	4195.83333
1524.789	4374.83333
1527.867	4657.83333
1530.944	4944.5
1534.018	5211.5
1537.089	5350.5
1540.159	5430.5
1543.226	5292.16667
1546.291	5125.5
1549.354	4962.5
1552.415	4810.5
1555.473	4651.5
1558.529	4549.16667
1561.583	4507.5
1564.634	4430.16667
1567.684	4436.16667
1570.731	4374.83333
1573.776	4431.16667
1576.819	4452.83333
1579.859	4468.83333
1582.898	4528.5
1585.934	4529.5
1588.968	4576.5
1591.999	4538.83333
1595.029	4517.5
1598.056	4569.5
1601.081	4580.5
1604.104	4549.83333
1607.125	4497.5
1610.144	4414.83333
1613.16	4309.83333
1616.174	4196.5
1619.186	4056.83333
1622.196	3938.83333
1625.203	3860.16667
1628.209	3815.5
1631.212	3723.16667
1634.213	3676.83333
1637.212	3636.83333
1640.209	3564.83333
1643.203	3474.5
1646.196	3377.16667
1649.186	3296.16667
1652.174	3210.83333
1655.16	3099.83333
1658.144	3010.83333
1661.125	2866.5
1664.105	2750.16667
1667.082	2646.83333
1670.057	2496.83333
1673.03	2352.16667
1676.001	2209.5
1678.97	2079.5
1681.937	1965.5
1684.901	1873.83333
1687.863	1816.5
1690.824	1735.16667
1693.782	1708.83333
1696.738	1653.5
1699.692	1638.16667
1702.643	1572.83333
1705.593	1548.5
1708.54	1546.16667
1711.486	1547.5
1714.429	1491.16667
1717.37	1487.5
1720.309	1463.16667
1723.246	1464.5
1726.181	1428.16667
1729.113	1416.16667
1732.044	1404.5
1734.972	1400.16667
1737.899	1413.5
1740.823	1381.5
1743.745	1382.83333
1746.665	1334.5
1749.583	1314.16667
1752.499	1294.83333
1755.413	1279.5
1758.325	1256.83333
1761.235	1246.83333
1764.142	1220.5
1767.048	1209.16667
1769.951	1205.16667
1772.852	1208.16667
1775.752	1191.5
1778.649	1209.5
1781.544	1196.5
1784.437	1146.5
1787.328	1156.5
1790.217	1147.83333
1793.104	1132.16667
1795.989	1135.16667
1798.872	1120.5
1801.753	1139.5
1804.631	1150.83333
1807.508	1135.16667
1810.383	1126.83333
1813.255	1117.5
1816.126	1122.5
1818.994	1107.16667
1821.861	1116.16667
1824.725	1103.16667
1827.587	1108.5
1830.448	1082.83333
1833.306	1058.83333
1836.162	1077.83333
1839.017	1075.16667
1841.869	1066.5
1844.719	1054.16667
1847.567	1045.16667
1850.414	1047.16667
1853.258	1049.16667
1856.1	1045.83333
1858.94	1066.83333
1861.778	1050.5
1864.614	1042.83333
1867.448	1049.83333
1870.28	1038.16667
1873.111	1057.5
1875.939	1045.16667
1878.765	1066.83333
1881.589	1037.16667
1884.411	1024.83333
1887.231	1042.5
1890.049	1038.16667
1892.865	1030.16667
1895.68	1017.5
1898.492	1005.16667
1901.302	1014.5
1904.11	1000.5
1906.916	985.5
1909.721	996.83333
1912.523	994.83333
1915.323	966.5
1918.122	982.83333
1920.918	987.83333
1923.712	980.16667
1926.505	976.83333
1929.295	959.83333
1932.084	982.5
1934.87	979.16667
1937.655	966.16667
1940.438	966.16667
1943.218	970.83333
1945.997	972.16667
1948.774	984.16667
1951.549	969.5
1954.322	966.5
1957.093	981.16667
1959.862	956.83333
1962.629	959.5
1965.394	939.83333
1968.157	938.83333
1970.918	944.16667
1973.678	936.83333
1976.435	947.83333
1979.19	921.83333
1981.944	927.83333
1984.696	916.5
1987.445	907.83333
1990.193	927.16667
1992.939	929.83333
1995.683	928.5
1998.425	898.83333
2001.165	928.5
2003.903	903.83333
2006.639	906.83333
2009.374	910.83333
2012.106	914.5
2014.837	889.83333
2017.566	912.5
2020.292	913.16667
2023.017	900.5
2025.74	905.5
2028.461	892.16667
2031.18	898.83333
2033.898	878.16667
2036.613	892.83333
2039.327	906.16667
2042.038	883.83333
2044.748	875.5
2047.456	879.83333
2050.162	862.16667
2052.866	877.16667
2055.568	879.5
2058.268	853.16667
2060.967	878.5
2063.663	852.16667
2066.358	874.16667
2069.051	857.16667
2071.742	864.5
2074.431	872.16667
2077.118	874.5
2079.804	866.5
2082.487	865.16667
2085.169	876.5
2087.849	881.5
2090.527	887.16667
2093.203	892.16667
2095.877	898.16667
2098.55	914.16667
2101.22	940.5
2103.889	963.5
2106.556	957.16667
2109.221	1014.16667
2111.884	1071.83333
2114.546	1165.16667
2117.205	1259.5
2119.863	1386.83333
2122.519	1515.83333
2125.173	1631.83333
2127.825	1720.16667
2130.475	1732.5
2133.124	1666.5
2135.771	1591.5
2138.416	1506.16667
2141.059	1387.83333
2143.7	1324.83333
2146.339	1226.16667
2148.977	1171.16667
2151.613	1135.16667
2154.247	1064.16667
2156.879	1037.5
2159.51	1019.16667
2162.138	983.83333
2164.765	967.83333
2167.39	948.83333
2170.013	953.5
2172.634	941.5
2175.254	905.5
2177.872	926.83333
2180.488	889.83333
2183.102	893.16667
2185.714	874.5
2188.325	844.83333
2190.934	858.83333
2193.541	843.5
2196.146	827.16667
2198.75	816.16667
2201.351	821.83333
2203.951	796.83333
2206.549	820.5
2209.146	791.5
2211.74	790.83333
2214.333	791.5
2216.924	782.5
2219.514	781.5
2222.101	775.83333
2224.687	770.83333
2227.271	746.5
2229.853	754.83333
2232.433	736.16667
2235.012	744.16667
2237.589	759.16667
2240.164	747.83333
2242.738	741.5
2245.309	717.83333
2247.879	746.16667
2250.448	742.5
2253.014	715.16667
2255.579	709.5
2258.142	710.83333
2260.703	688.16667
2263.262	686.5
2265.82	683.16667
2268.376	696.5
2270.93	667.16667
2273.483	666.5
2276.033	675.83333
2278.583	670.16667
2281.13	671.5
2283.675	653.16667
2286.219	667.16667
2288.761	662.5
2291.302	672.16667
2293.841	664.16667
2296.377	627.83333
2298.913	650.5
2301.446	655.16667
2303.978	646.83333
2306.508	648.5
2309.037	639.83333
2311.563	636.16667
2314.088	648.16667
2316.612	610.5
2319.133	628.83333
2321.653	627.83333
2324.171	628.5
2326.688	630.83333
2329.202	607.5
2331.715	620.83333
2334.227	623.5
2336.736	612.16667
2339.244	609.16667
2341.751	600.16667
2344.255	621.83333
2346.758	613.16667
2349.259	600.83333
2351.759	601.16667
2354.257	606.5
2356.753	592.83333
2359.247	601.83333
2361.74	602.83333
2364.231	590.83333
2366.721	606.83333
2369.209	587.83333
2371.695	579.5
2374.179	577.5
2376.662	577.16667
2379.143	591.5
2381.622	572.16667
2384.1	590.5
2386.576	575.16667
2389.051	596.83333
2391.524	592.16667
2393.995	585.83333
2396.464	571.83333
2398.932	568.5
2401.398	573.5
2403.863	558.16667
2406.325	565.5
2408.787	564.16667
2411.246	561.5
2413.704	561.5
2416.16	556.5
2418.615	560.16667
2421.068	564.5
2423.519	568.16667
2425.969	547.16667
2428.417	560.16667
2430.863	574.5
2433.308	566.83333
2435.751	556.5
2438.193	552.5
2440.633	557.16667
2443.071	559.5
2445.508	540.16667
2447.943	538.83333
2450.376	535.5
2452.808	540.5
2455.238	529.5
2457.667	568.83333
2460.093	535.16667
2462.519	530.5
2464.942	538.16667
2467.365	530.16667
2469.785	537.83333
2472.204	520.5
2474.621	514.83333
2477.037	546.83333
2479.451	515.5
2481.863	525.5
2484.274	516.83333
2486.683	518.5
2489.091	523.83333
2491.497	524.16667
2493.901	512.16667
2496.304	513.16667
2498.705	515.16667
2501.105	515.83333
2503.503	536.5
2505.899	516.83333
2508.294	525.16667
2510.687	514.16667
2513.079	498.5
2515.469	500.83333
2517.858	500.83333
2520.245	510.16667
2522.63	504.16667
2525.014	499.83333
2527.396	499.83333
2529.776	489.83333
2532.156	507.5
2534.533	499.5
2536.909	490.5
2539.283	482.16667
2541.656	483.5
2544.027	510.83333
2546.397	498.16667
2548.765	492.5
2551.131	493.83333
2553.496	484.83333
2555.86	490.83333
2558.221	484.16667
2560.582	488.16667
2562.94	481.5
2565.298	483.16667
2567.653	499.83333
2570.007	480.16667
2572.36	483.16667
2574.711	472.5
2577.06	493.5
2579.408	482.83333
2581.754	482.83333
2584.099	482.16667
2586.442	475.83333
2588.784	484.16667
2591.124	475.5
2593.463	476.16667
2595.8	476.83333
2598.135	462.83333
2600.469	473.83333
2602.802	472.16667
2605.133	488.16667
2607.462	457.83333
2609.79	466.16667
2612.116	466.83333
2614.441	465.16667
2616.764	479.83333
2619.086	471.5
2621.406	464.5
2623.725	485.5
2626.042	472.83333
2628.358	463.83333
2630.672	457.16667
2632.985	484.83333
2635.296	470.5
2637.606	469.83333
2639.914	469.5
2642.22	467.83333
2644.525	465.5
2646.829	476.83333
2649.131	484.16667
2651.432	479.5
2653.731	481.16667
2656.028	487.5
2658.324	479.16667
2660.619	463.83333
2662.912	480.16667
2665.204	468.16667
2667.494	487.83333
2669.782	466.83333
2672.07	479.83333
2674.355	481.16667
2676.639	481.5
2678.922	467.16667
2681.203	486.83333
2683.483	459.83333
2685.761	464.83333
2688.038	487.5
2690.313	501.5
2692.587	482.5
2694.859	475.83333
2697.13	481.83333
2699.399	487.5
2701.667	500.5
2703.933	499.83333
2706.198	500.5
2708.461	512.16667
2710.723	515.5
2712.984	506.83333
2715.243	511.83333
2717.5	499.16667
2719.757	530.5
2722.011	516.16667
2724.264	528.16667
2726.516	539.83333
2728.766	521.16667
2731.015	513.83333
2733.262	520.83333
2735.508	510.83333
2737.753	517.16667
2739.996	491.83333
2742.237	493.83333
2744.477	508.16667
2746.716	506.83333
2748.953	503.5
2751.189	502.83333
2753.423	482.5
2755.656	480.16667
2757.887	488.83333
2760.117	492.5
2762.346	490.83333
2764.573	480.83333
2766.798	490.83333
2769.022	485.16667
2771.245	488.16667
2773.467	490.16667
2775.686	496.5
2777.905	497.5
2780.122	510.16667
2782.337	511.5
2784.552	502.16667
2786.764	525.16667
2788.976	532.83333
2791.186	535.83333
2793.394	535.5
2795.601	552.5
2797.807	563.16667
2800.011	558.83333
2802.214	575.16667
2804.415	585.83333
2806.615	591.5
2808.814	615.16667
2811.011	613.16667
2813.206	609.83333
2815.401	633.5
2817.594	645.83333
2819.785	652.83333
2821.975	629.5
2824.164	658.83333
2826.351	678.16667
2828.537	686.83333
2830.722	714.83333
2832.905	715.83333
2835.086	750.5
2837.267	775.83333
2839.445	797.5
2841.623	812.5
2843.799	851.83333
2845.974	883.83333
2848.147	931.16667
2850.319	940.5
2852.489	975.5
2854.659	994.83333
2856.826	1000.16667
2858.993	1017.5
2861.158	1007.83333
2863.321	1016.5
2865.483	1032.16667
2867.644	1028.16667
2869.804	1012.5
2871.962	1021.5
2874.118	1030.16667
2876.274	999.83333
2878.428	1006.16667
2880.58	995.83333
2882.731	976.83333
2884.881	990.5
2887.03	981.16667
2889.177	991.16667
2891.322	1007.16667
2893.467	992.16667
2895.61	994.5
2897.751	1014.83333
2899.892	1002.83333
2902.03	1022.16667
2904.168	1020.83333
2906.304	1030.5
2908.439	1040.5
2910.572	1007.16667
2912.704	1040.5
2914.835	1019.5
2916.965	1016.16667
2919.093	1019.16667
2921.219	1002.83333
2923.345	1007.16667
2925.469	983.83333
2927.591	971.16667
2929.712	937.5
2931.832	932.83333
2933.951	912.5
2936.068	878.83333
2938.184	858.83333
2940.299	817.16667
2942.412	804.83333
2944.524	758.5
2946.634	750.83333
2948.744	687.5
2950.851	718.83333
2952.958	669.5
2955.063	654.5
2957.167	637.5
2959.269	612.83333
2961.371	626.16667
2963.471	575.83333
2965.569	580.5
2967.666	543.5
2969.762	533.5
2971.857	508.83333
2973.95	504.83333
2976.042	494.16667
2978.133	484.83333
2980.222	466.16667
2982.31	442.5
2984.396	423.83333
2986.482	427.16667
2988.566	432.83333
2990.648	407.83333
2992.73	407.16667
2994.81	397.83333
2996.889	397.83333
2998.966	389.5
3001.042	395.83333
3003.117	384.16667
3005.191	380.16667
3007.263	382.5
3009.334	369.83333
3011.403	370.83333
3013.472	350.16667
3015.539	354.83333
3017.604	355.16667
3019.669	327.83333
3021.732	328.16667
3023.794	330.16667
3025.854	308.16667
3027.914	314.5
3029.971	318.16667
3032.028	315.83333
3034.083	316.5
3036.137	315.5
3038.19	295.16667
3040.242	284.5
3042.292	280.5
3044.341	281.16667
3046.388	296.5
3048.435	273.83333
3050.48	282.5
3052.524	272.5
3054.566	251.83333
3056.607	268.5
3058.647	261.83333
3060.686	248.16667
3062.723	237.16667
3064.759	235.16667
3066.794	0.83333
3068.828	-2.16667
3070.86	-2.16667
