-0.839	430.875
3.438	458.54167
7.711	129.875
11.981	56.20833
16.247	46.54167
20.509	50.54167
24.768	46.20833
29.024	48.20833
33.276	42.54167
37.524	49.54167
41.769	44.54167
46.01	41.20833
50.247	55.20833
54.481	62.875
58.712	70.875
62.939	51.875
67.162	64.54167
71.382	57.54167
75.599	50.20833
79.812	64.54167
84.021	81.875
88.227	60.875
92.429	68.54167
96.628	52.54167
100.823	68.20833
105.015	82.54167
109.204	81.54167
113.388	78.875
117.57	77.54167
121.748	96.20833
125.922	86.54167
130.093	105.875
134.261	115.54167
138.425	104.875
142.585	154.54167
146.742	146.54167
150.896	179.54167
155.046	224.20833
159.193	350.54167
163.336	608.875
167.476	1112.875
171.613	2070.54167
175.746	3463.54167
179.875	5150.54167
184.002	6752.20833
188.124	7773.54167
192.244	8142.20833
196.36	8067.20833
200.472	7825.54167
204.581	7622.20833
208.687	7391.20833
212.79	7291.54167
216.889	7354.875
220.984	7400.875
225.077	7515.20833
229.165	7565.875
233.251	7628.875
237.333	7696.54167
241.412	7671.20833
245.487	7626.54167
249.559	7531.20833
253.628	7488.54167
257.694	7417.875
261.756	7364.54167
265.814	7268.54167
269.87	7069.54167
273.922	6952.20833
277.97	6870.20833
282.016	6875.875
286.058	6948.20833
290.097	7063.20833
294.132	7135.54167
298.164	7048.20833
302.193	6708.20833
306.219	6168.875
310.241	5628.54167
314.26	5089.54167
318.276	4668.20833
322.288	4308.20833
326.297	4046.54167
330.303	3853.875
334.305	3730.54167
338.305	3634.54167
342.301	3547.54167
346.294	3524.20833
350.283	3486.875
354.269	3433.875
358.252	3400.54167
362.232	3356.875
366.209	3358.20833
370.182	3316.54167
374.152	3274.20833
378.119	3306.875
382.083	3268.875
386.043	3277.20833
390	3235.20833
393.954	3255.875
397.905	3177.875
401.852	3163.875
405.797	3129.20833
409.738	3087.20833
413.676	3082.20833
417.61	3075.54167
421.542	3023.54167
425.47	3001.875
429.396	2963.54167
433.318	2947.20833
437.236	2939.875
441.152	2953.54167
445.065	2891.54167
448.974	2882.54167
452.88	2872.20833
456.783	2852.20833
460.683	2819.54167
464.58	2822.54167
468.473	2836.54167
472.364	2852.54167
476.251	2867.20833
480.135	2880.20833
484.016	2889.20833
487.894	2898.54167
491.769	2921.20833
495.641	2928.875
499.509	2929.54167
503.375	2929.54167
507.237	2913.875
511.096	2887.54167
514.952	2899.875
518.805	2929.20833
522.655	2926.54167
526.502	2882.54167
530.346	2881.54167
534.187	2916.875
538.024	2935.20833
541.859	2909.875
545.69	2941.54167
549.519	2907.20833
553.344	2891.54167
557.166	2849.875
560.985	2818.20833
564.802	2783.54167
568.615	2763.54167
572.425	2706.20833
576.232	2688.875
580.036	2691.54167
583.836	2700.54167
587.634	2663.54167
591.429	2679.54167
595.221	2717.54167
599.01	2788.54167
602.796	2797.54167
606.578	2835.20833
610.358	2834.875
614.135	2805.54167
617.909	2819.20833
621.679	2815.54167
625.447	2771.875
629.212	2803.875
632.973	2781.54167
636.732	2779.54167
640.488	2794.54167
644.241	2755.54167
647.991	2758.54167
651.737	2766.20833
655.481	2710.54167
659.222	2706.54167
662.96	2725.20833
666.695	2748.875
670.427	2756.54167
674.156	2788.20833
677.882	2774.54167
681.605	2785.875
685.325	2749.20833
689.043	2764.875
692.757	2764.20833
696.468	2754.54167
700.177	2759.54167
703.882	2753.54167
707.585	2755.54167
711.284	2761.875
714.981	2775.54167
718.675	2782.54167
722.366	2778.54167
726.054	2770.20833
729.739	2769.20833
733.421	2759.54167
737.1	2761.54167
740.777	2806.875
744.45	2804.54167
748.121	2842.54167
751.789	2886.54167
755.453	2873.875
759.115	2910.20833
762.774	2927.875
766.431	2969.54167
770.084	3004.54167
773.734	3002.20833
777.382	3071.20833
781.027	3125.20833
784.669	3124.20833
788.308	3156.54167
791.944	3167.20833
795.577	3196.875
799.208	3216.54167
802.835	3240.20833
806.46	3289.20833
810.082	3260.54167
813.701	3277.875
817.317	3316.54167
820.931	3288.875
824.542	3306.20833
828.149	3277.54167
831.754	3267.54167
835.357	3263.875
838.956	3245.54167
842.553	3250.20833
846.146	3240.54167
849.737	3218.875
853.326	3248.54167
856.911	3250.54167
860.493	3303.54167
864.073	3308.20833
867.65	3368.20833
871.225	3399.54167
874.796	3420.20833
878.365	3441.54167
881.931	3457.875
885.494	3471.54167
889.054	3456.20833
892.612	3477.20833
896.166	3428.20833
899.719	3398.875
903.268	3396.20833
906.814	3337.54167
910.358	3304.20833
913.899	3338.875
917.438	3317.54167
920.973	3312.54167
924.506	3378.875
928.036	3401.875
931.564	3444.20833
935.088	3474.20833
938.61	3482.20833
942.129	3525.875
945.646	3611.54167
949.16	3702.875
952.671	3758.20833
956.179	3785.54167
959.685	3706.54167
963.188	3690.54167
966.688	3626.20833
970.185	3507.54167
973.68	3489.875
977.173	3446.875
980.662	3417.20833
984.149	3411.54167
987.633	3419.875
991.114	3478.54167
994.593	3610.875
998.069	3726.54167
1001.542	3826.20833
1005.013	3748.54167
1008.481	3578.875
1011.947	3491.54167
1015.409	3477.875
1018.869	3482.20833
1022.327	3488.875
1025.782	3463.54167
1029.234	3450.20833
1032.683	3413.20833
1036.13	3297.54167
1039.574	3167.875
1043.016	3080.875
1046.455	3026.54167
1049.891	3046.54167
1053.325	3031.20833
1056.756	3024.20833
1060.184	3060.20833
1063.61	3048.20833
1067.033	3082.20833
1070.454	3099.875
1073.872	3147.875
1077.287	3129.54167
1080.7	3124.54167
1084.11	3121.875
1087.517	3129.875
1090.922	3077.875
1094.325	3065.54167
1097.724	3029.54167
1101.122	3026.875
1104.516	2995.20833
1107.908	3018.54167
1111.298	3064.54167
1114.684	3105.54167
1118.069	3139.875
1121.45	3192.875
1124.83	3171.875
1128.206	3234.875
1131.58	3263.20833
1134.951	3378.20833
1138.32	3466.20833
1141.687	3585.54167
1145.05	3675.875
1148.412	3714.20833
1151.77	3715.875
1155.126	3706.20833
1158.48	3752.54167
1161.831	3742.20833
1165.18	3769.20833
1168.525	3828.875
1171.869	3850.875
1175.21	3879.875
1178.548	3897.54167
1181.884	3936.875
1185.217	3976.875
1188.548	4044.20833
1191.877	4109.875
1195.202	4168.20833
1198.526	4216.875
1201.846	4251.20833
1205.165	4260.54167
1208.48	4223.54167
1211.794	4260.875
1215.104	4243.54167
1218.413	4251.875
1221.719	4254.875
1225.022	4231.54167
1228.323	4174.54167
1231.621	4186.20833
1234.917	4158.875
1238.21	4225.20833
1241.501	4185.20833
1244.79	4182.20833
1248.076	4200.875
1251.359	4236.875
1254.64	4281.20833
1257.919	4333.875
1261.195	4375.875
1264.468	4445.875
1267.74	4531.54167
1271.008	4526.54167
1274.275	4496.20833
1277.538	4498.54167
1280.8	4482.20833
1284.059	4495.875
1287.315	4522.875
1290.569	4538.20833
1293.821	4559.20833
1297.07	4579.875
1300.317	4608.875
1303.562	4574.875
1306.803	4504.875
1310.043	4477.875
1313.28	4406.54167
1316.515	4357.875
1319.747	4312.54167
1322.977	4255.20833
1326.204	4192.54167
1329.429	4105.54167
1332.652	4100.875
1335.872	4072.20833
1339.09	4032.20833
1342.306	4039.875
1345.519	3996.875
1348.729	3987.54167
1351.938	3968.54167
1355.144	3926.54167
1358.347	3870.875
1361.548	3883.875
1364.747	3912.54167
1367.944	3870.54167
1371.138	3927.54167
1374.329	3973.20833
1377.518	3993.875
1380.705	4060.875
1383.89	4022.875
1387.072	3918.20833
1390.252	3758.875
1393.429	3643.875
1396.605	3551.54167
1399.777	3467.875
1402.948	3677.875
1406.116	3490.54167
1409.282	3411.54167
1412.445	3398.20833
1415.606	3436.20833
1418.765	3488.20833
1421.921	3587.54167
1425.075	3675.875
1428.227	3796.54167
1431.376	3914.20833
1434.524	4084.54167
1437.668	4154.54167
1440.811	4163.875
1443.951	4229.20833
1447.089	4211.875
1450.224	4215.875
1453.357	4173.20833
1456.488	4145.20833
1459.617	4109.20833
1462.743	4043.54167
1465.867	3957.54167
1468.989	3922.20833
1472.108	3846.20833
1475.225	3792.875
1478.34	3744.54167
1481.453	3743.875
1484.563	3767.875
1487.671	3784.875
1490.776	3870.20833
1493.88	3945.54167
1496.981	4049.54167
1500.08	4092.20833
1503.176	4156.20833
1506.271	4249.875
1509.363	4328.20833
1512.452	4361.875
1515.54	4464.54167
1518.625	4554.875
1521.708	4709.54167
1524.789	4932.875
1527.867	5203.54167
1530.944	5486.54167
1534.018	5778.54167
1537.089	5951.875
1540.159	5935.20833
1543.226	5865.875
1546.291	5696.20833
1549.354	5496.54167
1552.415	5345.54167
1555.473	5172.54167
1558.529	5076.54167
1561.583	5004.875
1564.634	4955.54167
1567.684	4977.20833
1570.731	4960.20833
1573.776	4973.54167
1576.819	5019.875
1579.859	5033.54167
1582.898	5081.54167
1585.934	5112.54167
1588.968	5128.20833
1591.999	5123.54167
1595.029	5125.54167
1598.056	5144.54167
1601.081	5157.875
1604.104	5137.54167
1607.125	5089.20833
1610.144	4992.54167
1613.16	4855.54167
1616.174	4733.20833
1619.186	4599.20833
1622.196	4493.54167
1625.203	4362.875
1628.209	4280.54167
1631.212	4265.875
1634.213	4170.875
1637.212	4113.54167
1640.209	4040.20833
1643.203	3954.54167
1646.196	3831.20833
1649.186	3693.875
1652.174	3603.20833
1655.16	3502.54167
1658.144	3381.875
1661.125	3216.875
1664.105	3061.54167
1667.082	2939.875
1670.057	2781.875
1673.03	2620.54167
1676.001	2461.20833
1678.97	2299.20833
1681.937	2170.20833
1684.901	2075.20833
1687.863	2001.20833
1690.824	1920.54167
1693.782	1893.20833
1696.738	1809.875
1699.692	1776.54167
1702.643	1725.54167
1705.593	1711.875
1708.54	1688.54167
1711.486	1676.54167
1714.429	1643.20833
1717.37	1639.875
1720.309	1602.54167
1723.246	1596.875
1726.181	1567.20833
1729.113	1580.875
1732.044	1553.875
1734.972	1544.875
1737.899	1526.875
1740.823	1532.54167
1743.745	1502.875
1746.665	1468.54167
1749.583	1451.875
1752.499	1418.875
1755.413	1389.20833
1758.325	1362.20833
1761.235	1374.20833
1764.142	1333.54167
1767.048	1334.54167
1769.951	1325.875
1772.852	1295.54167
1775.752	1297.54167
1778.649	1317.20833
1781.544	1310.20833
1784.437	1259.54167
1787.328	1273.20833
1790.217	1264.20833
1793.104	1243.54167
1795.989	1231.875
1798.872	1221.20833
1801.753	1245.54167
1804.631	1243.54167
1807.508	1245.54167
1810.383	1247.875
1813.255	1222.54167
1816.126	1229.875
1818.994	1218.20833
1821.861	1197.20833
1824.725	1214.875
1827.587	1194.54167
1830.448	1181.875
1833.306	1154.54167
1836.162	1175.54167
1839.017	1158.20833
1841.869	1156.54167
1844.719	1157.54167
1847.567	1147.20833
1850.414	1131.875
1853.258	1139.20833
1856.1	1150.54167
1858.94	1164.20833
1861.778	1154.54167
1864.614	1138.54167
1867.448	1151.875
1870.28	1138.20833
1873.111	1165.54167
1875.939	1139.20833
1878.765	1163.54167
1881.589	1140.20833
1884.411	1127.875
1887.231	1137.875
1890.049	1135.20833
1892.865	1125.54167
1895.68	1104.54167
1898.492	1106.875
1901.302	1099.54167
1904.11	1096.54167
1906.916	1082.20833
1909.721	1090.54167
1912.523	1083.875
1915.323	1074.20833
1918.122	1076.20833
1920.918	1078.54167
1923.712	1073.875
1926.505	1068.54167
1929.295	1049.20833
1932.084	1066.20833
1934.87	1072.54167
1937.655	1058.54167
1940.438	1055.875
1943.218	1060.20833
1945.997	1056.875
1948.774	1070.54167
1951.549	1064.20833
1954.322	1046.875
1957.093	1060.875
1959.862	1040.20833
1962.629	1044.20833
1965.394	1028.20833
1968.157	1028.54167
1970.918	1029.54167
1973.678	1021.875
1976.435	1026.54167
1979.19	1014.20833
1981.944	1016.875
1984.696	1009.875
1987.445	1004.875
1990.193	1019.875
1992.939	1031.20833
1995.683	1005.20833
1998.425	994.54167
2001.165	1017.875
2003.903	1002.20833
2006.639	985.20833
2009.374	981.54167
2012.106	1000.20833
2014.837	978.875
2017.566	999.54167
2020.292	992.875
2023.017	998.20833
2025.74	985.875
2028.461	970.20833
2031.18	977.20833
2033.898	974.54167
2036.613	968.875
2039.327	983.875
2042.038	955.875
2044.748	966.54167
2047.456	966.54167
2050.162	934.54167
2052.866	958.875
2055.568	967.875
2058.268	946.54167
2060.967	959.875
2063.663	937.20833
2066.358	945.20833
2069.051	938.875
2071.742	947.875
2074.431	945.20833
2077.118	946.20833
2079.804	930.875
2082.487	954.20833
2085.169	957.20833
2087.849	970.875
2090.527	955.875
2093.203	973.54167
2095.877	976.875
2098.55	977.20833
2101.22	993.54167
2103.889	1007.20833
2106.556	1016.875
2109.221	1066.20833
2111.884	1087.20833
2114.546	1182.875
2117.205	1265.20833
2119.863	1377.875
2122.519	1498.20833
2125.173	1614.54167
2127.825	1690.54167
2130.475	1699.875
2133.124	1649.54167
2135.771	1569.20833
2138.416	1498.875
2141.059	1389.875
2143.7	1328.20833
2146.339	1238.54167
2148.977	1176.54167
2151.613	1154.20833
2154.247	1096.54167
2156.879	1075.875
2159.51	1040.20833
2162.138	1036.54167
2164.765	1015.875
2167.39	1001.875
2170.013	1011.20833
2172.634	991.875
2175.254	978.20833
2177.872	1001.54167
2180.488	952.875
2183.102	960.875
2185.714	954.20833
2188.325	913.54167
2190.934	923.20833
2193.541	917.54167
2196.146	896.875
2198.75	894.20833
2201.351	889.54167
2203.951	849.54167
2206.549	888.875
2209.146	871.20833
2211.74	853.875
2214.333	868.875
2216.924	828.20833
2219.514	835.20833
2222.101	820.20833
2224.687	844.54167
2227.271	827.875
2229.853	817.875
2232.433	811.20833
2235.012	831.54167
2237.589	829.875
2240.164	834.875
2242.738	804.54167
2245.309	801.20833
2247.879	798.54167
2250.448	801.875
2253.014	778.20833
2255.579	766.20833
2258.142	776.20833
2260.703	755.875
2263.262	756.875
2265.82	753.54167
2268.376	759.20833
2270.93	737.875
2273.483	736.54167
2276.033	745.20833
2278.583	735.54167
2281.13	731.20833
2283.675	708.54167
2286.219	709.875
2288.761	715.54167
2291.302	724.54167
2293.841	723.20833
2296.377	695.54167
2298.913	705.20833
2301.446	716.20833
2303.978	707.875
2306.508	694.54167
2309.037	699.54167
2311.563	698.875
2314.088	708.20833
2316.612	679.875
2319.133	692.875
2321.653	689.875
2324.171	691.54167
2326.688	695.20833
2329.202	670.54167
2331.715	678.875
2334.227	682.20833
2336.736	669.875
2339.244	668.20833
2341.751	660.20833
2344.255	674.54167
2346.758	652.20833
2349.259	654.54167
2351.759	652.54167
2354.257	649.20833
2356.753	642.875
2359.247	664.20833
2361.74	667.875
2364.231	649.20833
2366.721	660.875
2369.209	638.20833
2371.695	645.54167
2374.179	631.54167
2376.662	638.20833
2379.143	657.875
2381.622	635.875
2384.1	647.54167
2386.576	627.20833
2389.051	644.54167
2391.524	650.875
2393.995	643.20833
2396.464	624.20833
2398.932	617.875
2401.398	632.20833
2403.863	619.875
2406.325	618.20833
2408.787	619.875
2411.246	624.20833
2413.704	611.54167
2416.16	618.875
2418.615	618.54167
2421.068	631.54167
2423.519	611.875
2425.969	589.875
2428.417	613.20833
2430.863	636.875
2433.308	619.54167
2435.751	614.20833
2438.193	595.54167
2440.633	612.20833
2443.071	614.20833
2445.508	600.54167
2447.943	594.20833
2450.376	590.54167
2452.808	601.20833
2455.238	580.54167
2457.667	616.875
2460.093	586.54167
2462.519	574.54167
2464.942	579.20833
2467.365	595.20833
2469.785	580.20833
2472.204	582.54167
2474.621	567.54167
2477.037	593.54167
2479.451	571.20833
2481.863	567.20833
2484.274	572.54167
2486.683	580.875
2489.091	578.20833
2491.497	578.875
2493.901	570.875
2496.304	561.875
2498.705	568.875
2501.105	562.20833
2503.503	591.20833
2505.899	551.20833
2508.294	577.20833
2510.687	559.54167
2513.079	555.54167
2515.469	554.875
2517.858	554.20833
2520.245	580.20833
2522.63	546.20833
2525.014	541.875
2527.396	542.54167
2529.776	538.54167
2532.156	549.20833
2534.533	535.54167
2536.909	538.875
2539.283	530.875
2541.656	538.20833
2544.027	561.54167
2546.397	548.20833
2548.765	542.20833
2551.131	544.20833
2553.496	539.54167
2555.86	544.54167
2558.221	530.20833
2560.582	535.20833
2562.94	525.54167
2565.298	527.54167
2567.653	557.875
2570.007	514.54167
2572.36	533.875
2574.711	525.875
2577.06	539.20833
2579.408	520.20833
2581.754	531.875
2584.099	531.875
2586.442	526.875
2588.784	527.54167
2591.124	526.20833
2593.463	524.875
2595.8	520.20833
2598.135	512.875
2600.469	508.875
2602.802	536.20833
2605.133	528.20833
2607.462	519.20833
2609.79	498.875
2612.116	512.875
2614.441	511.875
2616.764	522.54167
2619.086	512.54167
2621.406	505.875
2623.725	523.875
2626.042	516.20833
2628.358	514.875
2630.672	508.875
2632.985	525.875
2635.296	523.54167
2637.606	513.54167
2639.914	502.54167
2642.22	521.20833
2644.525	512.875
2646.829	518.20833
2649.131	532.54167
2651.432	523.54167
2653.731	510.875
2656.028	522.20833
2658.324	521.875
2660.619	512.20833
2662.912	531.875
2665.204	518.20833
2667.494	534.20833
2669.782	519.20833
2672.07	521.20833
2674.355	528.54167
2676.639	514.20833
2678.922	527.875
2681.203	535.875
2683.483	512.20833
2685.761	519.20833
2688.038	532.54167
2690.313	550.875
2692.587	532.54167
2694.859	516.875
2697.13	539.875
2699.399	534.20833
2701.667	545.20833
2703.933	547.20833
2706.198	554.875
2708.461	549.875
2710.723	552.875
2712.984	559.20833
2715.243	572.20833
2717.5	555.875
2719.757	576.20833
2722.011	554.20833
2724.264	586.54167
2726.516	588.54167
2728.766	565.20833
2731.015	584.20833
2733.262	570.875
2735.508	568.20833
2737.753	569.54167
2739.996	542.875
2742.237	549.20833
2744.477	565.20833
2746.716	562.54167
2748.953	552.875
2751.189	546.20833
2753.423	541.54167
2755.656	537.20833
2757.887	528.54167
2760.117	544.54167
2762.346	529.875
2764.573	533.875
2766.798	536.54167
2769.022	550.20833
2771.245	534.54167
2773.467	536.875
2775.686	542.875
2777.905	550.20833
2780.122	562.20833
2782.337	565.54167
2784.552	561.20833
2786.764	572.54167
2788.976	580.20833
2791.186	590.54167
2793.394	588.54167
2795.601	609.875
2797.807	614.54167
2800.011	616.54167
2802.214	634.54167
2804.415	640.875
2806.615	637.54167
2808.814	658.20833
2811.011	681.54167
2813.206	677.20833
2815.401	694.875
2817.594	706.875
2819.785	709.20833
2821.975	715.20833
2824.164	733.875
2826.351	756.54167
2828.537	765.875
2830.722	799.54167
2832.905	798.20833
2835.086	825.54167
2837.267	881.54167
2839.445	887.875
2841.623	922.20833
2843.799	978.20833
2845.974	1015.54167
2848.147	1077.875
2850.319	1103.875
2852.489	1140.875
2854.659	1138.20833
2856.826	1168.20833
2858.993	1196.54167
2861.158	1172.20833
2863.321	1174.875
2865.483	1198.20833
2867.644	1193.20833
2869.804	1191.875
2871.962	1180.875
2874.118	1173.54167
2876.274	1157.54167
2878.428	1167.54167
2880.58	1144.54167
2882.731	1146.54167
2884.881	1158.20833
2887.03	1159.20833
2889.177	1156.875
2891.322	1169.875
2893.467	1159.875
2895.61	1167.20833
2897.751	1199.875
2899.892	1176.875
2902.03	1195.54167
2904.168	1187.54167
2906.304	1211.20833
2908.439	1221.54167
2910.572	1200.20833
2912.704	1203.875
2914.835	1212.20833
2916.965	1207.20833
2919.093	1223.20833
2921.219	1192.20833
2923.345	1197.20833
2925.469	1167.54167
2927.591	1158.875
2929.712	1119.20833
2931.832	1092.20833
2933.951	1063.20833
2936.068	1047.20833
2938.184	1013.54167
2940.299	969.54167
2942.412	956.20833
2944.524	896.875
2946.634	872.875
2948.744	824.20833
2950.851	841.54167
2952.958	773.20833
2955.063	764.20833
2957.167	743.54167
2959.269	715.20833
2961.371	711.54167
2963.471	664.54167
2965.569	668.54167
2967.666	624.875
2969.762	622.20833
2971.857	592.20833
2973.95	581.20833
2976.042	570.54167
2978.133	547.875
2980.222	531.875
2982.31	503.54167
2984.396	489.875
2986.482	488.20833
2988.566	480.54167
2990.648	473.54167
2992.73	466.20833
2994.81	443.875
2996.889	456.54167
2998.966	448.54167
3001.042	441.20833
3003.117	431.875
3005.191	438.20833
3007.263	428.875
3009.334	417.875
3011.403	404.54167
3013.472	396.20833
3015.539	402.20833
3017.604	409.54167
3019.669	359.875
3021.732	371.20833
3023.794	375.20833
3025.854	348.54167
3027.914	354.20833
3029.971	360.875
3032.028	346.20833
3034.083	353.54167
3036.137	356.54167
3038.19	332.20833
3040.242	320.875
3042.292	322.54167
3044.341	312.54167
3046.388	323.875
3048.435	311.875
3050.48	319.20833
3052.524	308.20833
3054.566	296.20833
3056.607	301.54167
3058.647	297.20833
3060.686	282.20833
3062.723	266.875
3064.759	260.20833
3066.794	-0.45833
3068.828	-0.79167
3070.86	-1.45833
