-0.839	389.83333
3.438	418.16667
7.711	123.83333
11.981	54.83333
16.247	46.5
20.509	40.83333
24.768	43.5
29.024	48.5
33.276	42.5
37.524	47.16667
41.769	41.83333
46.01	40.5
50.247	48.5
54.481	62.16667
58.712	64.5
62.939	51.16667
67.162	61.16667
71.382	54.5
75.599	49.83333
79.812	68.16667
84.021	82.5
88.227	60.16667
92.429	64.83333
96.628	49.16667
100.823	67.5
105.015	73.83333
109.204	75.5
113.388	76.5
117.57	75.16667
121.748	91.83333
125.922	80.5
130.093	96.16667
134.261	103.5
138.425	102.5
142.585	141.16667
146.742	139.5
150.896	163.83333
155.046	202.83333
159.193	324.16667
163.336	561.16667
167.476	1025.16667
171.613	1897.16667
175.746	3166.5
179.875	4662.16667
184.002	6132.83333
188.124	7082.5
192.244	7334.5
196.36	7251.16667
200.472	6996.5
204.581	6749.16667
208.687	6530.83333
212.79	6418.5
216.889	6441.83333
220.984	6432.16667
225.077	6435.16667
229.165	6452.16667
233.251	6426.5
237.333	6401.5
241.412	6373.16667
245.487	6323.16667
249.559	6243.83333
253.628	6166.16667
257.694	6130.5
261.756	6073.83333
265.814	5981.16667
269.87	5803.83333
273.922	5694.16667
277.97	5614.83333
282.016	5574.16667
286.058	5601.5
290.097	5704.83333
294.132	5713.16667
298.164	5656.5
302.193	5396.83333
306.219	5029.16667
310.241	4578.83333
314.26	4210.5
318.276	3888.5
322.288	3617.16667
326.297	3421.5
330.303	3315.5
334.305	3219.16667
338.305	3141.83333
342.301	3080.83333
346.294	3036.16667
350.283	3000.83333
354.269	2991.5
358.252	2974.83333
362.232	2918.16667
366.209	2894.83333
370.182	2847.83333
374.152	2843.5
378.119	2833.5
382.083	2810.5
386.043	2836.83333
390	2779.16667
393.954	2784.16667
397.905	2762.83333
401.852	2774.16667
405.797	2706.16667
409.738	2705.5
413.676	2701.5
417.61	2692.16667
421.542	2672.5
425.47	2639.5
429.396	2641.16667
433.318	2603.16667
437.236	2579.16667
441.152	2597.83333
445.065	2557.16667
448.974	2555.16667
452.88	2515.5
456.783	2525.5
460.683	2486.5
464.58	2492.5
468.473	2540.16667
472.364	2506.16667
476.251	2522.16667
480.135	2529.5
484.016	2556.83333
487.894	2572.83333
491.769	2594.5
495.641	2612.83333
499.509	2587.16667
503.375	2594.5
507.237	2594.83333
511.096	2628.83333
514.952	2713.5
518.805	2830.5
522.655	2861.5
526.502	2707.5
530.346	2580.83333
534.187	2602.16667
538.024	2598.83333
541.859	2591.16667
545.69	2619.5
549.519	2611.16667
553.344	2583.16667
557.166	2531.5
560.985	2519.83333
564.802	2459.5
568.615	2439.5
572.425	2408.16667
576.232	2396.83333
580.036	2390.83333
583.836	2404.5
587.634	2387.5
591.429	2381.16667
595.221	2435.83333
599.01	2451.83333
602.796	2489.83333
606.578	2481.5
610.358	2501.16667
614.135	2499.16667
617.909	2510.83333
621.679	2500.16667
625.447	2437.83333
629.212	2443.16667
632.973	2460.83333
636.732	2447.83333
640.488	2457.5
644.241	2425.5
647.991	2449.16667
651.737	2454.16667
655.481	2399.5
659.222	2429.83333
662.96	2444.16667
666.695	2466.5
670.427	2461.16667
674.156	2470.83333
677.882	2467.83333
681.605	2450.83333
685.325	2420.83333
689.043	2433.5
692.757	2418.5
696.468	2396.5
700.177	2415.5
703.882	2418.83333
707.585	2409.5
711.284	2414.83333
714.981	2423.5
718.675	2439.83333
722.366	2421.83333
726.054	2436.16667
729.739	2434.5
733.421	2436.83333
737.1	2420.83333
740.777	2455.16667
744.45	2466.16667
748.121	2491.83333
751.789	2528.16667
755.453	2519.5
759.115	2537.5
762.774	2539.83333
766.431	2578.83333
770.084	2594.83333
773.734	2622.16667
777.382	2683.5
781.027	2716.16667
784.669	2723.16667
788.308	2740.5
791.944	2740.5
795.577	2781.5
799.208	2822.5
802.835	2838.5
806.46	2836.5
810.082	2845.16667
813.701	2894.16667
817.317	2883.83333
820.931	2889.16667
824.542	2877.16667
828.149	2862.83333
831.754	2840.5
835.357	2825.16667
838.956	2850.83333
842.553	2824.16667
846.146	2824.16667
849.737	2806.16667
853.326	2856.5
856.911	2815.16667
860.493	2880.16667
864.073	2887.16667
867.65	2933.16667
871.225	2952.16667
874.796	2965.5
878.365	2995.83333
881.931	3000.16667
885.494	3023.83333
889.054	3005.83333
892.612	3022.16667
896.166	3004.16667
899.719	2961.83333
903.268	2931.83333
906.814	2911.5
910.358	2906.83333
913.899	2895.83333
917.438	2899.83333
920.973	2896.5
924.506	2902.5
928.036	2959.5
931.564	2990.83333
935.088	3027.16667
938.61	3039.16667
942.129	3071.83333
945.646	3167.83333
949.16	3221.16667
952.671	3305.83333
956.179	3296.83333
959.685	3266.83333
963.188	3241.16667
966.688	3176.5
970.185	3110.83333
973.68	3042.16667
977.173	2994.5
980.662	2971.16667
984.149	2969.83333
987.633	2956.16667
991.114	3027.16667
994.593	3116.5
998.069	3205.5
1001.542	3324.5
1005.013	3223.16667
1008.481	3065.83333
1011.947	3006.5
1015.409	2989.16667
1018.869	2965.16667
1022.327	2986.5
1025.782	2973.83333
1029.234	2986.16667
1032.683	2922.5
1036.13	2855.5
1039.574	2691.5
1043.016	2649.83333
1046.455	2586.5
1049.891	2579.5
1053.325	2594.16667
1056.756	2616.83333
1060.184	2630.83333
1063.61	2652.5
1067.033	2658.5
1070.454	2646.83333
1073.872	2703.16667
1077.287	2706.16667
1080.7	2694.83333
1084.11	2693.5
1087.517	2688.16667
1090.922	2650.5
1094.325	2608.5
1097.724	2608.16667
1101.122	2603.83333
1104.516	2604.16667
1107.908	2580.16667
1111.298	2632.16667
1114.684	2676.16667
1118.069	2736.5
1121.45	2751.5
1124.83	2760.5
1128.206	2809.83333
1131.58	2891.5
1134.951	2956.5
1138.32	3059.5
1141.687	3186.16667
1145.05	3275.16667
1148.412	3300.16667
1151.77	3259.83333
1155.126	3280.16667
1158.48	3274.5
1161.831	3315.16667
1165.18	3326.16667
1168.525	3369.5
1171.869	3390.5
1175.21	3420.5
1178.548	3462.83333
1181.884	3459.16667
1185.217	3443.83333
1188.548	3486.83333
1191.877	3579.83333
1195.202	3654.5
1198.526	3690.16667
1201.846	3694.16667
1205.165	3714.16667
1208.48	3711.16667
1211.794	3680.83333
1215.104	3698.5
1218.413	3716.83333
1221.719	3700.16667
1225.022	3658.83333
1228.323	3570.83333
1231.621	3557.83333
1234.917	3563.5
1238.21	3571.83333
1241.501	3570.5
1244.79	3565.5
1248.076	3570.83333
1251.359	3620.5
1254.64	3679.5
1257.919	3690.83333
1261.195	3785.5
1264.468	3841.5
1267.74	3899.16667
1271.008	3909.5
1274.275	3901.83333
1277.538	3871.83333
1280.8	3830.5
1284.059	3834.83333
1287.315	3896.16667
1290.569	3915.5
1293.821	3915.5
1297.07	3949.5
1300.317	3937.16667
1303.562	3934.83333
1306.803	3911.83333
1310.043	3845.5
1313.28	3816.16667
1316.515	3784.5
1319.747	3730.16667
1322.977	3689.83333
1326.204	3659.83333
1329.429	3590.5
1332.652	3585.83333
1335.872	3559.16667
1339.09	3540.16667
1342.306	3523.83333
1345.519	3500.83333
1348.729	3464.16667
1351.938	3454.16667
1355.144	3419.5
1358.347	3353.5
1361.548	3383.16667
1364.747	3384.5
1367.944	3342.16667
1371.138	3382.5
1374.329	3403.83333
1377.518	3449.16667
1380.705	3462.5
1383.89	3447.16667
1387.072	3353.5
1390.252	3221.83333
1393.429	3104.5
1396.605	3014.16667
1399.777	2935.16667
1402.948	2882.5
1406.116	2873.83333
1409.282	2888.16667
1412.445	2876.16667
1415.606	2898.5
1418.765	2946.16667
1421.921	3030.5
1425.075	3096.16667
1428.227	3214.83333
1431.376	3346.5
1434.524	3446.16667
1437.668	3516.83333
1440.811	3542.5
1443.951	3586.83333
1447.089	3585.16667
1450.224	3592.16667
1453.357	3552.5
1456.488	3543.5
1459.617	3506.16667
1462.743	3433.5
1465.867	3395.16667
1468.989	3358.83333
1472.108	3314.16667
1475.225	3270.5
1478.34	3265.5
1481.453	3265.5
1484.563	3262.5
1487.671	3318.16667
1490.776	3389.16667
1493.88	3449.16667
1496.981	3518.5
1500.08	3601.83333
1503.176	3616.5
1506.271	3681.5
1509.363	3726.16667
1512.452	3789.16667
1515.54	3819.5
1518.625	3904.16667
1521.708	4007.5
1524.789	4154.83333
1527.867	4334.5
1530.944	4595.5
1534.018	4777.16667
1537.089	4931.16667
1540.159	4965.5
1543.226	4889.83333
1546.291	4795.5
1549.354	4635.16667
1552.415	4554.5
1555.473	4401.5
1558.529	4348.83333
1561.583	4317.83333
1564.634	4276.83333
1567.684	4303.83333
1570.731	4306.83333
1573.776	4370.5
1576.819	4361.5
1579.859	4409.5
1582.898	4491.16667
1585.934	4480.16667
1588.968	4528.5
1591.999	4504.5
1595.029	4482.5
1598.056	4501.83333
1601.081	4494.5
1604.104	4441.5
1607.125	4407.5
1610.144	4328.83333
1613.16	4198.16667
1616.174	4095.16667
1619.186	4016.5
1622.196	3912.83333
1625.203	3777.5
1628.209	3725.5
1631.212	3676.16667
1634.213	3631.83333
1637.212	3613.83333
1640.209	3536.5
1643.203	3422.5
1646.196	3317.5
1649.186	3189.16667
1652.174	3071.83333
1655.16	2977.5
1658.144	2872.16667
1661.125	2732.5
1664.105	2618.5
1667.082	2468.5
1670.057	2330.5
1673.03	2219.83333
1676.001	2085.5
1678.97	1945.5
1681.937	1882.16667
1684.901	1776.83333
1687.863	1721.83333
1690.824	1648.5
1693.782	1620.16667
1696.738	1564.5
1699.692	1518.16667
1702.643	1510.83333
1705.593	1464.83333
1708.54	1462.16667
1711.486	1454.16667
1714.429	1416.16667
1717.37	1415.16667
1720.309	1385.5
1723.246	1376.5
1726.181	1347.16667
1729.113	1369.5
1732.044	1344.5
1734.972	1344.83333
1737.899	1323.83333
1740.823	1340.83333
1743.745	1316.16667
1746.665	1267.16667
1749.583	1258.83333
1752.499	1232.5
1755.413	1240.83333
1758.325	1193.83333
1761.235	1212.83333
1764.142	1176.5
1767.048	1175.16667
1769.951	1174.5
1772.852	1158.16667
1775.752	1163.5
1778.649	1160.83333
1781.544	1144.5
1784.437	1120.5
1787.328	1137.16667
1790.217	1126.16667
1793.104	1108.5
1795.989	1098.5
1798.872	1095.16667
1801.753	1103.16667
1804.631	1110.5
1807.508	1109.5
1810.383	1099.83333
1813.255	1079.5
1816.126	1097.5
1818.994	1074.83333
1821.861	1067.5
1824.725	1073.5
1827.587	1064.83333
1830.448	1058.83333
1833.306	1023.16667
1836.162	1058.16667
1839.017	1025.83333
1841.869	1032.5
1844.719	1035.16667
1847.567	1021.5
1850.414	1017.16667
1853.258	1028.83333
1856.1	1040.16667
1858.94	1046.83333
1861.778	1036.16667
1864.614	1013.83333
1867.448	1018.83333
1870.28	1019.5
1873.111	1022.83333
1875.939	1025.16667
1878.765	1040.5
1881.589	1013.16667
1884.411	1011.83333
1887.231	1018.83333
1890.049	1009.5
1892.865	1016.83333
1895.68	994.83333
1898.492	995.16667
1901.302	984.16667
1904.11	991.5
1906.916	979.5
1909.721	977.5
1912.523	987.16667
1915.323	968.83333
1918.122	969.5
1920.918	971.16667
1923.712	961.16667
1926.505	983.5
1929.295	939.16667
1932.084	973.16667
1934.87	965.16667
1937.655	956.5
1940.438	952.16667
1943.218	961.5
1945.997	960.83333
1948.774	969.83333
1951.549	966.83333
1954.322	957.83333
1957.093	945.83333
1959.862	938.83333
1962.629	951.5
1965.394	938.5
1968.157	931.16667
1970.918	944.5
1973.678	923.16667
1976.435	934.83333
1979.19	935.83333
1981.944	909.5
1984.696	920.5
1987.445	905.5
1990.193	936.83333
1992.939	927.5
1995.683	917.16667
1998.425	894.5
2001.165	938.83333
2003.903	902.83333
2006.639	913.5
2009.374	910.5
2012.106	914.5
2014.837	885.16667
2017.566	917.83333
2020.292	912.83333
2023.017	913.16667
2025.74	888.5
2028.461	901.5
2031.18	899.16667
2033.898	889.5
2036.613	897.83333
2039.327	899.5
2042.038	881.16667
2044.748	881.83333
2047.456	883.5
2050.162	873.16667
2052.866	885.16667
2055.568	894.83333
2058.268	880.16667
2060.967	887.16667
2063.663	874.5
2066.358	892.16667
2069.051	867.83333
2071.742	871.83333
2074.431	887.16667
2077.118	869.5
2079.804	874.83333
2082.487	875.16667
2085.169	888.83333
2087.849	912.16667
2090.527	879.16667
2093.203	893.5
2095.877	894.5
2098.55	907.16667
2101.22	905.16667
2103.889	928.16667
2106.556	920.83333
2109.221	956.83333
2111.884	981.5
2114.546	1031.5
2117.205	1093.16667
2119.863	1165.16667
2122.519	1235.83333
2125.173	1281.16667
2127.825	1355.83333
2130.475	1365.83333
2133.124	1310.5
2135.771	1271.83333
2138.416	1219.5
2141.059	1158.83333
2143.7	1117.83333
2146.339	1057.5
2148.977	995.5
2151.613	1013.83333
2154.247	965.83333
2156.879	959.16667
2159.51	950.83333
2162.138	922.5
2164.765	911.83333
2167.39	905.16667
2170.013	920.16667
2172.634	912.16667
2175.254	897.16667
2177.872	925.16667
2180.488	874.5
2183.102	897.16667
2185.714	872.83333
2188.325	860.16667
2190.934	859.16667
2193.541	859.16667
2196.146	859.83333
2198.75	832.83333
2201.351	842.83333
2203.951	823.83333
2206.549	843.83333
2209.146	825.83333
2211.74	813.16667
2214.333	834.83333
2216.924	810.83333
2219.514	817.16667
2222.101	812.5
2224.687	825.83333
2227.271	807.5
2229.853	799.83333
2232.433	792.83333
2235.012	816.83333
2237.589	797.83333
2240.164	811.5
2242.738	799.83333
2245.309	776.83333
2247.879	797.16667
2250.448	802.83333
2253.014	770.83333
2255.579	762.16667
2258.142	763.5
2260.703	761.83333
2263.262	756.83333
2265.82	739.5
2268.376	762.16667
2270.93	734.16667
2273.483	731.16667
2276.033	750.5
2278.583	745.5
2281.13	729.83333
2283.675	742.83333
2286.219	746.83333
2288.761	747.16667
2291.302	736.5
2293.841	743.5
2296.377	720.16667
2298.913	735.83333
2301.446	734.83333
2303.978	720.5
2306.508	725.16667
2309.037	726.5
2311.563	737.83333
2314.088	735.16667
2316.612	731.83333
2319.133	712.83333
2321.653	715.83333
2324.171	708.5
2326.688	729.16667
2329.202	717.83333
2331.715	716.5
2334.227	721.83333
2336.736	715.83333
2339.244	714.16667
2341.751	705.5
2344.255	722.16667
2346.758	709.83333
2349.259	706.5
2351.759	708.5
2354.257	706.83333
2356.753	697.16667
2359.247	711.5
2361.74	706.5
2364.231	704.83333
2366.721	715.83333
2369.209	696.83333
2371.695	705.83333
2374.179	703.5
2376.662	697.83333
2379.143	723.16667
2381.622	705.16667
2384.1	716.16667
2386.576	700.16667
2389.051	721.83333
2391.524	724.83333
2393.995	720.5
2396.464	705.16667
2398.932	699.5
2401.398	708.16667
2403.863	701.16667
2406.325	706.5
2408.787	700.83333
2411.246	708.5
2413.704	703.5
2416.16	704.16667
2418.615	712.83333
2421.068	708.16667
2423.519	704.16667
2425.969	704.16667
2428.417	706.83333
2430.863	726.16667
2433.308	718.5
2435.751	704.5
2438.193	713.83333
2440.633	715.83333
2443.071	707.16667
2445.508	696.83333
2447.943	704.16667
2450.376	704.5
2452.808	709.83333
2455.238	697.83333
2457.667	723.16667
2460.093	697.5
2462.519	697.16667
2464.942	698.83333
2467.365	725.16667
2469.785	705.16667
2472.204	705.5
2474.621	701.5
2477.037	727.83333
2479.451	698.16667
2481.863	702.83333
2484.274	694.16667
2486.683	697.5
2489.091	715.16667
2491.497	715.5
2493.901	711.16667
2496.304	705.83333
2498.705	714.83333
2501.105	691.16667
2503.503	731.83333
2505.899	699.83333
2508.294	723.5
2510.687	701.83333
2513.079	697.5
2515.469	702.5
2517.858	703.16667
2520.245	713.5
2522.63	713.5
2525.014	712.16667
2527.396	699.16667
2529.776	714.83333
2532.156	703.16667
2534.533	703.83333
2536.909	705.5
2539.283	700.5
2541.656	714.5
2544.027	729.83333
2546.397	711.83333
2548.765	715.83333
2551.131	710.16667
2553.496	714.5
2555.86	704.83333
2558.221	724.5
2560.582	698.83333
2562.94	718.16667
2565.298	712.5
2567.653	739.83333
2570.007	715.83333
2572.36	730.83333
2574.711	713.16667
2577.06	743.16667
2579.408	720.16667
2581.754	733.5
2584.099	726.83333
2586.442	727.16667
2588.784	724.5
2591.124	733.5
2593.463	735.5
2595.8	717.5
2598.135	715.16667
2600.469	728.16667
2602.802	736.83333
2605.133	742.5
2607.462	726.83333
2609.79	724.5
2612.116	727.16667
2614.441	736.16667
2616.764	749.5
2619.086	737.16667
2621.406	728.16667
2623.725	760.83333
2626.042	753.5
2628.358	740.5
2630.672	743.16667
2632.985	779.83333
2635.296	763.16667
2637.606	757.83333
2639.914	743.83333
2642.22	747.83333
2644.525	749.83333
2646.829	772.5
2649.131	773.83333
2651.432	778.5
2653.731	764.83333
2656.028	776.16667
2658.324	772.83333
2660.619	759.5
2662.912	801.5
2665.204	770.16667
2667.494	783.5
2669.782	784.83333
2672.07	794.83333
2674.355	793.16667
2676.639	780.83333
2678.922	781.16667
2681.203	787.5
2683.483	771.5
2685.761	782.83333
2688.038	797.16667
2690.313	802.83333
2692.587	799.16667
2694.859	793.83333
2697.13	804.16667
2699.399	812.16667
2701.667	819.5
2703.933	817.5
2706.198	816.5
2708.461	828.83333
2710.723	842.5
2712.984	836.16667
2715.243	853.83333
2717.5	842.83333
2719.757	858.5
2722.011	848.5
2724.264	868.5
2726.516	869.5
2728.766	859.16667
2731.015	865.5
2733.262	870.83333
2735.508	856.83333
2737.753	852.83333
2739.996	862.83333
2742.237	848.83333
2744.477	862.5
2746.716	864.83333
2748.953	857.16667
2751.189	859.83333
2753.423	847.83333
2755.656	851.16667
2757.887	836.16667
2760.117	849.16667
2762.346	841.83333
2764.573	843.83333
2766.798	836.5
2769.022	845.83333
2771.245	851.16667
2773.467	851.5
2775.686	871.5
2777.905	868.83333
2780.122	876.16667
2782.337	879.16667
2784.552	877.5
2786.764	890.83333
2788.976	888.16667
2791.186	910.16667
2793.394	904.5
2795.601	924.5
2797.807	925.83333
2800.011	944.16667
2802.214	944.83333
2804.415	946.5
2806.615	939.16667
2808.814	970.83333
2811.011	970.5
2813.206	959.83333
2815.401	987.83333
2817.594	997.5
2819.785	1008.16667
2821.975	1000.83333
2824.164	1019.16667
2826.351	1030.5
2828.537	1055.5
2830.722	1068.5
2832.905	1071.5
2835.086	1107.16667
2837.267	1152.83333
2839.445	1180.5
2841.623	1189.16667
2843.799	1215.83333
2845.974	1268.5
2848.147	1290.83333
2850.319	1336.16667
2852.489	1370.16667
2854.659	1379.16667
2856.826	1395.83333
2858.993	1435.5
2861.158	1400.16667
2863.321	1409.83333
2865.483	1429.5
2867.644	1436.5
2869.804	1424.5
2871.962	1414.5
2874.118	1424.5
2876.274	1417.83333
2878.428	1411.5
2880.58	1406.5
2882.731	1391.5
2884.881	1407.16667
2887.03	1402.16667
2889.177	1395.5
2891.322	1409.16667
2893.467	1396.83333
2895.61	1419.16667
2897.751	1438.83333
2899.892	1422.83333
2902.03	1453.16667
2904.168	1443.83333
2906.304	1460.83333
2908.439	1469.16667
2910.572	1466.16667
2912.704	1490.16667
2914.835	1479.83333
2916.965	1462.16667
2919.093	1500.5
2921.219	1448.5
2923.345	1475.5
2925.469	1451.16667
2927.591	1434.5
2929.712	1395.5
2931.832	1394.83333
2933.951	1366.83333
2936.068	1346.83333
2938.184	1318.5
2940.299	1285.5
2942.412	1261.83333
2944.524	1251.16667
2946.634	1219.16667
2948.744	1154.5
2950.851	1190.83333
2952.958	1153.16667
2955.063	1143.16667
2957.167	1130.16667
2959.269	1089.5
2961.371	1124.5
2963.471	1071.5
2965.569	1083.83333
2967.666	1050.5
2969.762	1040.83333
2971.857	1028.83333
2973.95	1002.16667
2976.042	992.83333
2978.133	980.83333
2980.222	957.16667
2982.31	932.5
2984.396	918.16667
2986.482	925.5
2988.566	910.83333
2990.648	896.5
2992.73	898.83333
2994.81	880.16667
2996.889	899.83333
2998.966	893.5
3001.042	892.16667
3003.117	890.83333
3005.191	891.5
3007.263	875.83333
3009.334	867.83333
3011.403	867.5
3013.472	834.16667
3015.539	833.5
3017.604	832.16667
3019.669	801.5
3021.732	816.5
3023.794	818.83333
3025.854	812.83333
3027.914	803.5
3029.971	805.83333
3032.028	802.83333
3034.083	796.83333
3036.137	793.83333
3038.19	758.16667
3040.242	736.5
3042.292	737.16667
3044.341	714.16667
3046.388	731.83333
3048.435	695.5
3050.48	726.83333
3052.524	718.16667
3054.566	689.83333
3056.607	707.5
3058.647	680.16667
3060.686	654.5
3062.723	640.5
3064.759	634.5
3066.794	2.83333
3068.828	-2.16667
3070.86	-1.5
