-0.839	429.5
3.438	458.16667
7.711	126.83333
11.981	54.83333
16.247	49.16667
20.509	45.5
24.768	49.16667
29.024	48.83333
33.276	45.83333
37.524	51.83333
41.769	38.83333
46.01	38.83333
50.247	55.16667
54.481	63.16667
58.712	66.5
62.939	52.16667
67.162	62.16667
71.382	62.5
75.599	51.5
79.812	69.16667
84.021	84.5
88.227	60.16667
92.429	68.5
96.628	52.16667
100.823	74.16667
105.015	77.16667
109.204	80.5
113.388	80.83333
117.57	79.5
121.748	95.16667
125.922	81.16667
130.093	108.5
134.261	109.16667
138.425	108.5
142.585	145.83333
146.742	153.16667
150.896	179.5
155.046	223.16667
159.193	358.16667
163.336	611.16667
167.476	1124.5
171.613	2074.16667
175.746	3458.5
179.875	5179.5
184.002	6745.5
188.124	7808.16667
192.244	8169.83333
196.36	8093.83333
200.472	7862.5
204.581	7645.83333
208.687	7398.83333
212.79	7343.5
216.889	7384.5
220.984	7447.5
225.077	7540.16667
229.165	7613.16667
233.251	7685.83333
237.333	7735.5
241.412	7700.83333
245.487	7640.16667
249.559	7593.5
253.628	7526.16667
257.694	7477.83333
261.756	7452.5
265.814	7294.5
269.87	7125.83333
273.922	6954.83333
277.97	6925.16667
282.016	6926.16667
286.058	6915.5
290.097	7081.5
294.132	7131.5
298.164	7047.16667
302.193	6678.83333
306.219	6173.16667
310.241	5627.16667
314.26	5103.5
318.276	4668.83333
322.288	4350.16667
326.297	4100.5
330.303	3881.83333
334.305	3719.83333
338.305	3634.5
342.301	3572.83333
346.294	3517.5
350.283	3469.16667
354.269	3450.83333
358.252	3421.16667
362.232	3399.16667
366.209	3367.83333
370.182	3316.83333
374.152	3315.83333
378.119	3298.5
382.083	3305.5
386.043	3304.16667
390	3245.5
393.954	3248.83333
397.905	3192.16667
401.852	3174.83333
405.797	3143.83333
409.738	3118.83333
413.676	3078.5
417.61	3097.16667
421.542	3045.16667
425.47	3029.16667
429.396	2990.83333
433.318	2986.5
437.236	2954.83333
441.152	2975.5
445.065	2905.83333
448.974	2931.83333
452.88	2873.83333
456.783	2889.16667
460.683	2824.5
464.58	2872.16667
468.473	2865.83333
472.364	2878.83333
476.251	2881.5
480.135	2885.5
484.016	2927.16667
487.894	2940.16667
491.769	2952.5
495.641	2965.16667
499.509	2950.16667
503.375	2951.16667
507.237	2936.83333
511.096	2916.16667
514.952	2915.83333
518.805	2926.16667
522.655	2949.5
526.502	2916.16667
530.346	2909.83333
534.187	2921.16667
538.024	2929.5
541.859	2959.16667
545.69	2991.5
549.519	2941.16667
553.344	2917.16667
557.166	2872.83333
560.985	2850.5
564.802	2816.83333
568.615	2752.5
572.425	2723.83333
576.232	2724.16667
580.036	2710.5
583.836	2712.5
587.634	2716.16667
591.429	2716.16667
595.221	2769.5
599.01	2791.16667
602.796	2849.16667
606.578	2851.83333
610.358	2857.83333
614.135	2832.16667
617.909	2828.16667
621.679	2823.83333
625.447	2801.16667
629.212	2808.83333
632.973	2815.16667
636.732	2827.5
640.488	2816.5
644.241	2771.16667
647.991	2802.83333
651.737	2792.83333
655.481	2742.16667
659.222	2728.5
662.96	2756.5
666.695	2769.83333
670.427	2796.83333
674.156	2793.83333
677.882	2800.16667
681.605	2818.16667
685.325	2772.5
689.043	2775.16667
692.757	2753.5
696.468	2768.16667
700.177	2779.16667
703.882	2764.83333
707.585	2767.5
711.284	2790.5
714.981	2770.83333
718.675	2799.5
722.366	2779.16667
726.054	2798.16667
729.739	2799.83333
733.421	2793.16667
737.1	2784.5
740.777	2811.16667
744.45	2825.83333
748.121	2850.83333
751.789	2892.5
755.453	2905.5
759.115	2935.16667
762.774	2933.5
766.431	2983.83333
770.084	3003.83333
773.734	3055.83333
777.382	3092.5
781.027	3121.83333
784.669	3153.83333
788.308	3172.5
791.944	3196.83333
795.577	3219.16667
799.208	3214.5
802.835	3258.83333
806.46	3307.5
810.082	3305.16667
813.701	3297.16667
817.317	3362.16667
820.931	3331.5
824.542	3347.16667
828.149	3314.16667
831.754	3297.83333
835.357	3266.16667
838.956	3263.83333
842.553	3257.16667
846.146	3242.83333
849.737	3252.16667
853.326	3251.16667
856.911	3267.83333
860.493	3315.5
864.073	3344.5
867.65	3404.83333
871.225	3411.83333
874.796	3449.5
878.365	3450.83333
881.931	3464.83333
885.494	3479.16667
889.054	3487.83333
892.612	3508.5
896.166	3444.16667
899.719	3424.16667
903.268	3393.16667
906.814	3369.5
910.358	3359.83333
913.899	3322.16667
917.438	3364.16667
920.973	3357.5
924.506	3387.16667
928.036	3413.83333
931.564	3457.5
935.088	3490.16667
938.61	3482.16667
942.129	3538.16667
945.646	3607.5
949.16	3746.16667
952.671	3752.16667
956.179	3828.16667
959.685	3776.5
963.188	3723.16667
966.688	3642.5
970.185	3564.83333
973.68	3502.5
977.173	3469.83333
980.662	3429.83333
984.149	3462.16667
987.633	3434.83333
991.114	3526.5
994.593	3630.5
998.069	3749.5
1001.542	3848.83333
1005.013	3767.83333
1008.481	3569.83333
1011.947	3516.16667
1015.409	3506.83333
1018.869	3521.5
1022.327	3528.83333
1025.782	3479.83333
1029.234	3476.5
1032.683	3437.16667
1036.13	3337.5
1039.574	3195.16667
1043.016	3128.16667
1046.455	3085.83333
1049.891	3022.83333
1053.325	3032.5
1056.756	3064.83333
1060.184	3083.5
1063.61	3094.16667
1067.033	3108.16667
1070.454	3133.83333
1073.872	3140.16667
1077.287	3172.83333
1080.7	3146.16667
1084.11	3174.83333
1087.517	3149.5
1090.922	3113.16667
1094.325	3052.5
1097.724	3062.83333
1101.122	3031.16667
1104.516	3029.83333
1107.908	3038.83333
1111.298	3090.5
1114.684	3129.5
1118.069	3165.16667
1121.45	3186.5
1124.83	3205.5
1128.206	3231.5
1131.58	3283.5
1134.951	3382.5
1138.32	3473.16667
1141.687	3599.5
1145.05	3698.83333
1148.412	3742.16667
1151.77	3697.16667
1155.126	3711.16667
1158.48	3715.5
1161.831	3739.83333
1165.18	3782.5
1168.525	3835.83333
1171.869	3870.16667
1175.21	3876.83333
1178.548	3937.83333
1181.884	3952.83333
1185.217	3977.5
1188.548	4051.16667
1191.877	4110.5
1195.202	4201.83333
1198.526	4275.5
1201.846	4280.5
1205.165	4296.83333
1208.48	4258.5
1211.794	4267.16667
1215.104	4278.5
1218.413	4265.83333
1221.719	4267.5
1225.022	4232.16667
1228.323	4158.83333
1231.621	4207.16667
1234.917	4190.83333
1238.21	4241.5
1241.501	4228.83333
1244.79	4206.16667
1248.076	4166.16667
1251.359	4254.5
1254.64	4325.5
1257.919	4312.83333
1261.195	4413.5
1264.468	4488.16667
1267.74	4540.83333
1271.008	4568.5
1274.275	4520.83333
1277.538	4504.5
1280.8	4517.16667
1284.059	4489.16667
1287.315	4553.5
1290.569	4571.16667
1293.821	4604.5
1297.07	4592.5
1300.317	4589.5
1303.562	4581.5
1306.803	4538.16667
1310.043	4483.83333
1313.28	4453.83333
1316.515	4406.16667
1319.747	4339.5
1322.977	4267.83333
1326.204	4208.83333
1329.429	4155.16667
1332.652	4120.16667
1335.872	4119.5
1339.09	4098.16667
1342.306	4084.83333
1345.519	4060.83333
1348.729	4007.83333
1351.938	4005.83333
1355.144	3952.16667
1358.347	3937.83333
1361.548	3885.83333
1364.747	3951.5
1367.944	3914.16667
1371.138	3960.5
1374.329	3971.5
1377.518	4038.83333
1380.705	4068.16667
1383.89	4066.16667
1387.072	3932.16667
1390.252	3799.5
1393.429	3648.5
1396.605	3563.83333
1399.777	3449.16667
1402.948	3421.5
1406.116	3398.5
1409.282	3433.5
1412.445	3420.16667
1415.606	3446.5
1418.765	3528.83333
1421.921	3586.83333
1425.075	3678.5
1428.227	3812.5
1431.376	3947.5
1434.524	4094.16667
1437.668	4174.16667
1440.811	4209.5
1443.951	4231.5
1447.089	4236.16667
1450.224	4241.16667
1453.357	4203.5
1456.488	4193.5
1459.617	4129.16667
1462.743	4062.16667
1465.867	3972.83333
1468.989	3934.16667
1472.108	3846.83333
1475.225	3787.16667
1478.34	3771.83333
1481.453	3733.16667
1484.563	3772.16667
1487.671	3797.5
1490.776	3865.5
1493.88	3934.83333
1496.981	4027.83333
1500.08	4102.16667
1503.176	4189.16667
1506.271	4239.5
1509.363	4281.16667
1512.452	4375.5
1515.54	4441.5
1518.625	4556.83333
1521.708	4720.16667
1524.789	4915.16667
1527.867	5160.83333
1530.944	5511.83333
1534.018	5741.16667
1537.089	5976.83333
1540.159	5959.5
1543.226	5838.16667
1546.291	5676.83333
1549.354	5526.5
1552.415	5355.16667
1555.473	5225.5
1558.529	5104.83333
1561.583	5031.16667
1564.634	4990.83333
1567.684	4970.83333
1570.731	4955.16667
1573.776	4985.83333
1576.819	5011.83333
1579.859	5056.16667
1582.898	5098.83333
1585.934	5129.83333
1588.968	5134.5
1591.999	5134.83333
1595.029	5143.83333
1598.056	5151.5
1601.081	5180.5
1604.104	5133.16667
1607.125	5100.83333
1610.144	5007.16667
1613.16	4865.16667
1616.174	4771.16667
1619.186	4658.16667
1622.196	4534.16667
1625.203	4369.83333
1628.209	4301.16667
1631.212	4255.83333
1634.213	4210.5
1637.212	4189.83333
1640.209	4082.5
1643.203	3963.83333
1646.196	3859.16667
1649.186	3717.5
1652.174	3624.83333
1655.16	3512.5
1658.144	3421.83333
1661.125	3253.5
1664.105	3100.5
1667.082	2954.16667
1670.057	2797.83333
1673.03	2627.5
1676.001	2468.5
1678.97	2337.16667
1681.937	2208.5
1684.901	2072.5
1687.863	2003.5
1690.824	1949.16667
1693.782	1909.16667
1696.738	1813.5
1699.692	1794.5
1702.643	1756.5
1705.593	1724.5
1708.54	1703.5
1711.486	1685.5
1714.429	1670.5
1717.37	1634.16667
1720.309	1611.5
1723.246	1622.83333
1726.181	1579.5
1729.113	1591.83333
1732.044	1562.16667
1734.972	1554.5
1737.899	1545.83333
1740.823	1527.83333
1743.745	1550.83333
1746.665	1473.83333
1749.583	1452.16667
1752.499	1435.16667
1755.413	1415.5
1758.325	1382.5
1761.235	1381.16667
1764.142	1358.83333
1767.048	1327.83333
1769.951	1317.5
1772.852	1326.16667
1775.752	1315.5
1778.649	1316.83333
1781.544	1306.5
1784.437	1289.83333
1787.328	1286.5
1790.217	1272.83333
1793.104	1249.16667
1795.989	1255.16667
1798.872	1235.16667
1801.753	1270.5
1804.631	1262.16667
1807.508	1262.83333
1810.383	1236.16667
1813.255	1231.83333
1816.126	1225.5
1818.994	1233.83333
1821.861	1223.83333
1824.725	1209.16667
1827.587	1217.5
1830.448	1209.5
1833.306	1173.83333
1836.162	1182.16667
1839.017	1177.16667
1841.869	1180.5
1844.719	1175.16667
1847.567	1161.16667
1850.414	1157.5
1853.258	1150.83333
1856.1	1158.5
1858.94	1174.83333
1861.778	1167.16667
1864.614	1147.16667
1867.448	1153.16667
1870.28	1148.16667
1873.111	1164.83333
1875.939	1152.16667
1878.765	1160.16667
1881.589	1139.5
1884.411	1144.83333
1887.231	1150.83333
1890.049	1132.83333
1892.865	1136.83333
1895.68	1109.16667
1898.492	1109.16667
1901.302	1107.16667
1904.11	1111.83333
1906.916	1100.83333
1909.721	1093.83333
1912.523	1105.5
1915.323	1081.16667
1918.122	1080.83333
1920.918	1090.83333
1923.712	1083.5
1926.505	1085.16667
1929.295	1070.16667
1932.084	1076.83333
1934.87	1079.83333
1937.655	1081.5
1940.438	1063.5
1943.218	1068.83333
1945.997	1076.83333
1948.774	1082.5
1951.549	1063.83333
1954.322	1060.16667
1957.093	1064.16667
1959.862	1045.83333
1962.629	1054.83333
1965.394	1057.5
1968.157	1037.83333
1970.918	1043.83333
1973.678	1032.83333
1976.435	1035.16667
1979.19	1023.83333
1981.944	1020.83333
1984.696	1019.83333
1987.445	1006.5
1990.193	1018.16667
1992.939	1032.16667
1995.683	1020.5
1998.425	992.83333
2001.165	1020.16667
2003.903	1008.16667
2006.639	1005.83333
2009.374	995.83333
2012.106	1006.5
2014.837	979.16667
2017.566	991.83333
2020.292	1002.5
2023.017	1002.83333
2025.74	990.83333
2028.461	972.16667
2031.18	980.83333
2033.898	970.16667
2036.613	984.16667
2039.327	971.83333
2042.038	970.16667
2044.748	980.83333
2047.456	958.5
2050.162	955.16667
2052.866	958.83333
2055.568	964.16667
2058.268	959.5
2060.967	958.16667
2063.663	942.5
2066.358	960.5
2069.051	948.16667
2071.742	953.16667
2074.431	955.5
2077.118	950.83333
2079.804	947.83333
2082.487	948.5
2085.169	962.83333
2087.849	972.5
2090.527	959.5
2093.203	970.83333
2095.877	984.83333
2098.55	986.16667
2101.22	1000.16667
2103.889	1020.5
2106.556	1026.5
2109.221	1068.83333
2111.884	1107.83333
2114.546	1189.16667
2117.205	1277.83333
2119.863	1390.83333
2122.519	1506.5
2125.173	1619.5
2127.825	1692.83333
2130.475	1695.83333
2133.124	1664.5
2135.771	1571.16667
2138.416	1510.5
2141.059	1414.5
2143.7	1327.5
2146.339	1246.5
2148.977	1179.5
2151.613	1157.83333
2154.247	1106.16667
2156.879	1068.5
2159.51	1068.83333
2162.138	1040.83333
2164.765	1021.83333
2167.39	1001.83333
2170.013	1015.83333
2172.634	1004.5
2175.254	988.16667
2177.872	1000.5
2180.488	960.16667
2183.102	968.16667
2185.714	950.83333
2188.325	924.83333
2190.934	927.16667
2193.541	921.83333
2196.146	898.16667
2198.75	887.16667
2201.351	891.16667
2203.951	869.83333
2206.549	884.16667
2209.146	876.5
2211.74	860.5
2214.333	871.16667
2216.924	837.83333
2219.514	852.5
2222.101	840.16667
2224.687	859.5
2227.271	819.16667
2229.853	820.16667
2232.433	818.5
2235.012	851.16667
2237.589	827.83333
2240.164	833.83333
2242.738	822.5
2245.309	800.5
2247.879	811.16667
2250.448	805.5
2253.014	781.5
2255.579	766.5
2258.142	770.16667
2260.703	750.5
2263.262	762.5
2265.82	759.83333
2268.376	764.5
2270.93	744.83333
2273.483	740.83333
2276.033	744.5
2278.583	733.5
2281.13	731.83333
2283.675	726.5
2286.219	727.83333
2288.761	730.5
2291.302	731.16667
2293.841	730.16667
2296.377	709.83333
2298.913	717.83333
2301.446	714.5
2303.978	712.83333
2306.508	698.16667
2309.037	707.83333
2311.563	703.83333
2314.088	697.16667
2316.612	689.16667
2319.133	702.83333
2321.653	693.83333
2324.171	684.83333
2326.688	695.16667
2329.202	680.16667
2331.715	692.5
2334.227	677.83333
2336.736	675.16667
2339.244	682.16667
2341.751	666.83333
2344.255	677.5
2346.758	657.5
2349.259	654.83333
2351.759	661.16667
2354.257	651.5
2356.753	655.16667
2359.247	654.5
2361.74	665.16667
2364.231	662.16667
2366.721	649.5
2369.209	645.5
2371.695	644.16667
2374.179	634.5
2376.662	646.16667
2379.143	656.5
2381.622	643.83333
2384.1	634.16667
2386.576	641.83333
2389.051	647.5
2391.524	640.5
2393.995	651.16667
2396.464	626.5
2398.932	620.5
2401.398	633.83333
2403.863	618.83333
2406.325	626.83333
2408.787	628.16667
2411.246	623.83333
2413.704	622.5
2416.16	615.83333
2418.615	619.16667
2421.068	623.83333
2423.519	617.83333
2425.969	610.83333
2428.417	614.83333
2430.863	624.16667
2433.308	622.16667
2435.751	614.16667
2438.193	607.83333
2440.633	619.16667
2443.071	609.16667
2445.508	596.16667
2447.943	594.16667
2450.376	595.16667
2452.808	592.16667
2455.238	593.16667
2457.667	622.16667
2460.093	592.83333
2462.519	587.16667
2464.942	574.5
2467.365	600.83333
2469.785	596.83333
2472.204	588.83333
2474.621	581.16667
2477.037	593.16667
2479.451	567.83333
2481.863	557.83333
2484.274	571.16667
2486.683	571.83333
2489.091	577.16667
2491.497	584.5
2493.901	575.5
2496.304	572.16667
2498.705	581.83333
2501.105	558.5
2503.503	602.16667
2505.899	560.83333
2508.294	576.16667
2510.687	551.83333
2513.079	558.16667
2515.469	552.5
2517.858	552.16667
2520.245	572.16667
2522.63	554.5
2525.014	544.83333
2527.396	540.16667
2529.776	543.83333
2532.156	558.5
2534.533	533.83333
2536.909	547.16667
2539.283	534.16667
2541.656	541.5
2544.027	546.83333
2546.397	535.5
2548.765	528.5
2551.131	535.5
2553.496	536.5
2555.86	541.5
2558.221	538.5
2560.582	542.83333
2562.94	519.83333
2565.298	530.83333
2567.653	545.5
2570.007	520.16667
2572.36	535.83333
2574.711	520.16667
2577.06	545.83333
2579.408	533.5
2581.754	533.16667
2584.099	530.5
2586.442	519.83333
2588.784	529.5
2591.124	532.83333
2593.463	520.5
2595.8	524.16667
2598.135	511.5
2600.469	527.83333
2602.802	528.16667
2605.133	526.5
2607.462	519.5
2609.79	511.16667
2612.116	517.83333
2614.441	512.16667
2616.764	520.83333
2619.086	510.16667
2621.406	518.83333
2623.725	525.16667
2626.042	525.5
2628.358	506.16667
2630.672	509.5
2632.985	529.5
2635.296	529.16667
2637.606	532.16667
2639.914	509.5
2642.22	521.5
2644.525	518.5
2646.829	514.5
2649.131	530.16667
2651.432	542.5
2653.731	516.83333
2656.028	541.5
2658.324	535.5
2660.619	525.16667
2662.912	526.83333
2665.204	518.16667
2667.494	536.83333
2669.782	524.16667
2672.07	520.83333
2674.355	541.83333
2676.639	525.83333
2678.922	515.16667
2681.203	539.16667
2683.483	520.16667
2685.761	521.83333
2688.038	538.83333
2690.313	550.16667
2692.587	530.5
2694.859	532.16667
2697.13	541.5
2699.399	533.16667
2701.667	546.83333
2703.933	544.16667
2706.198	555.16667
2708.461	558.16667
2710.723	567.16667
2712.984	553.83333
2715.243	565.5
2717.5	565.16667
2719.757	578.83333
2722.011	566.5
2724.264	581.16667
2726.516	588.83333
2728.766	575.83333
2731.015	585.83333
2733.262	569.5
2735.508	573.83333
2737.753	578.5
2739.996	547.16667
2742.237	546.83333
2744.477	562.5
2746.716	560.83333
2748.953	560.16667
2751.189	551.16667
2753.423	542.5
2755.656	544.83333
2757.887	529.5
2760.117	542.16667
2762.346	535.83333
2764.573	534.16667
2766.798	533.83333
2769.022	549.83333
2771.245	531.83333
2773.467	547.5
2775.686	545.16667
2777.905	556.16667
2780.122	559.5
2782.337	570.5
2784.552	562.16667
2786.764	573.83333
2788.976	590.16667
2791.186	595.83333
2793.394	585.83333
2795.601	608.16667
2797.807	609.83333
2800.011	629.5
2802.214	634.16667
2804.415	645.16667
2806.615	652.83333
2808.814	662.83333
2811.011	666.83333
2813.206	673.83333
2815.401	699.5
2817.594	704.16667
2819.785	713.16667
2821.975	711.16667
2824.164	743.5
2826.351	752.83333
2828.537	774.83333
2830.722	784.5
2832.905	811.83333
2835.086	834.83333
2837.267	871.16667
2839.445	911.83333
2841.623	934.83333
2843.799	987.83333
2845.974	1029.5
2848.147	1068.5
2850.319	1101.5
2852.489	1143.83333
2854.659	1147.83333
2856.826	1164.5
2858.993	1194.16667
2861.158	1187.16667
2863.321	1177.83333
2865.483	1189.83333
2867.644	1203.5
2869.804	1188.5
2871.962	1191.5
2874.118	1182.16667
2876.274	1179.83333
2878.428	1169.83333
2880.58	1167.16667
2882.731	1153.5
2884.881	1148.16667
2887.03	1159.83333
2889.177	1164.5
2891.322	1192.83333
2893.467	1169.5
2895.61	1175.16667
2897.751	1203.83333
2899.892	1187.83333
2902.03	1197.16667
2904.168	1208.16667
2906.304	1202.5
2908.439	1235.16667
2910.572	1190.5
2912.704	1216.16667
2914.835	1236.5
2916.965	1194.5
2919.093	1228.83333
2921.219	1185.5
2923.345	1210.83333
2925.469	1180.83333
2927.591	1147.16667
2929.712	1118.5
2931.832	1103.83333
2933.951	1071.16667
2936.068	1045.5
2938.184	1017.16667
2940.299	978.83333
2942.412	950.5
2944.524	904.5
2946.634	889.83333
2948.744	814.5
2950.851	842.5
2952.958	776.83333
2955.063	772.83333
2957.167	753.16667
2959.269	709.83333
2961.371	719.83333
2963.471	677.16667
2965.569	680.83333
2967.666	635.83333
2969.762	617.5
2971.857	594.5
2973.95	576.5
2976.042	575.5
2978.133	546.5
2980.222	528.83333
2982.31	508.83333
2984.396	488.83333
2986.482	489.83333
2988.566	493.83333
2990.648	465.83333
2992.73	466.83333
2994.81	446.5
2996.889	456.83333
2998.966	444.5
3001.042	448.83333
3003.117	428.83333
3005.191	427.5
3007.263	419.16667
3009.334	411.5
3011.403	406.83333
3013.472	386.83333
3015.539	391.83333
3017.604	403.83333
3019.669	363.5
3021.732	375.83333
3023.794	372.16667
3025.854	358.16667
3027.914	357.5
3029.971	360.16667
3032.028	354.5
3034.083	356.5
3036.137	354.83333
3038.19	332.16667
3040.242	320.5
3042.292	323.83333
3044.341	314.83333
3046.388	333.16667
3048.435	300.5
3050.48	315.16667
3052.524	312.16667
3054.566	291.83333
3056.607	302.5
3058.647	304.83333
3060.686	283.5
3062.723	269.5
3064.759	265.83333
3066.794	0.16667
3068.828	-1.16667
3070.86	-2.16667
