-0.839	350.41667
3.438	384.75
7.711	110.75
11.981	53.41667
16.247	48.08333
20.509	44.08333
24.768	43.41667
29.024	43.41667
33.276	42.41667
37.524	51.75
41.769	40.08333
46.01	37.41667
50.247	54.41667
54.481	61.75
58.712	66.75
62.939	49.08333
67.162	64.75
71.382	56.75
75.599	48.75
79.812	64.08333
84.021	83.08333
88.227	59.41667
92.429	65.41667
96.628	50.75
100.823	69.08333
105.015	73.08333
109.204	77.75
113.388	81.41667
117.57	72.75
121.748	93.75
125.922	80.75
130.093	103.75
134.261	105.41667
138.425	99.08333
142.585	141.75
146.742	146.08333
150.896	171.75
155.046	200.41667
159.193	335.08333
163.336	561.41667
167.476	1012.41667
171.613	1872.75
175.746	3168.08333
179.875	4687.41667
184.002	6166.75
188.124	7139.08333
192.244	7479.41667
196.36	7401.08333
200.472	7214.75
204.581	7049.75
208.687	6887.08333
212.79	6894.08333
216.889	6915.08333
220.984	6967.41667
225.077	7072.75
229.165	7171.41667
233.251	7251.08333
237.333	7231.41667
241.412	7219.41667
245.487	7181.08333
249.559	7088.08333
253.628	7069.41667
257.694	7027.75
261.756	6916.08333
265.814	6811.08333
269.87	6624.75
273.922	6527.41667
277.97	6437.08333
282.016	6435.75
286.058	6472.75
290.097	6592.08333
294.132	6624.41667
298.164	6536.41667
302.193	6194.08333
306.219	5722.08333
310.241	5187.75
314.26	4741.75
318.276	4326.75
322.288	4046.75
326.297	3787.41667
330.303	3593.08333
334.305	3524.08333
338.305	3437.08333
342.301	3360.08333
346.294	3316.08333
350.283	3279.41667
354.269	3247.08333
358.252	3230.41667
362.232	3217.41667
366.209	3199.08333
370.182	3180.08333
374.152	3129.41667
378.119	3113.75
382.083	3111.41667
386.043	3141.08333
390	3057.08333
393.954	3053.75
397.905	3017.75
401.852	3010.08333
405.797	2982.75
409.738	2937.08333
413.676	2926.75
417.61	2910.75
421.542	2856.08333
425.47	2848.41667
429.396	2838.08333
433.318	2788.75
437.236	2798.08333
441.152	2799.08333
445.065	2750.08333
448.974	2760.75
452.88	2711.75
456.783	2730.75
460.683	2685.75
464.58	2702.41667
468.473	2695.75
472.364	2701.41667
476.251	2737.75
480.135	2732.75
484.016	2764.08333
487.894	2778.75
491.769	2787.08333
495.641	2801.75
499.509	2795.75
503.375	2774.41667
507.237	2791.75
511.096	2735.41667
514.952	2765.08333
518.805	2762.75
522.655	2761.41667
526.502	2725.75
530.346	2732.08333
534.187	2767.08333
538.024	2759.08333
541.859	2761.08333
545.69	2781.75
549.519	2740.08333
553.344	2730.75
557.166	2694.41667
560.985	2668.41667
564.802	2612.75
568.615	2606.41667
572.425	2546.41667
576.232	2534.41667
580.036	2547.75
583.836	2558.41667
587.634	2552.41667
591.429	2558.41667
595.221	2614.08333
599.01	2614.75
602.796	2691.08333
606.578	2698.75
610.358	2680.41667
614.135	2661.75
617.909	2692.41667
621.679	2662.41667
625.447	2630.41667
629.212	2653.08333
632.973	2642.41667
636.732	2653.41667
640.488	2642.41667
644.241	2607.41667
647.991	2613.75
651.737	2613.41667
655.481	2557.08333
659.222	2566.75
662.96	2582.08333
666.695	2568.08333
670.427	2607.75
674.156	2618.75
677.882	2613.08333
681.605	2620.41667
685.325	2604.41667
689.043	2590.75
692.757	2607.41667
696.468	2612.75
700.177	2617.41667
703.882	2595.41667
707.585	2633.08333
711.284	2610.08333
714.981	2619.75
718.675	2638.08333
722.366	2649.75
726.054	2615.41667
729.739	2637.41667
733.421	2642.41667
737.1	2648.75
740.777	2658.08333
744.45	2680.75
748.121	2683.08333
751.789	2750.75
755.453	2727.41667
759.115	2745.41667
762.774	2769.41667
766.431	2827.08333
770.084	2830.75
773.734	2866.41667
777.382	2924.41667
781.027	2962.41667
784.669	2954.08333
788.308	3000.75
791.944	3024.41667
795.577	3034.75
799.208	3069.41667
802.835	3067.41667
806.46	3084.08333
810.082	3106.75
813.701	3103.41667
817.317	3150.41667
820.931	3126.41667
824.542	3136.08333
828.149	3105.08333
831.754	3098.08333
835.357	3100.41667
838.956	3098.41667
842.553	3074.75
846.146	3070.08333
849.737	3072.41667
853.326	3097.41667
856.911	3102.75
860.493	3149.08333
864.073	3150.41667
867.65	3220.08333
871.225	3235.08333
874.796	3228.75
878.365	3250.41667
881.931	3295.75
885.494	3303.41667
889.054	3324.75
892.612	3300.08333
896.166	3283.41667
899.719	3243.41667
903.268	3186.41667
906.814	3196.08333
910.358	3184.41667
913.899	3161.08333
917.438	3181.08333
920.973	3171.08333
924.506	3198.41667
928.036	3221.08333
931.564	3261.41667
935.088	3274.75
938.61	3267.75
942.129	3353.08333
945.646	3404.41667
949.16	3492.41667
952.671	3548.75
956.179	3569.41667
959.685	3510.41667
963.188	3489.08333
966.688	3430.08333
970.185	3345.75
973.68	3292.41667
977.173	3304.41667
980.662	3282.08333
984.149	3299.41667
987.633	3282.75
991.114	3380.75
994.593	3486.75
998.069	3592.08333
1001.542	3682.75
1005.013	3604.75
1008.481	3394.41667
1011.947	3330.08333
1015.409	3329.75
1018.869	3315.08333
1022.327	3309.41667
1025.782	3291.75
1029.234	3301.41667
1032.683	3274.41667
1036.13	3162.41667
1039.574	3040.75
1043.016	2957.75
1046.455	2918.08333
1049.891	2875.41667
1053.325	2882.08333
1056.756	2868.08333
1060.184	2896.75
1063.61	2922.08333
1067.033	2939.41667
1070.454	2917.41667
1073.872	2975.41667
1077.287	2964.08333
1080.7	2971.41667
1084.11	2942.75
1087.517	2969.75
1090.922	2928.41667
1094.325	2892.41667
1097.724	2846.75
1101.122	2864.41667
1104.516	2866.08333
1107.908	2871.41667
1111.298	2921.41667
1114.684	2954.08333
1118.069	2963.08333
1121.45	3001.08333
1124.83	2989.08333
1128.206	3025.75
1131.58	3058.75
1134.951	3146.08333
1138.32	3235.08333
1141.687	3371.41667
1145.05	3464.08333
1148.412	3481.75
1151.77	3446.41667
1155.126	3453.41667
1158.48	3451.41667
1161.831	3467.41667
1165.18	3515.75
1168.525	3562.75
1171.869	3613.41667
1175.21	3650.08333
1178.548	3695.75
1181.884	3719.41667
1185.217	3727.75
1188.548	3781.75
1191.877	3872.41667
1195.202	3935.08333
1198.526	4011.08333
1201.846	4006.41667
1205.165	3995.41667
1208.48	3964.41667
1211.794	3929.75
1215.104	3968.41667
1218.413	3975.41667
1221.719	3959.75
1225.022	3952.75
1228.323	3918.41667
1231.621	3908.41667
1234.917	3895.08333
1238.21	3929.08333
1241.501	3944.08333
1244.79	3929.41667
1248.076	3967.41667
1251.359	3995.75
1254.64	4059.08333
1257.919	4073.75
1261.195	4122.75
1264.468	4209.08333
1267.74	4269.41667
1271.008	4248.75
1274.275	4251.08333
1277.538	4197.08333
1280.8	4173.41667
1284.059	4209.08333
1287.315	4221.08333
1290.569	4254.75
1293.821	4270.08333
1297.07	4284.08333
1300.317	4287.41667
1303.562	4276.75
1306.803	4222.08333
1310.043	4172.75
1313.28	4099.41667
1316.515	4054.08333
1319.747	4004.08333
1322.977	3947.75
1326.204	3902.41667
1329.429	3860.75
1332.652	3847.75
1335.872	3805.41667
1339.09	3769.41667
1342.306	3805.08333
1345.519	3792.41667
1348.729	3765.08333
1351.938	3753.41667
1355.144	3690.41667
1358.347	3654.41667
1361.548	3674.08333
1364.747	3696.75
1367.944	3640.41667
1371.138	3669.08333
1374.329	3734.41667
1377.518	3773.08333
1380.705	3783.08333
1383.89	3722.08333
1387.072	3657.41667
1390.252	3519.08333
1393.429	3431.75
1396.605	3325.75
1399.777	3247.08333
1402.948	3184.41667
1406.116	3168.75
1409.282	3167.08333
1412.445	3198.75
1415.606	3254.75
1418.765	3276.75
1421.921	3347.75
1425.075	3468.08333
1428.227	3568.41667
1431.376	3716.41667
1434.524	3791.41667
1437.668	3881.41667
1440.811	3926.41667
1443.951	3905.41667
1447.089	3918.75
1450.224	3943.75
1453.357	3900.41667
1456.488	3881.08333
1459.617	3826.08333
1462.743	3757.08333
1465.867	3677.41667
1468.989	3641.41667
1472.108	3557.75
1475.225	3496.08333
1478.34	3469.75
1481.453	3459.41667
1484.563	3479.41667
1487.671	3495.75
1490.776	3577.75
1493.88	3663.08333
1496.981	3727.08333
1500.08	3807.08333
1503.176	3841.08333
1506.271	3933.08333
1509.363	3971.41667
1512.452	4028.75
1515.54	4111.08333
1518.625	4181.41667
1521.708	4319.75
1524.789	4517.08333
1527.867	4789.75
1530.944	5129.08333
1534.018	5364.41667
1537.089	5568.41667
1540.159	5583.41667
1543.226	5461.08333
1546.291	5316.08333
1549.354	5112.75
1552.415	4959.75
1555.473	4776.41667
1558.529	4704.41667
1561.583	4629.75
1564.634	4608.08333
1567.684	4548.41667
1570.731	4572.41667
1573.776	4558.41667
1576.819	4589.75
1579.859	4624.08333
1582.898	4668.75
1585.934	4665.75
1588.968	4713.75
1591.999	4718.41667
1595.029	4698.75
1598.056	4714.08333
1601.081	4738.41667
1604.104	4730.08333
1607.125	4660.08333
1610.144	4536.75
1613.16	4446.08333
1616.174	4343.75
1619.186	4192.08333
1622.196	4116.08333
1625.203	4007.08333
1628.209	3925.75
1631.212	3872.75
1634.213	3835.41667
1637.212	3785.75
1640.209	3698.41667
1643.203	3629.75
1646.196	3548.08333
1649.186	3440.41667
1652.174	3341.75
1655.16	3240.41667
1658.144	3148.08333
1661.125	2999.41667
1664.105	2862.08333
1667.082	2785.08333
1670.057	2599.08333
1673.03	2455.75
1676.001	2318.75
1678.97	2175.75
1681.937	2057.41667
1684.901	1942.08333
1687.863	1892.41667
1690.824	1811.75
1693.782	1795.41667
1696.738	1717.75
1699.692	1689.08333
1702.643	1648.08333
1705.593	1621.75
1708.54	1610.41667
1711.486	1600.41667
1714.429	1558.75
1717.37	1550.08333
1720.309	1509.41667
1723.246	1518.08333
1726.181	1471.75
1729.113	1504.08333
1732.044	1468.75
1734.972	1462.08333
1737.899	1459.41667
1740.823	1453.08333
1743.745	1446.75
1746.665	1397.08333
1749.583	1383.08333
1752.499	1359.41667
1755.413	1344.75
1758.325	1314.08333
1761.235	1301.41667
1764.142	1275.08333
1767.048	1267.41667
1769.951	1267.41667
1772.852	1250.75
1775.752	1237.08333
1778.649	1244.75
1781.544	1238.41667
1784.437	1218.75
1787.328	1221.08333
1790.217	1202.41667
1793.104	1192.41667
1795.989	1189.08333
1798.872	1179.41667
1801.753	1194.75
1804.631	1183.75
1807.508	1199.41667
1810.383	1182.41667
1813.255	1177.75
1816.126	1170.75
1818.994	1159.75
1821.861	1171.08333
1824.725	1153.08333
1827.587	1150.08333
1830.448	1143.41667
1833.306	1122.08333
1836.162	1131.75
1839.017	1117.08333
1841.869	1105.75
1844.719	1115.75
1847.567	1099.08333
1850.414	1101.75
1853.258	1108.41667
1856.1	1101.41667
1858.94	1108.75
1861.778	1091.08333
1864.614	1086.75
1867.448	1099.75
1870.28	1084.75
1873.111	1110.41667
1875.939	1089.75
1878.765	1112.75
1881.589	1094.08333
1884.411	1087.75
1887.231	1094.08333
1890.049	1073.41667
1892.865	1074.75
1895.68	1061.41667
1898.492	1064.08333
1901.302	1044.08333
1904.11	1049.08333
1906.916	1057.08333
1909.721	1043.08333
1912.523	1041.75
1915.323	1040.08333
1918.122	1029.08333
1920.918	1042.08333
1923.712	1024.08333
1926.505	1030.41667
1929.295	1004.41667
1932.084	1026.08333
1934.87	1026.08333
1937.655	1020.08333
1940.438	1017.41667
1943.218	1014.08333
1945.997	1021.41667
1948.774	1035.75
1951.549	1030.41667
1954.322	1013.08333
1957.093	1016.75
1959.862	1006.41667
1962.629	991.41667
1965.394	994.08333
1968.157	988.41667
1970.918	985.41667
1973.678	996.08333
1976.435	994.75
1979.19	983.41667
1981.944	968.41667
1984.696	972.08333
1987.445	961.08333
1990.193	956.08333
1992.939	980.08333
1995.683	966.08333
1998.425	936.41667
2001.165	971.08333
2003.903	960.41667
2006.639	951.75
2009.374	955.41667
2012.106	951.08333
2014.837	932.41667
2017.566	950.41667
2020.292	946.41667
2023.017	955.41667
2025.74	939.08333
2028.461	923.08333
2031.18	944.41667
2033.898	917.08333
2036.613	935.41667
2039.327	956.41667
2042.038	918.41667
2044.748	934.41667
2047.456	918.41667
2050.162	917.08333
2052.866	906.41667
2055.568	917.08333
2058.268	924.41667
2060.967	914.08333
2063.663	894.75
2066.358	903.41667
2069.051	906.41667
2071.742	909.41667
2074.431	902.75
2077.118	895.41667
2079.804	900.08333
2082.487	914.41667
2085.169	928.08333
2087.849	928.75
2090.527	915.41667
2093.203	934.41667
2095.877	951.08333
2098.55	946.75
2101.22	973.41667
2103.889	987.41667
2106.556	1005.41667
2109.221	1070.41667
2111.884	1110.08333
2114.546	1213.41667
2117.205	1321.08333
2119.863	1450.75
2122.519	1577.08333
2125.173	1680.75
2127.825	1798.08333
2130.475	1789.41667
2133.124	1728.75
2135.771	1638.41667
2138.416	1553.75
2141.059	1437.08333
2143.7	1387.75
2146.339	1287.08333
2148.977	1204.41667
2151.613	1175.41667
2154.247	1123.75
2156.879	1085.41667
2159.51	1061.75
2162.138	1012.75
2164.765	1005.08333
2167.39	987.08333
2170.013	993.08333
2172.634	982.08333
2175.254	955.41667
2177.872	982.08333
2180.488	933.08333
2183.102	914.08333
2185.714	914.75
2188.325	902.08333
2190.934	888.75
2193.541	892.75
2196.146	882.41667
2198.75	861.75
2201.351	862.41667
2203.951	825.75
2206.549	846.41667
2209.146	827.41667
2211.74	826.75
2214.333	822.41667
2216.924	799.08333
2219.514	818.75
2222.101	792.08333
2224.687	812.75
2227.271	786.08333
2229.853	782.08333
2232.433	785.41667
2235.012	791.75
2237.589	788.41667
2240.164	790.41667
2242.738	775.75
2245.309	760.75
2247.879	770.08333
2250.448	770.41667
2253.014	742.75
2255.579	739.08333
2258.142	739.75
2260.703	725.08333
2263.262	723.75
2265.82	717.08333
2268.376	727.75
2270.93	700.75
2273.483	697.08333
2276.033	716.08333
2278.583	707.08333
2281.13	700.75
2283.675	681.08333
2286.219	687.08333
2288.761	685.41667
2291.302	687.08333
2293.841	693.41667
2296.377	663.08333
2298.913	676.75
2301.446	679.41667
2303.978	667.08333
2306.508	669.75
2309.037	668.08333
2311.563	670.75
2314.088	674.08333
2316.612	647.08333
2319.133	656.08333
2321.653	655.41667
2324.171	648.75
2326.688	661.41667
2329.202	647.08333
2331.715	650.75
2334.227	643.75
2336.736	635.41667
2339.244	638.75
2341.751	622.41667
2344.255	631.08333
2346.758	624.41667
2349.259	619.75
2351.759	629.41667
2354.257	618.75
2356.753	617.08333
2359.247	622.75
2361.74	636.75
2364.231	619.75
2366.721	623.08333
2369.209	601.41667
2371.695	615.75
2374.179	602.75
2376.662	604.08333
2379.143	625.41667
2381.622	607.75
2384.1	606.75
2386.576	601.41667
2389.051	616.08333
2391.524	612.08333
2393.995	613.08333
2396.464	595.08333
2398.932	594.75
2401.398	599.75
2403.863	599.08333
2406.325	584.41667
2408.787	583.75
2411.246	596.08333
2413.704	584.75
2416.16	576.08333
2418.615	582.41667
2421.068	593.41667
2423.519	579.41667
2425.969	571.41667
2428.417	586.75
2430.863	592.75
2433.308	592.75
2435.751	572.08333
2438.193	578.75
2440.633	583.41667
2443.071	582.41667
2445.508	566.75
2447.943	565.08333
2450.376	563.41667
2452.808	574.08333
2455.238	559.08333
2457.667	591.08333
2460.093	564.75
2462.519	548.75
2464.942	552.08333
2467.365	559.41667
2469.785	563.41667
2472.204	546.75
2474.621	550.08333
2477.037	563.08333
2479.451	541.41667
2481.863	534.41667
2484.274	540.41667
2486.683	542.08333
2489.091	555.75
2491.497	544.41667
2493.901	542.08333
2496.304	536.41667
2498.705	540.08333
2501.105	537.08333
2503.503	562.08333
2505.899	529.75
2508.294	563.75
2510.687	524.41667
2513.079	526.08333
2515.469	523.75
2517.858	516.41667
2520.245	540.08333
2522.63	521.41667
2525.014	522.75
2527.396	516.75
2529.776	515.08333
2532.156	529.08333
2534.533	514.41667
2536.909	508.08333
2539.283	503.41667
2541.656	512.75
2544.027	533.41667
2546.397	516.08333
2548.765	510.75
2551.131	504.41667
2553.496	507.75
2555.86	515.08333
2558.221	524.75
2560.582	507.41667
2562.94	497.08333
2565.298	508.75
2567.653	520.08333
2570.007	493.08333
2572.36	506.08333
2574.711	499.75
2577.06	512.08333
2579.408	507.08333
2581.754	499.41667
2584.099	498.41667
2586.442	497.75
2588.784	493.75
2591.124	509.08333
2593.463	491.75
2595.8	485.41667
2598.135	484.75
2600.469	492.41667
2602.802	512.08333
2605.133	501.41667
2607.462	494.08333
2609.79	478.75
2612.116	487.41667
2614.441	482.75
2616.764	484.75
2619.086	497.75
2621.406	481.08333
2623.725	508.08333
2626.042	493.41667
2628.358	487.08333
2630.672	475.75
2632.985	509.41667
2635.296	490.75
2637.606	497.08333
2639.914	477.41667
2642.22	498.08333
2644.525	490.08333
2646.829	488.75
2649.131	502.08333
2651.432	503.08333
2653.731	479.41667
2656.028	505.41667
2658.324	504.75
2660.619	485.75
2662.912	498.41667
2665.204	483.08333
2667.494	507.08333
2669.782	493.41667
2672.07	503.41667
2674.355	512.08333
2676.639	505.75
2678.922	487.08333
2681.203	492.08333
2683.483	484.75
2685.761	484.41667
2688.038	498.08333
2690.313	508.08333
2692.587	505.75
2694.859	493.41667
2697.13	505.08333
2699.399	501.08333
2701.667	526.75
2703.933	517.41667
2706.198	517.41667
2708.461	524.08333
2710.723	519.41667
2712.984	531.41667
2715.243	529.08333
2717.5	525.08333
2719.757	531.41667
2722.011	535.41667
2724.264	546.75
2726.516	546.41667
2728.766	535.75
2731.015	536.75
2733.262	536.41667
2735.508	539.75
2737.753	529.75
2739.996	527.75
2742.237	519.41667
2744.477	525.08333
2746.716	526.75
2748.953	510.08333
2751.189	521.41667
2753.423	510.41667
2755.656	510.41667
2757.887	500.08333
2760.117	511.08333
2762.346	508.75
2764.573	505.08333
2766.798	506.08333
2769.022	510.08333
2771.245	507.41667
2773.467	521.08333
2775.686	518.75
2777.905	531.41667
2780.122	524.41667
2782.337	534.41667
2784.552	518.75
2786.764	546.41667
2788.976	553.08333
2791.186	555.75
2793.394	552.41667
2795.601	579.41667
2797.807	575.75
2800.011	592.41667
2802.214	600.41667
2804.415	609.41667
2806.615	613.41667
2808.814	628.75
2811.011	631.75
2813.206	630.75
2815.401	647.41667
2817.594	663.75
2819.785	679.75
2821.975	661.41667
2824.164	688.41667
2826.351	709.75
2828.537	720.08333
2830.722	738.75
2832.905	746.08333
2835.086	758.41667
2837.267	804.08333
2839.445	837.08333
2841.623	865.08333
2843.799	869.08333
2845.974	922.75
2848.147	948.75
2850.319	987.75
2852.489	1015.08333
2854.659	1009.75
2856.826	1043.41667
2858.993	1068.41667
2861.158	1040.08333
2863.321	1036.08333
2865.483	1066.75
2867.644	1067.08333
2869.804	1054.75
2871.962	1039.08333
2874.118	1052.75
2876.274	1050.08333
2878.428	1041.41667
2880.58	1034.75
2882.731	1028.41667
2884.881	1020.75
2887.03	1023.75
2889.177	1023.75
2891.322	1041.75
2893.467	1027.75
2895.61	1040.41667
2897.751	1051.41667
2899.892	1045.41667
2902.03	1043.75
2904.168	1056.08333
2906.304	1049.08333
2908.439	1072.41667
2910.572	1051.75
2912.704	1082.08333
2914.835	1061.75
2916.965	1071.08333
2919.093	1076.75
2921.219	1039.41667
2923.345	1061.41667
2925.469	1022.75
2927.591	1001.08333
2929.712	977.75
2931.832	973.41667
2933.951	935.75
2936.068	913.41667
2938.184	895.41667
2940.299	858.41667
2942.412	843.41667
2944.524	800.75
2946.634	773.41667
2948.744	716.41667
2950.851	747.41667
2952.958	695.08333
2955.063	672.41667
2957.167	665.08333
2959.269	630.41667
2961.371	647.75
2963.471	601.41667
2965.569	602.75
2967.666	568.75
2969.762	553.41667
2971.857	533.08333
2973.95	519.08333
2976.042	516.08333
2978.133	491.75
2980.222	483.41667
2982.31	471.08333
2984.396	451.41667
2986.482	454.08333
2988.566	451.41667
2990.648	429.75
2992.73	423.41667
2994.81	412.08333
2996.889	418.41667
2998.966	407.41667
3001.042	415.41667
3003.117	401.41667
3005.191	397.08333
3007.263	386.75
3009.334	380.08333
3011.403	375.08333
3013.472	357.08333
3015.539	367.75
3017.604	372.08333
3019.669	344.75
3021.732	339.08333
3023.794	344.41667
3025.854	326.08333
3027.914	327.75
3029.971	334.75
3032.028	323.08333
3034.083	328.08333
3036.137	321.75
3038.19	306.75
3040.242	301.08333
3042.292	297.08333
3044.341	292.75
3046.388	301.41667
3048.435	271.41667
3050.48	297.08333
3052.524	286.41667
3054.566	270.75
3056.607	284.75
3058.647	272.41667
3060.686	255.75
3062.723	252.41667
3064.759	247.08333
3066.794	1.41667
3068.828	-0.58333
3070.86	-3.58333
