-0.839	433.875
3.438	483.54167
7.711	132.20833
11.981	53.20833
16.247	46.875
20.509	43.20833
24.768	49.54167
29.024	47.20833
33.276	41.54167
37.524	49.54167
41.769	39.54167
46.01	37.875
50.247	52.20833
54.481	63.20833
58.712	65.875
62.939	46.20833
67.162	59.875
71.382	60.875
75.599	48.54167
79.812	61.875
84.021	83.20833
88.227	60.54167
92.429	62.20833
96.628	50.875
100.823	69.875
105.015	79.20833
109.204	76.20833
113.388	75.875
117.57	70.54167
121.748	88.875
125.922	82.54167
130.093	98.875
134.261	113.875
138.425	99.875
142.585	147.54167
146.742	134.20833
150.896	169.20833
155.046	208.20833
159.193	329.20833
163.336	577.875
167.476	1046.20833
171.613	1924.54167
175.746	3202.20833
179.875	4748.20833
184.002	6218.20833
188.124	7157.875
192.244	7464.875
196.36	7315.54167
200.472	7109.875
204.581	6862.20833
208.687	6594.20833
212.79	6550.875
216.889	6510.875
220.984	6517.54167
225.077	6524.54167
229.165	6602.875
233.251	6660.20833
237.333	6674.54167
241.412	6639.875
245.487	6604.20833
249.559	6542.20833
253.628	6489.20833
257.694	6401.875
261.756	6332.20833
265.814	6264.54167
269.87	6109.54167
273.922	5956.54167
277.97	5833.875
282.016	5797.875
286.058	5714.54167
290.097	5812.20833
294.132	5842.54167
298.164	5823.20833
302.193	5556.20833
306.219	5151.20833
310.241	4667.875
314.26	4196.875
318.276	3805.54167
322.288	3570.54167
326.297	3340.875
330.303	3192.20833
334.305	3096.20833
338.305	3019.20833
342.301	2934.20833
346.294	2926.875
350.283	2885.54167
354.269	2854.54167
358.252	2832.20833
362.232	2810.875
366.209	2767.20833
370.182	2745.54167
374.152	2728.20833
378.119	2728.20833
382.083	2714.875
386.043	2711.20833
390	2662.20833
393.954	2666.54167
397.905	2646.20833
401.852	2638.20833
405.797	2594.54167
409.738	2575.54167
413.676	2564.54167
417.61	2560.875
421.542	2523.20833
425.47	2493.20833
429.396	2475.54167
433.318	2464.875
437.236	2432.54167
441.152	2459.54167
445.065	2394.875
448.974	2402.875
452.88	2355.20833
456.783	2339.54167
460.683	2330.54167
464.58	2353.875
468.473	2343.20833
472.364	2339.54167
476.251	2337.875
480.135	2361.54167
484.016	2401.875
487.894	2412.54167
491.769	2409.20833
495.641	2414.54167
499.509	2406.875
503.375	2414.875
507.237	2394.875
511.096	2389.875
514.952	2417.875
518.805	2408.875
522.655	2451.54167
526.502	2381.875
530.346	2400.54167
534.187	2411.20833
538.024	2405.20833
541.859	2411.20833
545.69	2464.20833
549.519	2426.875
553.344	2378.54167
557.166	2348.875
560.985	2340.20833
564.802	2284.875
568.615	2271.20833
572.425	2228.875
576.232	2233.54167
580.036	2200.875
583.836	2233.20833
587.634	2216.875
591.429	2222.54167
595.221	2279.875
599.01	2273.875
602.796	2319.875
606.578	2339.54167
610.358	2365.20833
614.135	2347.875
617.909	2331.20833
621.679	2304.54167
625.447	2305.54167
629.212	2457.20833
632.973	2292.54167
636.732	2288.20833
640.488	2277.875
644.241	2279.20833
647.991	2272.20833
651.737	2279.54167
655.481	2264.20833
659.222	2295.54167
662.96	2293.875
666.695	2299.54167
670.427	2297.875
674.156	2332.875
677.882	2310.875
681.605	2300.54167
685.325	2270.875
689.043	2284.20833
692.757	2253.54167
696.468	2270.20833
700.177	2273.875
703.882	2256.20833
707.585	2250.875
711.284	2259.875
714.981	2262.20833
718.675	2269.875
722.366	2299.54167
726.054	2278.875
729.739	2275.20833
733.421	2274.54167
737.1	2266.54167
740.777	2272.20833
744.45	2290.54167
748.121	2318.20833
751.789	2366.875
755.453	2353.875
759.115	2375.20833
762.774	2400.54167
766.431	2419.875
770.084	2466.875
773.734	2450.54167
777.382	2531.20833
781.027	2559.54167
784.669	2546.20833
788.308	2571.875
791.944	2616.54167
795.577	2624.875
799.208	2667.54167
802.835	2654.20833
806.46	2686.20833
810.082	2711.875
813.701	2720.20833
817.317	2762.54167
820.931	2748.20833
824.542	2754.54167
828.149	2692.54167
831.754	2692.54167
835.357	2670.54167
838.956	2667.54167
842.553	2633.875
846.146	2626.875
849.737	2607.875
853.326	2638.875
856.911	2626.875
860.493	2679.875
864.073	2705.54167
867.65	2724.54167
871.225	2771.875
874.796	2751.875
878.365	2792.20833
881.931	2798.875
885.494	2808.54167
889.054	2832.875
892.612	2812.54167
896.166	2780.20833
899.719	2767.20833
903.268	2736.20833
906.814	2708.54167
910.358	2708.20833
913.899	2684.20833
917.438	2721.54167
920.973	2700.54167
924.506	2738.20833
928.036	2788.20833
931.564	2834.20833
935.088	2845.875
938.61	2856.875
942.129	2869.54167
945.646	2950.54167
949.16	3028.54167
952.671	3098.20833
956.179	3144.54167
959.685	3111.54167
963.188	3121.875
966.688	3062.875
970.185	2977.54167
973.68	2925.54167
977.173	2863.54167
980.662	2846.54167
984.149	2850.20833
987.633	2864.875
991.114	2902.875
994.593	2988.20833
998.069	3088.54167
1001.542	3172.20833
1005.013	3121.20833
1008.481	2913.54167
1011.947	2846.875
1015.409	2843.54167
1018.869	2862.54167
1022.327	2871.20833
1025.782	2844.54167
1029.234	2884.875
1032.683	2830.54167
1036.13	2722.20833
1039.574	2613.875
1043.016	2555.875
1046.455	2502.54167
1049.891	2444.875
1053.325	2485.20833
1056.756	2476.20833
1060.184	2500.875
1063.61	2521.875
1067.033	2530.20833
1070.454	2544.875
1073.872	2601.875
1077.287	2579.20833
1080.7	2572.20833
1084.11	2582.875
1087.517	2562.875
1090.922	2509.54167
1094.325	2476.20833
1097.724	2467.875
1101.122	2451.54167
1104.516	2444.875
1107.908	2467.20833
1111.298	2504.875
1114.684	2541.875
1118.069	2576.54167
1121.45	2591.20833
1124.83	2571.54167
1128.206	2589.54167
1131.58	2647.20833
1134.951	2740.54167
1138.32	2815.875
1141.687	2950.20833
1145.05	3048.875
1148.412	3058.875
1151.77	3020.20833
1155.126	3008.875
1158.48	3003.20833
1161.831	3013.54167
1165.18	3054.875
1168.525	3076.20833
1171.869	3095.20833
1175.21	3155.54167
1178.548	3195.875
1181.884	3211.875
1185.217	3248.20833
1188.548	3296.875
1191.877	3353.20833
1195.202	3427.54167
1198.526	3480.54167
1201.846	3519.54167
1205.165	3508.20833
1208.48	3475.54167
1211.794	3498.54167
1215.104	3519.20833
1218.413	3511.54167
1221.719	3521.20833
1225.022	3444.20833
1228.323	3431.875
1231.621	3387.54167
1234.917	3410.20833
1238.21	3404.875
1241.501	3380.20833
1244.79	3400.54167
1248.076	3380.20833
1251.359	3408.20833
1254.64	3469.20833
1257.919	3496.54167
1261.195	3577.20833
1264.468	3638.20833
1267.74	3707.54167
1271.008	3721.875
1274.275	3681.20833
1277.538	3646.875
1280.8	3659.875
1284.059	3659.20833
1287.315	3704.20833
1290.569	3708.875
1293.821	3753.875
1297.07	3765.54167
1300.317	3778.20833
1303.562	3741.54167
1306.803	3730.20833
1310.043	3688.20833
1313.28	3634.875
1316.515	3622.875
1319.747	3596.875
1322.977	3527.20833
1326.204	3492.875
1329.429	3441.20833
1332.652	3435.875
1335.872	3401.20833
1339.09	3371.20833
1342.306	3364.875
1345.519	3330.20833
1348.729	3303.875
1351.938	3278.54167
1355.144	3260.875
1358.347	3208.20833
1361.548	3201.20833
1364.747	3208.54167
1367.944	3192.875
1371.138	3232.54167
1374.329	3260.20833
1377.518	3265.20833
1380.705	3314.875
1383.89	3320.54167
1387.072	3196.20833
1390.252	3092.20833
1393.429	2955.20833
1396.605	2866.875
1399.777	2759.54167
1402.948	2735.875
1406.116	2724.20833
1409.282	2742.20833
1412.445	2723.54167
1415.606	2762.54167
1418.765	2810.54167
1421.921	2888.54167
1425.075	2962.54167
1428.227	3072.20833
1431.376	3210.54167
1434.524	3337.20833
1437.668	3418.54167
1440.811	3469.54167
1443.951	3475.20833
1447.089	3497.875
1450.224	3488.20833
1453.357	3454.54167
1456.488	3411.875
1459.617	3388.875
1462.743	3358.54167
1465.867	3247.54167
1468.989	3219.875
1472.108	3157.20833
1475.225	3116.54167
1478.34	3069.20833
1481.453	3069.54167
1484.563	3093.54167
1487.671	3120.875
1490.776	3152.54167
1493.88	3225.54167
1496.981	3302.875
1500.08	3340.54167
1503.176	3398.54167
1506.271	3431.875
1509.363	3495.54167
1512.452	3549.20833
1515.54	3583.20833
1518.625	3666.54167
1521.708	3781.54167
1524.789	3954.20833
1527.867	4159.875
1530.944	4394.54167
1534.018	4604.54167
1537.089	4726.20833
1540.159	4758.20833
1543.226	4677.875
1546.291	4528.54167
1549.354	4385.54167
1552.415	4244.875
1555.473	4153.54167
1558.529	4051.20833
1561.583	4026.875
1564.634	3983.54167
1567.684	3977.20833
1570.731	3983.875
1573.776	4002.875
1576.819	4054.875
1579.859	4117.20833
1582.898	4139.54167
1585.934	4182.875
1588.968	4202.54167
1591.999	4196.875
1595.029	4166.54167
1598.056	4226.20833
1601.081	4241.54167
1604.104	4212.20833
1607.125	4176.20833
1610.144	4060.875
1613.16	3991.20833
1616.174	3910.54167
1619.186	3847.875
1622.196	3747.20833
1625.203	3664.20833
1628.209	3587.20833
1631.212	3588.875
1634.213	3541.54167
1637.212	3541.875
1640.209	3534.875
1643.203	3431.20833
1646.196	3296.875
1649.186	3175.875
1652.174	3089.20833
1655.16	3013.20833
1658.144	2907.54167
1661.125	2756.875
1664.105	2643.20833
1667.082	2498.20833
1670.057	2357.54167
1673.03	2220.875
1676.001	2060.875
1678.97	1916.54167
1681.937	1803.54167
1684.901	1669.875
1687.863	1649.54167
1690.824	1551.875
1693.782	1520.875
1696.738	1456.20833
1699.692	1441.875
1702.643	1391.54167
1705.593	1376.20833
1708.54	1354.54167
1711.486	1371.875
1714.429	1320.20833
1717.37	1317.54167
1720.309	1286.875
1723.246	1283.54167
1726.181	1258.875
1729.113	1257.54167
1732.044	1252.54167
1734.972	1238.20833
1737.899	1237.875
1740.823	1220.20833
1743.745	1214.54167
1746.665	1178.54167
1749.583	1147.20833
1752.499	1131.54167
1755.413	1119.54167
1758.325	1106.20833
1761.235	1097.54167
1764.142	1074.54167
1767.048	1067.875
1769.951	1062.875
1772.852	1051.54167
1775.752	1048.875
1778.649	1042.20833
1781.544	1051.54167
1784.437	1020.54167
1787.328	1016.54167
1790.217	1007.54167
1793.104	995.875
1795.989	996.54167
1798.872	973.20833
1801.753	1003.54167
1804.631	992.875
1807.508	998.20833
1810.383	987.875
1813.255	969.875
1816.126	970.875
1818.994	977.20833
1821.861	961.875
1824.725	964.54167
1827.587	960.875
1830.448	954.875
1833.306	935.54167
1836.162	939.20833
1839.017	929.54167
1841.869	926.54167
1844.719	929.54167
1847.567	914.875
1850.414	901.54167
1853.258	923.54167
1856.1	920.875
1858.94	933.20833
1861.778	918.20833
1864.614	901.54167
1867.448	919.875
1870.28	897.875
1873.111	923.20833
1875.939	911.875
1878.765	925.875
1881.589	893.20833
1884.411	894.875
1887.231	911.54167
1890.049	911.875
1892.865	900.54167
1895.68	897.875
1898.492	875.875
1901.302	873.875
1904.11	885.20833
1906.916	870.20833
1909.721	862.54167
1912.523	885.54167
1915.323	845.875
1918.122	858.20833
1920.918	876.875
1923.712	863.875
1926.505	853.875
1929.295	840.20833
1932.084	857.20833
1934.87	856.54167
1937.655	847.20833
1940.438	829.875
1943.218	848.20833
1945.997	851.875
1948.774	871.20833
1951.549	854.54167
1954.322	842.54167
1957.093	836.875
1959.862	835.20833
1962.629	830.54167
1965.394	825.875
1968.157	803.54167
1970.918	834.20833
1973.678	803.20833
1976.435	824.875
1979.19	802.20833
1981.944	802.54167
1984.696	807.54167
1987.445	799.875
1990.193	789.20833
1992.939	817.54167
1995.683	804.54167
1998.425	788.54167
2001.165	811.54167
2003.903	780.875
2006.639	782.20833
2009.374	796.54167
2012.106	795.20833
2014.837	772.54167
2017.566	793.54167
2020.292	788.875
2023.017	783.54167
2025.74	783.20833
2028.461	776.875
2031.18	776.54167
2033.898	763.54167
2036.613	774.20833
2039.327	783.54167
2042.038	764.875
2044.748	778.20833
2047.456	766.54167
2050.162	756.54167
2052.866	759.875
2055.568	759.54167
2058.268	752.20833
2060.967	756.875
2063.663	737.20833
2066.358	745.54167
2069.051	743.54167
2071.742	749.20833
2074.431	753.875
2077.118	748.54167
2079.804	740.54167
2082.487	731.20833
2085.169	759.875
2087.849	763.54167
2090.527	749.875
2093.203	748.875
2095.877	757.875
2098.55	745.54167
2101.22	771.20833
2103.889	773.875
2106.556	778.20833
2109.221	798.20833
2111.884	815.20833
2114.546	856.20833
2117.205	919.54167
2119.863	1005.54167
2122.519	1066.875
2125.173	1126.20833
2127.825	1221.54167
2130.475	1238.875
2133.124	1188.20833
2135.771	1140.20833
2138.416	1106.875
2141.059	1022.875
2143.7	990.875
2146.339	927.875
2148.977	866.875
2151.613	850.875
2154.247	837.54167
2156.879	808.20833
2159.51	797.875
2162.138	768.54167
2164.765	779.54167
2167.39	767.20833
2170.013	784.875
2172.634	777.875
2175.254	752.875
2177.872	779.875
2180.488	738.20833
2183.102	748.875
2185.714	741.20833
2188.325	707.20833
2190.934	725.54167
2193.541	719.875
2196.146	696.20833
2198.75	696.54167
2201.351	688.875
2203.951	671.54167
2206.549	691.875
2209.146	670.54167
2211.74	675.54167
2214.333	678.54167
2216.924	661.20833
2219.514	650.54167
2222.101	654.875
2224.687	671.54167
2227.271	650.20833
2229.853	648.875
2232.433	635.875
2235.012	659.875
2237.589	653.20833
2240.164	650.875
2242.738	648.54167
2245.309	636.875
2247.879	639.54167
2250.448	649.54167
2253.014	624.875
2255.579	604.875
2258.142	610.54167
2260.703	591.875
2263.262	608.20833
2265.82	585.20833
2268.376	603.54167
2270.93	576.20833
2273.483	575.875
2276.033	589.54167
2278.583	573.20833
2281.13	581.54167
2283.675	558.875
2286.219	568.54167
2288.761	579.875
2291.302	583.20833
2293.841	577.20833
2296.377	547.54167
2298.913	552.20833
2301.446	567.20833
2303.978	555.54167
2306.508	552.20833
2309.037	553.20833
2311.563	549.54167
2314.088	556.875
2316.612	536.54167
2319.133	547.875
2321.653	544.54167
2324.171	541.875
2326.688	553.875
2329.202	544.20833
2331.715	547.20833
2334.227	534.875
2336.736	531.20833
2339.244	532.875
2341.751	518.875
2344.255	530.54167
2346.758	520.54167
2349.259	515.875
2351.759	522.20833
2354.257	515.875
2356.753	511.54167
2359.247	514.54167
2361.74	537.54167
2364.231	508.54167
2366.721	518.20833
2369.209	515.20833
2371.695	507.54167
2374.179	502.875
2376.662	506.54167
2379.143	526.20833
2381.622	503.20833
2384.1	507.875
2386.576	504.54167
2389.051	512.20833
2391.524	531.875
2393.995	514.875
2396.464	505.875
2398.932	497.20833
2401.398	499.20833
2403.863	493.20833
2406.325	493.20833
2408.787	493.20833
2411.246	500.20833
2413.704	485.20833
2416.16	491.54167
2418.615	491.54167
2421.068	494.20833
2423.519	492.54167
2425.969	484.54167
2428.417	491.20833
2430.863	517.875
2433.308	498.20833
2435.751	482.20833
2438.193	476.875
2440.633	493.20833
2443.071	486.54167
2445.508	466.20833
2447.943	478.20833
2450.376	463.54167
2452.808	485.875
2455.238	476.20833
2457.667	491.54167
2460.093	467.20833
2462.519	464.54167
2464.942	464.20833
2467.365	484.875
2469.785	461.20833
2472.204	459.20833
2474.621	459.875
2477.037	486.54167
2479.451	452.875
2481.863	460.54167
2484.274	453.54167
2486.683	459.875
2489.091	479.54167
2491.497	458.875
2493.901	448.875
2496.304	452.54167
2498.705	464.54167
2501.105	448.54167
2503.503	481.20833
2505.899	439.54167
2508.294	474.20833
2510.687	448.875
2513.079	447.54167
2515.469	434.20833
2517.858	439.875
2520.245	455.54167
2522.63	439.54167
2525.014	450.54167
2527.396	434.54167
2529.776	437.54167
2532.156	447.875
2534.533	430.54167
2536.909	433.20833
2539.283	424.875
2541.656	438.875
2544.027	460.54167
2546.397	437.20833
2548.765	425.875
2551.131	433.20833
2553.496	437.20833
2555.86	441.20833
2558.221	440.54167
2560.582	429.54167
2562.94	419.875
2565.298	429.875
2567.653	440.875
2570.007	418.875
2572.36	441.875
2574.711	421.20833
2577.06	443.20833
2579.408	431.20833
2581.754	426.54167
2584.099	426.20833
2586.442	417.875
2588.784	424.20833
2591.124	429.54167
2593.463	420.54167
2595.8	423.54167
2598.135	418.54167
2600.469	419.875
2602.802	432.54167
2605.133	430.54167
2607.462	409.875
2609.79	414.875
2612.116	425.54167
2614.441	418.54167
2616.764	424.20833
2619.086	428.875
2621.406	415.875
2623.725	437.20833
2626.042	423.20833
2628.358	416.54167
2630.672	420.875
2632.985	431.54167
2635.296	425.20833
2637.606	422.54167
2639.914	413.20833
2642.22	429.20833
2644.525	427.54167
2646.829	422.875
2649.131	436.54167
2651.432	430.20833
2653.731	422.20833
2656.028	442.875
2658.324	420.54167
2660.619	419.875
2662.912	437.875
2665.204	417.20833
2667.494	438.54167
2669.782	417.54167
2672.07	429.20833
2674.355	427.875
2676.639	428.875
2678.922	419.54167
2681.203	441.20833
2683.483	425.54167
2685.761	419.20833
2688.038	429.54167
2690.313	454.875
2692.587	431.54167
2694.859	424.875
2697.13	437.875
2699.399	431.20833
2701.667	450.875
2703.933	453.875
2706.198	451.54167
2708.461	455.20833
2710.723	461.20833
2712.984	453.20833
2715.243	465.875
2717.5	457.875
2719.757	477.54167
2722.011	466.20833
2724.264	469.875
2726.516	482.20833
2728.766	470.20833
2731.015	470.875
2733.262	460.54167
2735.508	462.20833
2737.753	460.875
2739.996	451.875
2742.237	451.875
2744.477	452.875
2746.716	454.875
2748.953	446.875
2751.189	454.54167
2753.423	436.54167
2755.656	439.54167
2757.887	438.875
2760.117	437.20833
2762.346	430.20833
2764.573	429.54167
2766.798	429.20833
2769.022	438.20833
2771.245	429.20833
2773.467	431.20833
2775.686	446.875
2777.905	443.54167
2780.122	444.20833
2782.337	448.20833
2784.552	449.54167
2786.764	452.875
2788.976	459.875
2791.186	466.20833
2793.394	469.875
2795.601	482.20833
2797.807	483.54167
2800.011	484.20833
2802.214	500.20833
2804.415	509.20833
2806.615	504.20833
2808.814	516.54167
2811.011	519.20833
2813.206	518.20833
2815.401	541.875
2817.594	552.54167
2819.785	562.875
2821.975	554.20833
2824.164	569.54167
2826.351	585.54167
2828.537	600.875
2830.722	627.20833
2832.905	623.875
2835.086	663.54167
2837.267	704.54167
2839.445	718.875
2841.623	750.54167
2843.799	786.20833
2845.974	834.20833
2848.147	875.20833
2850.319	899.20833
2852.489	932.54167
2854.659	944.54167
2856.826	957.54167
2858.993	986.54167
2861.158	968.875
2863.321	973.875
2865.483	999.20833
2867.644	988.875
2869.804	978.875
2871.962	984.875
2874.118	999.20833
2876.274	989.20833
2878.428	972.875
2880.58	964.20833
2882.731	971.875
2884.881	971.20833
2887.03	975.875
2889.177	973.20833
2891.322	980.20833
2893.467	978.20833
2895.61	994.54167
2897.751	1004.875
2899.892	1002.54167
2902.03	1012.20833
2904.168	1031.875
2906.304	1026.20833
2908.439	1043.54167
2910.572	1021.54167
2912.704	1039.54167
2914.835	1034.875
2916.965	1037.54167
2919.093	1044.20833
2921.219	1009.54167
2923.345	1030.20833
2925.469	997.875
2927.591	999.875
2929.712	954.20833
2931.832	949.54167
2933.951	930.54167
2936.068	914.875
2938.184	884.20833
2940.299	862.875
2942.412	832.20833
2944.524	787.54167
2946.634	780.54167
2948.744	717.20833
2950.851	734.875
2952.958	669.20833
2955.063	673.20833
2957.167	660.20833
2959.269	623.54167
2961.371	638.20833
2963.471	596.875
2965.569	599.875
2967.666	554.875
2969.762	549.54167
2971.857	527.875
2973.95	518.54167
2976.042	506.875
2978.133	484.54167
2980.222	479.875
2982.31	455.54167
2984.396	444.875
2986.482	444.20833
2988.566	433.875
2990.648	424.20833
2992.73	422.54167
2994.81	402.54167
2996.889	412.54167
2998.966	405.875
3001.042	407.54167
3003.117	397.54167
3005.191	394.20833
3007.263	387.875
3009.334	385.54167
3011.403	381.875
3013.472	366.54167
3015.539	362.54167
3017.604	378.875
3019.669	341.20833
3021.732	341.54167
3023.794	354.875
3025.854	328.54167
3027.914	325.875
3029.971	332.875
3032.028	325.54167
3034.083	331.875
3036.137	328.20833
3038.19	314.20833
3040.242	301.875
3042.292	303.20833
3044.341	295.875
3046.388	303.875
3048.435	281.20833
3050.48	299.875
3052.524	296.54167
3054.566	267.875
3056.607	285.20833
3058.647	277.875
3060.686	264.875
3062.723	255.54167
3064.759	248.20833
3066.794	0.20833
3068.828	1.54167
3070.86	-2.79167
