-0.839	343.16667
3.438	382.16667
7.711	114.5
11.981	50.83333
16.247	42.16667
20.509	43.83333
24.768	42.16667
29.024	48.16667
33.276	41.16667
37.524	49.16667
41.769	44.5
46.01	34.83333
50.247	51.5
54.481	63.16667
58.712	70.16667
62.939	49.83333
67.162	62.83333
71.382	56.5
75.599	50.83333
79.812	61.5
84.021	81.83333
88.227	59.83333
92.429	63.5
96.628	50.16667
100.823	69.16667
105.015	79.83333
109.204	76.5
113.388	80.5
117.57	71.16667
121.748	88.83333
125.922	80.16667
130.093	101.83333
134.261	106.5
138.425	100.83333
142.585	143.5
146.742	136.83333
150.896	166.16667
155.046	200.83333
159.193	324.5
163.336	558.5
167.476	1016.5
171.613	1867.5
175.746	3139.16667
179.875	4646.83333
184.002	6074.83333
188.124	7053.5
192.244	7398.16667
196.36	7295.5
200.472	7092.16667
204.581	6893.5
208.687	6731.83333
212.79	6668.5
216.889	6699.16667
220.984	6741.5
225.077	6807.16667
229.165	6916.5
233.251	6959.83333
237.333	6951.16667
241.412	6939.5
245.487	6868.16667
249.559	6837.5
253.628	6743.5
257.694	6712.83333
261.756	6631.83333
265.814	6493.83333
269.87	6373.5
273.922	6232.83333
277.97	6158.5
282.016	6167.5
286.058	6213.5
290.097	6343.5
294.132	6372.16667
298.164	6248.16667
302.193	5935.5
306.219	5502.5
310.241	4995.5
314.26	4537.16667
318.276	4175.83333
322.288	3874.83333
326.297	3613.5
330.303	3450.83333
334.305	3347.16667
338.305	3274.5
342.301	3202.83333
346.294	3169.83333
350.283	3130.5
354.269	3090.5
358.252	3076.83333
362.232	3066.83333
366.209	3016.5
370.182	3022.83333
374.152	3002.16667
378.119	2982.16667
382.083	2946.83333
386.043	2990.5
390	2912.83333
393.954	2905.83333
397.905	2873.16667
401.852	2836.16667
405.797	2832.83333
409.738	2769.5
413.676	2781.5
417.61	2735.5
421.542	2728.16667
425.47	2666.16667
429.396	2683.83333
433.318	2655.5
437.236	2636.5
441.152	2657.83333
445.065	2603.83333
448.974	2606.5
452.88	2552.5
456.783	2554.5
460.683	2555.5
464.58	2559.5
468.473	2549.16667
472.364	2565.5
476.251	2578.16667
480.135	2595.16667
484.016	2623.5
487.894	2612.83333
491.769	2640.5
495.641	2623.16667
499.509	2631.83333
503.375	2639.16667
507.237	2623.16667
511.096	2595.83333
514.952	2595.16667
518.805	2628.16667
522.655	2613.83333
526.502	2599.83333
530.346	2589.16667
534.187	2595.83333
538.024	2586.5
541.859	2606.5
545.69	2611.5
549.519	2582.16667
553.344	2565.5
557.166	2544.16667
560.985	2501.83333
564.802	2473.16667
568.615	2457.5
572.425	2420.83333
576.232	2413.83333
580.036	2386.83333
583.836	2409.5
587.634	2426.5
591.429	2388.83333
595.221	2463.83333
599.01	2495.5
602.796	2503.5
606.578	2529.5
610.358	2529.16667
614.135	2510.16667
617.909	2512.16667
621.679	2492.16667
625.447	2493.5
629.212	2508.16667
632.973	2515.83333
636.732	2489.83333
640.488	2497.5
644.241	2465.16667
647.991	2460.5
651.737	2452.16667
655.481	2413.16667
659.222	2426.16667
662.96	2440.5
666.695	2467.5
670.427	2453.16667
674.156	2457.5
677.882	2468.83333
681.605	2470.16667
685.325	2445.16667
689.043	2459.83333
692.757	2445.16667
696.468	2458.16667
700.177	2473.5
703.882	2472.83333
707.585	2480.16667
711.284	2457.16667
714.981	2483.5
718.675	2503.16667
722.366	2506.5
726.054	2487.5
729.739	2497.16667
733.421	2471.83333
737.1	2489.83333
740.777	2511.83333
744.45	2509.83333
748.121	2539.16667
751.789	2618.5
755.453	2568.16667
759.115	2607.5
762.774	2640.16667
766.431	2663.83333
770.084	2660.5
773.734	2716.5
777.382	2751.5
781.027	2800.5
784.669	2796.16667
788.308	2829.83333
791.944	2842.5
795.577	2888.5
799.208	2879.83333
802.835	2913.83333
806.46	2908.5
810.082	2934.16667
813.701	2940.16667
817.317	2974.16667
820.931	2941.16667
824.542	2971.16667
828.149	2954.5
831.754	2914.83333
835.357	2924.83333
838.956	2945.16667
842.553	2914.83333
846.146	2914.16667
849.737	2903.16667
853.326	2948.16667
856.911	2946.16667
860.493	2979.16667
864.073	3008.83333
867.65	3068.83333
871.225	3080.83333
874.796	3062.83333
878.365	3090.83333
881.931	3103.83333
885.494	3147.5
889.054	3147.5
892.612	3140.5
896.166	3111.83333
899.719	3080.5
903.268	3068.5
906.814	3018.83333
910.358	3012.16667
913.899	3000.16667
917.438	3016.83333
920.973	3009.83333
924.506	3020.16667
928.036	3049.5
931.564	3090.16667
935.088	3125.83333
938.61	3136.16667
942.129	3168.5
945.646	3247.16667
949.16	3315.83333
952.671	3381.16667
956.179	3398.5
959.685	3346.16667
963.188	3293.16667
966.688	3241.16667
970.185	3160.5
973.68	3110.5
977.173	3100.5
980.662	3088.16667
984.149	3109.16667
987.633	3124.16667
991.114	3155.16667
994.593	3304.83333
998.069	3388.5
1001.542	3476.83333
1005.013	3384.5
1008.481	3184.83333
1011.947	3145.16667
1015.409	3127.83333
1018.869	3122.16667
1022.327	3134.16667
1025.782	3094.16667
1029.234	3110.5
1032.683	3097.83333
1036.13	2961.5
1039.574	2852.5
1043.016	2794.16667
1046.455	2742.16667
1049.891	2720.83333
1053.325	2702.5
1056.756	2714.83333
1060.184	2730.83333
1063.61	2738.5
1067.033	2757.83333
1070.454	2736.5
1073.872	2809.5
1077.287	2797.5
1080.7	2784.83333
1084.11	2833.5
1087.517	2804.5
1090.922	2772.16667
1094.325	2748.83333
1097.724	2715.16667
1101.122	2709.83333
1104.516	2701.16667
1107.908	2718.16667
1111.298	2752.5
1114.684	2804.83333
1118.069	2799.83333
1121.45	2833.5
1124.83	2841.83333
1128.206	2873.16667
1131.58	2910.83333
1134.951	2991.83333
1138.32	3074.83333
1141.687	3199.83333
1145.05	3260.83333
1148.412	3309.16667
1151.77	3263.16667
1155.126	3271.5
1158.48	3305.5
1161.831	3328.5
1165.18	3355.83333
1168.525	3401.16667
1171.869	3457.16667
1175.21	3449.83333
1178.548	3493.5
1181.884	3542.5
1185.217	3544.5
1188.548	3635.83333
1191.877	3690.16667
1195.202	3737.5
1198.526	3787.5
1201.846	3804.83333
1205.165	3800.16667
1208.48	3745.83333
1211.794	3785.83333
1215.104	3753.83333
1218.413	3774.16667
1221.719	3748.83333
1225.022	3759.16667
1228.323	3695.16667
1231.621	3713.83333
1234.917	3710.5
1238.21	3752.83333
1241.501	3759.5
1244.79	3743.16667
1248.076	3721.16667
1251.359	3770.16667
1254.64	3833.5
1257.919	3862.83333
1261.195	3936.16667
1264.468	3994.16667
1267.74	4041.83333
1271.008	4044.83333
1274.275	4002.5
1277.538	3974.16667
1280.8	3958.5
1284.059	3980.16667
1287.315	3992.83333
1290.569	4043.16667
1293.821	4036.5
1297.07	4074.5
1300.317	4060.16667
1303.562	4035.5
1306.803	3999.5
1310.043	3964.83333
1313.28	3906.16667
1316.515	3866.83333
1319.747	3787.16667
1322.977	3739.83333
1326.204	3671.83333
1329.429	3634.16667
1332.652	3621.83333
1335.872	3614.5
1339.09	3573.16667
1342.306	3588.16667
1345.519	3582.5
1348.729	3562.5
1351.938	3527.5
1355.144	3474.16667
1358.347	3457.16667
1361.548	3450.83333
1364.747	3480.5
1367.944	3450.5
1371.138	3473.16667
1374.329	3513.5
1377.518	3546.16667
1380.705	3565.83333
1383.89	3523.5
1387.072	3419.83333
1390.252	3314.83333
1393.429	3229.5
1396.605	3133.5
1399.777	3058.16667
1402.948	3024.16667
1406.116	3000.5
1409.282	3011.16667
1412.445	3027.16667
1415.606	3053.16667
1418.765	3098.5
1421.921	3178.16667
1425.075	3261.83333
1428.227	3341.16667
1431.376	3475.16667
1434.524	3586.83333
1437.668	3681.83333
1440.811	3708.83333
1443.951	3730.83333
1447.089	3717.16667
1450.224	3704.83333
1453.357	3662.5
1456.488	3643.83333
1459.617	3621.83333
1462.743	3576.5
1465.867	3516.5
1468.989	3463.16667
1472.108	3385.5
1475.225	3329.83333
1478.34	3319.16667
1481.453	3282.5
1484.563	3294.5
1487.671	3355.16667
1490.776	3419.16667
1493.88	3469.16667
1496.981	3565.16667
1500.08	3622.83333
1503.176	3666.83333
1506.271	3715.16667
1509.363	3799.5
1512.452	3816.16667
1515.54	3910.5
1518.625	3980.5
1521.708	4090.5
1524.789	4351.5
1527.867	4524.16667
1530.944	4835.5
1534.018	5105.83333
1537.089	5293.16667
1540.159	5320.16667
1543.226	5218.83333
1546.291	5035.16667
1549.354	4899.83333
1552.415	4739.16667
1555.473	4576.83333
1558.529	4484.83333
1561.583	4436.5
1564.634	4382.83333
1567.684	4370.83333
1570.731	4325.5
1573.776	4346.83333
1576.819	4400.16667
1579.859	4415.16667
1582.898	4426.5
1585.934	4478.16667
1588.968	4496.5
1591.999	4483.5
1595.029	4476.5
1598.056	4481.83333
1601.081	4489.5
1604.104	4486.83333
1607.125	4453.16667
1610.144	4351.5
1613.16	4223.83333
1616.174	4124.5
1619.186	4012.5
1622.196	3890.5
1625.203	3768.83333
1628.209	3692.83333
1631.212	3662.83333
1634.213	3608.5
1637.212	3549.16667
1640.209	3487.16667
1643.203	3409.83333
1646.196	3323.83333
1649.186	3218.16667
1652.174	3128.5
1655.16	3040.5
1658.144	2940.5
1661.125	2831.5
1664.105	2706.16667
1667.082	2574.5
1670.057	2451.83333
1673.03	2301.16667
1676.001	2173.16667
1678.97	2033.16667
1681.937	1920.83333
1684.901	1840.83333
1687.863	1766.16667
1690.824	1718.16667
1693.782	1649.16667
1696.738	1620.5
1699.692	1587.83333
1702.643	1548.16667
1705.593	1530.83333
1708.54	1494.5
1711.486	1499.16667
1714.429	1472.83333
1717.37	1454.16667
1720.309	1437.5
1723.246	1425.16667
1726.181	1395.16667
1729.113	1418.5
1732.044	1380.16667
1734.972	1369.83333
1737.899	1379.5
1740.823	1352.16667
1743.745	1361.5
1746.665	1306.83333
1749.583	1289.16667
1752.499	1265.16667
1755.413	1255.83333
1758.325	1212.83333
1761.235	1232.5
1764.142	1187.5
1767.048	1181.5
1769.951	1178.16667
1772.852	1159.16667
1775.752	1153.16667
1778.649	1159.5
1781.544	1158.5
1784.437	1129.83333
1787.328	1159.83333
1790.217	1133.83333
1793.104	1117.5
1795.989	1106.83333
1798.872	1099.5
1801.753	1109.16667
1804.631	1111.83333
1807.508	1113.5
1810.383	1103.16667
1813.255	1091.83333
1816.126	1103.83333
1818.994	1089.83333
1821.861	1083.16667
1824.725	1079.16667
1827.587	1067.16667
1830.448	1077.16667
1833.306	1036.16667
1836.162	1056.16667
1839.017	1044.16667
1841.869	1039.83333
1844.719	1037.16667
1847.567	1035.5
1850.414	1022.83333
1853.258	1018.83333
1856.1	1043.5
1858.94	1035.5
1861.778	1028.83333
1864.614	1021.5
1867.448	1029.83333
1870.28	1014.16667
1873.111	1026.5
1875.939	1019.5
1878.765	1031.5
1881.589	1010.83333
1884.411	1011.16667
1887.231	1012.83333
1890.049	1001.5
1892.865	1013.16667
1895.68	992.5
1898.492	998.16667
1901.302	980.5
1904.11	986.16667
1906.916	979.5
1909.721	974.83333
1912.523	979.83333
1915.323	960.83333
1918.122	956.83333
1920.918	973.83333
1923.712	949.5
1926.505	967.5
1929.295	948.5
1932.084	952.83333
1934.87	960.16667
1937.655	947.83333
1940.438	950.83333
1943.218	943.5
1945.997	965.16667
1948.774	968.16667
1951.549	953.83333
1954.322	932.5
1957.093	936.16667
1959.862	930.83333
1962.629	932.16667
1965.394	922.5
1968.157	920.83333
1970.918	931.5
1973.678	915.83333
1976.435	914.5
1979.19	901.16667
1981.944	910.5
1984.696	898.5
1987.445	899.5
1990.193	904.5
1992.939	924.16667
1995.683	909.83333
1998.425	879.5
2001.165	910.16667
2003.903	886.5
2006.639	881.16667
2009.374	884.16667
2012.106	889.83333
2014.837	857.16667
2017.566	889.5
2020.292	893.83333
2023.017	878.5
2025.74	867.5
2028.461	864.5
2031.18	883.5
2033.898	865.83333
2036.613	874.83333
2039.327	864.5
2042.038	865.16667
2044.748	863.5
2047.456	856.83333
2050.162	844.16667
2052.866	854.16667
2055.568	841.5
2058.268	838.83333
2060.967	859.16667
2063.663	845.16667
2066.358	849.5
2069.051	837.5
2071.742	858.5
2074.431	862.5
2077.118	843.16667
2079.804	842.83333
2082.487	849.83333
2085.169	860.83333
2087.849	886.5
2090.527	861.16667
2093.203	888.5
2095.877	890.83333
2098.55	895.5
2101.22	925.5
2103.889	928.16667
2106.556	941.5
2109.221	994.83333
2111.884	1045.16667
2114.546	1149.5
2117.205	1245.5
2119.863	1375.83333
2122.519	1480.83333
2125.173	1597.16667
2127.825	1696.83333
2130.475	1691.16667
2133.124	1641.5
2135.771	1552.5
2138.416	1473.16667
2141.059	1370.83333
2143.7	1295.16667
2146.339	1207.83333
2148.977	1132.83333
2151.613	1097.16667
2154.247	1053.83333
2156.879	1009.5
2159.51	980.5
2162.138	965.5
2164.765	958.5
2167.39	920.83333
2170.013	919.16667
2172.634	910.16667
2175.254	898.5
2177.872	917.83333
2180.488	873.5
2183.102	882.83333
2185.714	858.5
2188.325	823.83333
2190.934	845.5
2193.541	829.83333
2196.146	818.83333
2198.75	818.16667
2201.351	804.16667
2203.951	784.5
2206.549	808.5
2209.146	775.83333
2211.74	769.5
2214.333	772.16667
2216.924	741.5
2219.514	759.16667
2222.101	750.16667
2224.687	760.83333
2227.271	739.83333
2229.853	737.5
2232.433	723.5
2235.012	731.83333
2237.589	734.83333
2240.164	730.83333
2242.738	731.16667
2245.309	711.5
2247.879	712.5
2250.448	724.16667
2253.014	698.83333
2255.579	690.16667
2258.142	693.5
2260.703	684.5
2263.262	675.16667
2265.82	674.83333
2268.376	673.16667
2270.93	661.5
2273.483	648.83333
2276.033	668.16667
2278.583	652.83333
2281.13	643.83333
2283.675	637.5
2286.219	649.16667
2288.761	645.16667
2291.302	660.83333
2293.841	644.83333
2296.377	615.16667
2298.913	636.83333
2301.446	634.16667
2303.978	631.83333
2306.508	622.16667
2309.037	638.83333
2311.563	627.83333
2314.088	626.83333
2316.612	612.83333
2319.133	634.83333
2321.653	607.16667
2324.171	605.83333
2326.688	616.5
2329.202	617.16667
2331.715	599.83333
2334.227	607.83333
2336.736	597.5
2339.244	608.16667
2341.751	586.5
2344.255	604.83333
2346.758	596.5
2349.259	580.5
2351.759	593.5
2354.257	573.16667
2356.753	579.16667
2359.247	581.5
2361.74	585.83333
2364.231	575.83333
2366.721	583.16667
2369.209	574.5
2371.695	571.16667
2374.179	574.5
2376.662	576.5
2379.143	584.5
2381.622	570.83333
2384.1	573.16667
2386.576	560.5
2389.051	572.83333
2391.524	590.5
2393.995	574.5
2396.464	561.5
2398.932	538.16667
2401.398	563.5
2403.863	556.5
2406.325	559.16667
2408.787	552.5
2411.246	552.5
2413.704	551.5
2416.16	538.5
2418.615	544.5
2421.068	550.16667
2423.519	547.83333
2425.969	529.83333
2428.417	550.83333
2430.863	564.5
2433.308	553.5
2435.751	540.83333
2438.193	539.16667
2440.633	550.83333
2443.071	541.5
2445.508	534.16667
2447.943	532.5
2450.376	526.83333
2452.808	544.16667
2455.238	532.5
2457.667	549.16667
2460.093	519.16667
2462.519	516.16667
2464.942	522.5
2467.365	531.16667
2469.785	532.16667
2472.204	520.16667
2474.621	511.83333
2477.037	533.5
2479.451	518.5
2481.863	506.5
2484.274	499.5
2486.683	521.16667
2489.091	522.16667
2491.497	515.16667
2493.901	504.5
2496.304	493.5
2498.705	510.16667
2501.105	512.83333
2503.503	528.5
2505.899	487.16667
2508.294	519.83333
2510.687	493.16667
2513.079	489.16667
2515.469	487.16667
2517.858	491.16667
2520.245	502.16667
2522.63	485.16667
2525.014	483.83333
2527.396	479.16667
2529.776	489.83333
2532.156	492.5
2534.533	475.83333
2536.909	477.5
2539.283	475.16667
2541.656	481.83333
2544.027	505.16667
2546.397	494.16667
2548.765	486.16667
2551.131	476.16667
2553.496	483.83333
2555.86	480.83333
2558.221	488.5
2560.582	469.5
2562.94	469.16667
2565.298	473.16667
2567.653	492.83333
2570.007	464.16667
2572.36	481.16667
2574.711	469.83333
2577.06	485.16667
2579.408	472.5
2581.754	473.16667
2584.099	471.5
2586.442	467.16667
2588.784	474.5
2591.124	465.16667
2593.463	462.16667
2595.8	462.5
2598.135	449.5
2600.469	467.16667
2602.802	476.83333
2605.133	475.16667
2607.462	457.5
2609.79	454.16667
2612.116	463.16667
2614.441	464.16667
2616.764	462.83333
2619.086	463.5
2621.406	453.83333
2623.725	464.83333
2626.042	466.16667
2628.358	462.5
2630.672	451.16667
2632.985	468.83333
2635.296	465.5
2637.606	464.16667
2639.914	449.83333
2642.22	461.16667
2644.525	461.5
2646.829	458.83333
2649.131	472.5
2651.432	474.16667
2653.731	467.5
2656.028	479.16667
2658.324	467.83333
2660.619	455.16667
2662.912	476.16667
2665.204	457.16667
2667.494	472.16667
2669.782	463.16667
2672.07	474.83333
2674.355	482.16667
2676.639	466.83333
2678.922	462.5
2681.203	470.83333
2683.483	453.16667
2685.761	456.83333
2688.038	464.5
2690.313	478.83333
2692.587	473.16667
2694.859	468.83333
2697.13	475.83333
2699.399	475.16667
2701.667	484.5
2703.933	492.5
2706.198	492.83333
2708.461	497.5
2710.723	503.5
2712.984	495.5
2715.243	503.5
2717.5	502.5
2719.757	515.5
2722.011	499.83333
2724.264	518.16667
2726.516	527.5
2728.766	510.5
2731.015	494.16667
2733.262	510.5
2735.508	498.83333
2737.753	503.16667
2739.996	475.83333
2742.237	485.83333
2744.477	508.5
2746.716	501.5
2748.953	494.5
2751.189	495.83333
2753.423	490.16667
2755.656	478.83333
2757.887	479.5
2760.117	481.5
2762.346	472.83333
2764.573	481.16667
2766.798	468.83333
2769.022	485.5
2771.245	489.5
2773.467	477.16667
2775.686	484.16667
2777.905	486.16667
2780.122	497.83333
2782.337	497.83333
2784.552	495.83333
2786.764	508.16667
2788.976	513.5
2791.186	521.83333
2793.394	528.83333
2795.601	541.83333
2797.807	543.83333
2800.011	549.5
2802.214	563.16667
2804.415	579.5
2806.615	572.5
2808.814	594.83333
2811.011	591.16667
2813.206	596.5
2815.401	618.5
2817.594	634.83333
2819.785	645.83333
2821.975	629.5
2824.164	647.5
2826.351	661.5
2828.537	680.5
2830.722	695.83333
2832.905	701.5
2835.086	719.16667
2837.267	754.83333
2839.445	781.16667
2841.623	796.5
2843.799	827.5
2845.974	870.16667
2848.147	908.5
2850.319	928.5
2852.489	949.83333
2854.659	964.5
2856.826	974.5
2858.993	995.5
2861.158	979.83333
2863.321	980.83333
2865.483	1013.5
2867.644	994.16667
2869.804	1000.83333
2871.962	983.83333
2874.118	984.16667
2876.274	975.83333
2878.428	977.16667
2880.58	978.16667
2882.731	963.16667
2884.881	969.83333
2887.03	961.5
2889.177	954.5
2891.322	981.5
2893.467	972.83333
2895.61	979.5
2897.751	1051.83333
2899.892	982.16667
2902.03	993.83333
2904.168	994.83333
2906.304	987.5
2908.439	1014.83333
2910.572	986.16667
2912.704	1010.83333
2914.835	1008.5
2916.965	1015.16667
2919.093	1008.16667
2921.219	974.16667
2923.345	991.5
2925.469	951.5
2927.591	952.5
2929.712	921.5
2931.832	911.5
2933.951	883.16667
2936.068	872.5
2938.184	843.83333
2940.299	816.83333
2942.412	784.5
2944.524	741.5
2946.634	734.5
2948.744	672.16667
2950.851	701.5
2952.958	650.5
2955.063	641.5
2957.167	630.16667
2959.269	600.83333
2961.371	618.5
2963.471	559.16667
2965.569	573.5
2967.666	532.83333
2969.762	522.5
2971.857	502.5
2973.95	487.83333
2976.042	487.83333
2978.133	471.16667
2980.222	457.83333
2982.31	425.5
2984.396	414.16667
2986.482	424.16667
2988.566	424.16667
2990.648	410.16667
2992.73	403.5
2994.81	383.16667
2996.889	397.16667
2998.966	378.83333
3001.042	376.83333
3003.117	381.5
3005.191	378.5
3007.263	360.5
3009.334	360.16667
3011.403	365.5
3013.472	340.16667
3015.539	343.5
3017.604	361.16667
3019.669	319.5
3021.732	322.83333
3023.794	324.16667
3025.854	310.5
3027.914	315.16667
3029.971	314.5
3032.028	309.16667
3034.083	314.83333
3036.137	305.5
3038.19	289.5
3040.242	280.5
3042.292	283.5
3044.341	275.83333
3046.388	297.83333
3048.435	263.16667
3050.48	281.5
3052.524	275.83333
3054.566	251.5
3056.607	266.83333
3058.647	258.83333
3060.686	247.16667
3062.723	238.16667
3064.759	232.83333
3066.794	1.5
3068.828	-0.5
3070.86	-3.5
