-0.839	426.29167
3.438	463.625
7.711	124.625
11.981	55.29167
16.247	43.625
20.509	45.29167
24.768	44.95833
29.024	44.29167
33.276	42.95833
37.524	46.29167
41.769	38.95833
46.01	36.625
50.247	51.29167
54.481	59.29167
58.712	64.625
62.939	47.95833
67.162	61.95833
71.382	52.29167
75.599	49.29167
79.812	66.29167
84.021	80.625
88.227	58.625
92.429	63.29167
96.628	51.625
100.823	69.95833
105.015	73.95833
109.204	78.625
113.388	76.625
117.57	67.625
121.748	95.95833
125.922	78.625
130.093	105.29167
134.261	109.29167
138.425	95.95833
142.585	146.95833
146.742	146.29167
150.896	164.625
155.046	207.625
159.193	333.29167
163.336	572.625
167.476	1060.29167
171.613	1925.625
175.746	3235.625
179.875	4804.625
184.002	6242.29167
188.124	7234.29167
192.244	7489.95833
196.36	7355.95833
200.472	7133.95833
204.581	6844.29167
208.687	6623.29167
212.79	6540.29167
216.889	6518.95833
220.984	6530.29167
225.077	6536.95833
229.165	6542.29167
233.251	6626.625
237.333	6628.29167
241.412	6583.29167
245.487	6538.95833
249.559	6504.625
253.628	6437.95833
257.694	6351.95833
261.756	6331.625
265.814	6204.95833
269.87	6065.625
273.922	5860.95833
277.97	5800.95833
282.016	5738.625
286.058	5734.95833
290.097	5812.95833
294.132	5855.625
298.164	5814.29167
302.193	5526.29167
306.219	5096.29167
310.241	4598.625
314.26	4182.95833
318.276	3797.95833
322.288	3537.95833
326.297	3324.29167
330.303	3153.625
334.305	3046.95833
338.305	2964.625
342.301	2926.95833
346.294	2889.625
350.283	2837.95833
354.269	2833.29167
358.252	2770.95833
362.232	2765.29167
366.209	2722.625
370.182	2711.625
374.152	2690.95833
378.119	2670.29167
382.083	2654.625
386.043	2687.95833
390	2613.29167
393.954	2624.625
397.905	2588.95833
401.852	2582.95833
405.797	2552.29167
409.738	2541.95833
413.676	2512.95833
417.61	2468.95833
421.542	2467.29167
425.47	2459.95833
429.396	2405.29167
433.318	2414.29167
437.236	2388.625
441.152	2395.95833
445.065	2354.95833
448.974	2346.95833
452.88	2321.625
456.783	2293.29167
460.683	2294.95833
464.58	2292.29167
468.473	2271.625
472.364	2299.625
476.251	2290.625
480.135	2294.95833
484.016	2335.95833
487.894	2348.625
491.769	2352.95833
495.641	2366.29167
499.509	2350.95833
503.375	2349.29167
507.237	2343.95833
511.096	2344.625
514.952	2344.95833
518.805	2384.29167
522.655	2391.625
526.502	2340.625
530.346	2338.95833
534.187	2358.625
538.024	2379.95833
541.859	2372.625
545.69	2384.95833
549.519	2376.625
553.344	2359.29167
557.166	2329.95833
560.985	2306.29167
564.802	2244.29167
568.615	2207.95833
572.425	2186.95833
576.232	2176.95833
580.036	2164.95833
583.836	2173.625
587.634	2163.29167
591.429	2171.95833
595.221	2200.95833
599.01	2232.625
602.796	2267.625
606.578	2300.29167
610.358	2309.29167
614.135	2287.95833
617.909	2290.29167
621.679	2255.95833
625.447	2233.95833
629.212	2233.95833
632.973	2246.29167
636.732	2238.29167
640.488	2245.95833
644.241	2224.29167
647.991	2217.95833
651.737	2244.29167
655.481	2201.29167
659.222	2221.29167
662.96	2218.29167
666.695	2217.29167
670.427	2229.29167
674.156	2260.29167
677.882	2264.625
681.605	2259.625
685.325	2223.29167
689.043	2224.95833
692.757	2186.29167
696.468	2213.95833
700.177	2215.29167
703.882	2200.29167
707.585	2203.625
711.284	2218.95833
714.981	2222.29167
718.675	2247.625
722.366	2239.29167
726.054	2201.625
729.739	2214.29167
733.421	2226.29167
737.1	2219.29167
740.777	2248.625
744.45	2264.95833
748.121	2275.625
751.789	2310.625
755.453	2321.29167
759.115	2325.95833
762.774	2345.95833
766.431	2364.29167
770.084	2395.29167
773.734	2435.29167
777.382	2476.95833
781.027	2505.29167
784.669	2525.29167
788.308	2550.625
791.944	2547.29167
795.577	2571.625
799.208	2617.625
802.835	2605.625
806.46	2632.95833
810.082	2630.29167
813.701	2679.95833
817.317	2687.95833
820.931	2678.95833
824.542	2669.29167
828.149	2672.625
831.754	2615.29167
835.357	2636.29167
838.956	2641.95833
842.553	2596.95833
846.146	2603.29167
849.737	2591.29167
853.326	2601.95833
856.911	2589.29167
860.493	2658.95833
864.073	2650.625
867.65	2715.625
871.225	2754.29167
874.796	2757.95833
878.365	2760.625
881.931	2769.29167
885.494	2789.625
889.054	2788.29167
892.612	2787.95833
896.166	2749.29167
899.719	2740.29167
903.268	2713.625
906.814	2712.95833
910.358	2675.29167
913.899	2656.95833
917.438	2673.95833
920.973	2668.625
924.506	2707.625
928.036	2742.625
931.564	2755.95833
935.088	2809.95833
938.61	2813.625
942.129	2849.95833
945.646	2939.625
949.16	2990.95833
952.671	3079.95833
956.179	3096.29167
959.685	3051.625
963.188	3056.95833
966.688	3005.29167
970.185	2908.625
973.68	2833.95833
977.173	2820.95833
980.662	2790.95833
984.149	2793.625
987.633	2786.95833
991.114	2852.625
994.593	2937.95833
998.069	3043.625
1001.542	3135.29167
1005.013	3083.29167
1008.481	2883.29167
1011.947	2826.625
1015.409	2801.95833
1018.869	2823.29167
1022.327	2841.95833
1025.782	2795.95833
1029.234	2809.95833
1032.683	2785.29167
1036.13	2660.625
1039.574	2579.29167
1043.016	2516.29167
1046.455	2470.95833
1049.891	2422.29167
1053.325	2449.625
1056.756	2442.625
1060.184	2448.625
1063.61	2473.95833
1067.033	2499.625
1070.454	2483.95833
1073.872	2530.625
1077.287	2535.625
1080.7	2526.29167
1084.11	2542.29167
1087.517	2509.625
1090.922	2486.95833
1094.325	2463.625
1097.724	2444.625
1101.122	2429.625
1104.516	2424.29167
1107.908	2443.29167
1111.298	2499.29167
1114.684	2514.29167
1118.069	2541.95833
1121.45	2560.625
1124.83	2557.95833
1128.206	2582.29167
1131.58	2605.95833
1134.951	2719.95833
1138.32	2827.95833
1141.687	2934.625
1145.05	3004.29167
1148.412	3014.625
1151.77	3015.29167
1155.126	3017.625
1158.48	3013.95833
1161.831	3006.625
1165.18	3031.625
1168.525	3079.29167
1171.869	3102.625
1175.21	3131.625
1178.548	3181.625
1181.884	3203.95833
1185.217	3240.95833
1188.548	3317.625
1191.877	3334.95833
1195.202	3440.95833
1198.526	3498.29167
1201.846	3498.95833
1205.165	3479.95833
1208.48	3501.95833
1211.794	3471.95833
1215.104	3474.95833
1218.413	3518.625
1221.719	3481.95833
1225.022	3448.29167
1228.323	3409.95833
1231.621	3365.29167
1234.917	3358.625
1238.21	3405.95833
1241.501	3364.95833
1244.79	3372.29167
1248.076	3348.29167
1251.359	3386.29167
1254.64	3453.29167
1257.919	3482.95833
1261.195	3551.625
1264.468	3614.95833
1267.74	3675.29167
1271.008	3695.625
1274.275	3682.95833
1277.538	3633.625
1280.8	3637.29167
1284.059	3618.625
1287.315	3693.625
1290.569	3710.29167
1293.821	3712.625
1297.07	3727.625
1300.317	3745.95833
1303.562	3750.625
1306.803	3745.625
1310.043	3688.625
1313.28	3646.625
1316.515	3598.95833
1319.747	3546.95833
1322.977	3489.29167
1326.204	3452.29167
1329.429	3404.95833
1332.652	3384.95833
1335.872	3357.625
1339.09	3308.29167
1342.306	3297.625
1345.519	3268.95833
1348.729	3240.95833
1351.938	3210.29167
1355.144	3176.29167
1358.347	3130.625
1361.548	3161.625
1364.747	3179.95833
1367.944	3139.625
1371.138	3176.29167
1374.329	3215.29167
1377.518	3251.29167
1380.705	3275.95833
1383.89	3263.29167
1387.072	3158.29167
1390.252	3020.625
1393.429	2917.29167
1396.605	2827.95833
1399.777	2738.625
1402.948	2725.29167
1406.116	2680.95833
1409.282	2688.29167
1412.445	2706.95833
1415.606	2730.29167
1418.765	2809.29167
1421.921	2839.29167
1425.075	2941.29167
1428.227	3018.625
1431.376	3180.95833
1434.524	3303.29167
1437.668	3397.29167
1440.811	3423.29167
1443.951	3465.625
1447.089	3476.95833
1450.224	3447.29167
1453.357	3429.29167
1456.488	3391.29167
1459.617	3349.625
1462.743	3298.29167
1465.867	3229.625
1468.989	3209.29167
1472.108	3139.625
1475.225	3054.95833
1478.34	3052.29167
1481.453	3049.29167
1484.563	3036.625
1487.671	3097.95833
1490.776	3142.625
1493.88	3188.625
1496.981	3281.95833
1500.08	3326.95833
1503.176	3386.95833
1506.271	3445.625
1509.363	3486.29167
1512.452	3501.29167
1515.54	3589.29167
1518.625	3633.95833
1521.708	3783.29167
1524.789	3967.29167
1527.867	4140.625
1530.944	4385.29167
1534.018	4586.29167
1537.089	4754.95833
1540.159	4758.95833
1543.226	4683.95833
1546.291	4535.95833
1549.354	4382.95833
1552.415	4270.625
1555.473	4171.625
1558.529	4070.625
1561.583	4015.625
1564.634	3976.95833
1567.684	4000.29167
1570.731	3992.95833
1573.776	4048.29167
1576.819	4082.625
1579.859	4102.95833
1582.898	4170.29167
1585.934	4176.29167
1588.968	4236.95833
1591.999	4203.29167
1595.029	4218.95833
1598.056	4240.95833
1601.081	4269.625
1604.104	4240.29167
1607.125	4206.95833
1610.144	4085.625
1613.16	4014.625
1616.174	3905.29167
1619.186	3818.95833
1622.196	3725.95833
1625.203	3626.625
1628.209	3554.29167
1631.212	3504.95833
1634.213	3494.29167
1637.212	3453.95833
1640.209	3403.95833
1643.203	3315.625
1646.196	3232.625
1649.186	3097.95833
1652.174	3017.95833
1655.16	2916.625
1658.144	2820.625
1661.125	2705.95833
1664.105	2578.95833
1667.082	2454.95833
1670.057	2319.95833
1673.03	2187.29167
1676.001	2016.29167
1678.97	1879.625
1681.937	1759.29167
1684.901	1651.95833
1687.863	1599.29167
1690.824	1531.95833
1693.782	1514.625
1696.738	1431.95833
1699.692	1410.95833
1702.643	1371.29167
1705.593	1356.625
1708.54	1337.625
1711.486	1339.29167
1714.429	1310.625
1717.37	1280.625
1720.309	1274.95833
1723.246	1274.625
1726.181	1244.625
1729.113	1251.95833
1732.044	1230.29167
1734.972	1220.29167
1737.899	1209.625
1740.823	1198.625
1743.745	1196.95833
1746.665	1141.95833
1749.583	1140.95833
1752.499	1096.29167
1755.413	1107.29167
1758.325	1070.95833
1761.235	1062.95833
1764.142	1049.29167
1767.048	1056.29167
1769.951	1034.625
1772.852	1028.29167
1775.752	1010.625
1778.649	1019.95833
1781.544	1014.625
1784.437	990.29167
1787.328	978.625
1790.217	988.625
1793.104	960.625
1795.989	965.95833
1798.872	955.95833
1801.753	969.29167
1804.631	967.625
1807.508	977.29167
1810.383	968.29167
1813.255	963.625
1816.126	953.29167
1818.994	955.625
1821.861	946.95833
1824.725	955.625
1827.587	938.625
1830.448	932.29167
1833.306	924.95833
1836.162	912.625
1839.017	905.95833
1841.869	915.625
1844.719	910.95833
1847.567	889.29167
1850.414	893.95833
1853.258	892.95833
1856.1	894.95833
1858.94	912.29167
1861.778	905.29167
1864.614	874.95833
1867.448	895.95833
1870.28	887.95833
1873.111	906.29167
1875.939	892.29167
1878.765	900.29167
1881.589	874.625
1884.411	883.29167
1887.231	874.29167
1890.049	868.95833
1892.865	865.95833
1895.68	858.625
1898.492	870.29167
1901.302	858.625
1904.11	856.29167
1906.916	856.625
1909.721	841.29167
1912.523	853.625
1915.323	828.625
1918.122	837.29167
1920.918	848.29167
1923.712	828.625
1926.505	842.625
1929.295	811.95833
1932.084	843.95833
1934.87	841.625
1937.655	821.95833
1940.438	823.625
1943.218	826.625
1945.997	835.625
1948.774	831.95833
1951.549	807.625
1954.322	807.95833
1957.093	823.29167
1959.862	820.95833
1962.629	813.625
1965.394	802.625
1968.157	788.95833
1970.918	798.95833
1973.678	781.625
1976.435	805.625
1979.19	792.625
1981.944	786.95833
1984.696	789.95833
1987.445	770.29167
1990.193	779.625
1992.939	797.95833
1995.683	797.95833
1998.425	770.625
2001.165	781.95833
2003.903	762.625
2006.639	772.95833
2009.374	768.29167
2012.106	769.95833
2014.837	762.625
2017.566	774.29167
2020.292	765.625
2023.017	775.29167
2025.74	762.29167
2028.461	754.29167
2031.18	751.29167
2033.898	741.625
2036.613	767.29167
2039.327	759.29167
2042.038	747.625
2044.748	749.29167
2047.456	747.29167
2050.162	737.95833
2052.866	741.95833
2055.568	744.95833
2058.268	726.29167
2060.967	740.95833
2063.663	720.29167
2066.358	741.29167
2069.051	721.29167
2071.742	730.95833
2074.431	741.625
2077.118	725.95833
2079.804	713.95833
2082.487	732.29167
2085.169	739.625
2087.849	745.29167
2090.527	738.95833
2093.203	743.95833
2095.877	749.29167
2098.55	743.625
2101.22	751.625
2103.889	766.625
2106.556	766.625
2109.221	779.95833
2111.884	799.625
2114.546	850.625
2117.205	915.95833
2119.863	997.29167
2122.519	1062.625
2125.173	1122.95833
2127.825	1201.29167
2130.475	1237.29167
2133.124	1198.29167
2135.771	1152.625
2138.416	1107.625
2141.059	1027.95833
2143.7	983.29167
2146.339	922.95833
2148.977	858.625
2151.613	850.625
2154.247	816.95833
2156.879	804.29167
2159.51	784.29167
2162.138	773.29167
2164.765	763.95833
2167.39	759.625
2170.013	756.95833
2172.634	766.95833
2175.254	742.95833
2177.872	763.625
2180.488	736.625
2183.102	730.29167
2185.714	724.625
2188.325	694.625
2190.934	696.29167
2193.541	707.625
2196.146	685.29167
2198.75	671.625
2201.351	675.625
2203.951	666.95833
2206.549	681.29167
2209.146	665.625
2211.74	670.625
2214.333	652.29167
2216.924	647.625
2219.514	642.95833
2222.101	639.625
2224.687	637.625
2227.271	639.95833
2229.853	632.95833
2232.433	632.29167
2235.012	645.625
2237.589	644.625
2240.164	645.29167
2242.738	631.29167
2245.309	622.29167
2247.879	636.625
2250.448	637.625
2253.014	605.625
2255.579	596.95833
2258.142	587.95833
2260.703	589.95833
2263.262	592.625
2265.82	585.625
2268.376	586.625
2270.93	565.625
2273.483	570.625
2276.033	577.625
2278.583	561.29167
2281.13	558.95833
2283.675	555.95833
2286.219	561.625
2288.761	559.625
2291.302	561.95833
2293.841	565.95833
2296.377	545.29167
2298.913	540.29167
2301.446	551.29167
2303.978	558.29167
2306.508	546.29167
2309.037	546.95833
2311.563	549.625
2314.088	546.625
2316.612	529.29167
2319.133	541.95833
2321.653	528.625
2324.171	528.95833
2326.688	548.29167
2329.202	532.95833
2331.715	526.95833
2334.227	518.95833
2336.736	526.29167
2339.244	522.625
2341.751	510.625
2344.255	526.625
2346.758	509.625
2349.259	509.625
2351.759	513.625
2354.257	507.29167
2356.753	504.625
2359.247	516.95833
2361.74	518.625
2364.231	510.29167
2366.721	517.29167
2369.209	500.29167
2371.695	493.625
2374.179	498.625
2376.662	508.95833
2379.143	507.625
2381.622	502.625
2384.1	507.625
2386.576	497.29167
2389.051	509.625
2391.524	513.95833
2393.995	501.29167
2396.464	491.625
2398.932	483.95833
2401.398	495.625
2403.863	484.625
2406.325	485.29167
2408.787	483.625
2411.246	485.95833
2413.704	483.95833
2416.16	480.29167
2418.615	473.29167
2421.068	488.625
2423.519	483.625
2425.969	477.95833
2428.417	494.625
2430.863	497.625
2433.308	497.95833
2435.751	480.29167
2438.193	471.625
2440.633	482.95833
2443.071	483.29167
2445.508	466.29167
2447.943	476.625
2450.376	459.29167
2452.808	473.625
2455.238	455.95833
2457.667	484.625
2460.093	466.29167
2462.519	459.29167
2464.942	452.625
2467.365	469.625
2469.785	463.29167
2472.204	455.95833
2474.621	450.95833
2477.037	474.95833
2479.451	441.95833
2481.863	450.95833
2484.274	445.29167
2486.683	456.29167
2489.091	470.95833
2491.497	455.95833
2493.901	462.625
2496.304	451.625
2498.705	463.95833
2501.105	438.29167
2503.503	466.29167
2505.899	449.625
2508.294	459.95833
2510.687	443.29167
2513.079	442.95833
2515.469	437.625
2517.858	441.95833
2520.245	455.95833
2522.63	447.29167
2525.014	436.95833
2527.396	431.95833
2529.776	425.29167
2532.156	444.29167
2534.533	424.95833
2536.909	428.625
2539.283	416.29167
2541.656	428.95833
2544.027	452.625
2546.397	433.95833
2548.765	426.95833
2551.131	429.95833
2553.496	429.29167
2555.86	431.625
2558.221	435.625
2560.582	430.29167
2562.94	417.625
2565.298	425.29167
2567.653	441.625
2570.007	409.95833
2572.36	424.95833
2574.711	422.625
2577.06	445.29167
2579.408	427.95833
2581.754	429.625
2584.099	420.625
2586.442	419.95833
2588.784	428.29167
2591.124	423.625
2593.463	418.625
2595.8	425.29167
2598.135	415.95833
2600.469	425.95833
2602.802	435.29167
2605.133	437.625
2607.462	409.95833
2609.79	407.625
2612.116	420.95833
2614.441	416.29167
2616.764	419.95833
2619.086	414.95833
2621.406	407.625
2623.725	427.95833
2626.042	417.625
2628.358	412.95833
2630.672	419.95833
2632.985	427.95833
2635.296	419.625
2637.606	428.29167
2639.914	408.95833
2642.22	421.95833
2644.525	418.95833
2646.829	416.29167
2649.131	424.625
2651.432	431.95833
2653.731	412.625
2656.028	434.95833
2658.324	422.29167
2660.619	409.95833
2662.912	423.95833
2665.204	409.95833
2667.494	436.95833
2669.782	414.29167
2672.07	427.29167
2674.355	433.29167
2676.639	427.625
2678.922	416.29167
2681.203	425.625
2683.483	416.95833
2685.761	415.29167
2688.038	426.29167
2690.313	440.95833
2692.587	431.625
2694.859	430.625
2697.13	434.95833
2699.399	441.95833
2701.667	448.29167
2703.933	439.625
2706.198	442.95833
2708.461	451.625
2710.723	454.95833
2712.984	454.95833
2715.243	471.625
2717.5	452.95833
2719.757	468.95833
2722.011	453.625
2724.264	470.95833
2726.516	484.29167
2728.766	467.95833
2731.015	466.625
2733.262	467.625
2735.508	463.29167
2737.753	471.29167
2739.996	448.95833
2742.237	451.29167
2744.477	459.29167
2746.716	459.29167
2748.953	452.95833
2751.189	453.29167
2753.423	442.29167
2755.656	440.625
2757.887	426.29167
2760.117	433.625
2762.346	435.29167
2764.573	430.95833
2766.798	436.29167
2769.022	433.29167
2771.245	431.95833
2773.467	433.625
2775.686	439.625
2777.905	440.625
2780.122	453.29167
2782.337	448.95833
2784.552	450.625
2786.764	455.95833
2788.976	470.29167
2791.186	472.95833
2793.394	465.95833
2795.601	486.29167
2797.807	477.95833
2800.011	497.625
2802.214	509.29167
2804.415	505.95833
2806.615	502.29167
2808.814	520.95833
2811.011	518.95833
2813.206	522.95833
2815.401	547.95833
2817.594	553.625
2819.785	563.29167
2821.975	557.95833
2824.164	577.625
2826.351	592.29167
2828.537	609.29167
2830.722	636.625
2832.905	632.95833
2835.086	677.29167
2837.267	706.625
2839.445	736.625
2841.623	749.625
2843.799	795.625
2845.974	827.625
2848.147	870.29167
2850.319	898.625
2852.489	934.29167
2854.659	933.29167
2856.826	960.625
2858.993	1003.29167
2861.158	966.29167
2863.321	966.625
2865.483	1006.95833
2867.644	982.95833
2869.804	993.95833
2871.962	980.95833
2874.118	991.29167
2876.274	996.95833
2878.428	977.625
2880.58	983.625
2882.731	964.29167
2884.881	975.29167
2887.03	970.625
2889.177	962.95833
2891.322	993.625
2893.467	988.29167
2895.61	993.29167
2897.751	1013.95833
2899.892	1005.625
2902.03	1022.95833
2904.168	1014.625
2906.304	1027.625
2908.439	1063.29167
2910.572	1036.29167
2912.704	1045.625
2914.835	1042.95833
2916.965	1041.95833
2919.093	1063.95833
2921.219	1017.625
2923.345	1047.95833
2925.469	1009.29167
2927.591	996.29167
2929.712	966.625
2931.832	961.95833
2933.951	942.625
2936.068	901.95833
2938.184	879.95833
2940.299	852.29167
2942.412	828.625
2944.524	785.625
2946.634	770.29167
2948.744	714.625
2950.851	747.95833
2952.958	672.625
2955.063	678.625
2957.167	657.625
2959.269	620.29167
2961.371	639.95833
2963.471	594.29167
2965.569	598.29167
2967.666	559.625
2969.762	560.95833
2971.857	532.95833
2973.95	509.625
2976.042	512.95833
2978.133	499.29167
2980.222	485.95833
2982.31	457.29167
2984.396	456.29167
2986.482	443.29167
2988.566	440.29167
2990.648	430.95833
2992.73	423.95833
2994.81	414.625
2996.889	413.29167
2998.966	401.625
3001.042	408.95833
3003.117	392.625
3005.191	393.625
3007.263	387.95833
3009.334	380.625
3011.403	388.625
3013.472	359.625
3015.539	373.95833
3017.604	374.625
3019.669	340.29167
3021.732	348.29167
3023.794	347.95833
3025.854	326.95833
3027.914	323.29167
3029.971	333.625
3032.028	329.95833
3034.083	331.95833
3036.137	332.29167
3038.19	309.95833
3040.242	302.29167
3042.292	294.95833
3044.341	295.625
3046.388	311.29167
3048.435	281.625
3050.48	299.29167
3052.524	294.625
3054.566	272.95833
3056.607	289.625
3058.647	285.95833
3060.686	258.625
3062.723	258.625
3064.759	251.95833
3066.794	1.95833
3068.828	-0.04167
3070.86	-3.70833
