-0.839	389.83333
3.438	432.83333
7.711	118.16667
11.981	54.16667
16.247	45.16667
20.509	46.5
24.768	47.16667
29.024	46.16667
33.276	44.16667
37.524	50.16667
41.769	41.16667
46.01	38.16667
50.247	47.5
54.481	61.83333
58.712	70.5
62.939	49.5
67.162	60.16667
71.382	57.16667
75.599	48.83333
79.812	65.83333
84.021	83.16667
88.227	61.83333
92.429	66.83333
96.628	50.5
100.823	66.16667
105.015	79.83333
109.204	79.16667
113.388	76.16667
117.57	73.83333
121.748	92.83333
125.922	80.83333
130.093	100.83333
134.261	108.5
138.425	99.83333
142.585	145.16667
146.742	144.16667
150.896	166.83333
155.046	210.83333
159.193	336.5
163.336	576.83333
167.476	1051.5
171.613	1930.83333
175.746	3190.83333
179.875	4742.16667
184.002	6173.5
188.124	7152.83333
192.244	7436.83333
196.36	7299.16667
200.472	7086.16667
204.581	6886.5
208.687	6638.83333
212.79	6534.5
216.889	6506.5
220.984	6496.16667
225.077	6526.5
229.165	6552.16667
233.251	6548.83333
237.333	6568.16667
241.412	6497.83333
245.487	6428.5
249.559	6363.16667
253.628	6316.5
257.694	6265.16667
261.756	6196.5
265.814	6082.16667
269.87	5930.83333
273.922	5787.83333
277.97	5700.5
282.016	5698.16667
286.058	5685.16667
290.097	5812.16667
294.132	5866.83333
298.164	5799.5
302.193	5509.16667
306.219	5124.83333
310.241	4689.16667
314.26	4308.83333
318.276	3980.5
322.288	3736.5
326.297	3565.5
330.303	3378.5
334.305	3295.5
338.305	3233.16667
342.301	3176.16667
346.294	3186.83333
350.283	3118.16667
354.269	3079.83333
358.252	3052.16667
362.232	3002.5
366.209	2985.83333
370.182	2963.16667
374.152	2919.16667
378.119	2923.83333
382.083	2926.83333
386.043	2955.16667
390	2900.5
393.954	2881.16667
397.905	2857.16667
401.852	2870.5
405.797	2819.5
409.738	2817.5
413.676	2816.5
417.61	2789.5
421.542	2776.16667
425.47	2769.5
429.396	2742.83333
433.318	2721.83333
437.236	2710.16667
441.152	2712.83333
445.065	2667.83333
448.974	2643.5
452.88	2640.5
456.783	2607.16667
460.683	2616.83333
464.58	2598.5
468.473	2622.5
472.364	2635.5
476.251	2635.5
480.135	2657.5
484.016	2663.16667
487.894	2670.5
491.769	2687.5
495.641	2706.5
499.509	2684.5
503.375	2723.83333
507.237	2725.83333
511.096	2737.83333
514.952	2808.5
518.805	2928.5
522.655	2977.5
526.502	2794.16667
530.346	2695.16667
534.187	2703.5
538.024	2679.83333
541.859	2691.83333
545.69	2725.83333
549.519	2706.5
553.344	2692.83333
557.166	2653.83333
560.985	2619.83333
564.802	2566.5
568.615	2527.16667
572.425	2497.83333
576.232	2519.16667
580.036	2488.5
583.836	2517.16667
587.634	2499.16667
591.429	2501.83333
595.221	2533.5
599.01	2564.16667
602.796	2586.83333
606.578	2623.5
610.358	2605.5
614.135	2610.5
617.909	2587.83333
621.679	2588.5
625.447	2563.16667
629.212	2548.83333
632.973	2562.16667
636.732	2556.5
640.488	2577.5
644.241	2531.83333
647.991	2533.5
651.737	2550.5
655.481	2550.16667
659.222	2541.5
662.96	2534.83333
666.695	2557.5
670.427	2544.16667
674.156	2578.83333
677.882	2564.5
681.605	2558.83333
685.325	2530.16667
689.043	2537.5
692.757	2527.16667
696.468	2521.5
700.177	2517.5
703.882	2505.16667
707.585	2512.5
711.284	2501.16667
714.981	2528.5
718.675	2541.83333
722.366	2535.16667
726.054	2538.5
729.739	2540.16667
733.421	2532.5
737.1	2535.5
740.777	2540.16667
744.45	2573.83333
748.121	2584.83333
751.789	2630.16667
755.453	2612.83333
759.115	2648.5
762.774	2654.16667
766.431	2685.16667
770.084	2703.5
773.734	2723.83333
777.382	2779.16667
781.027	2803.16667
784.669	2813.5
788.308	2823.5
791.944	2848.5
795.577	2878.5
799.208	2885.16667
802.835	2901.5
806.46	2917.16667
810.082	2947.16667
813.701	2951.83333
817.317	3004.16667
820.931	2971.16667
824.542	2998.83333
828.149	2948.83333
831.754	2948.83333
835.357	2900.83333
838.956	2906.83333
842.553	2924.5
846.146	2900.83333
849.737	2885.16667
853.326	2912.16667
856.911	2888.83333
860.493	2953.5
864.073	2968.16667
867.65	2998.16667
871.225	3035.83333
874.796	3055.5
878.365	3050.83333
881.931	3080.16667
885.494	3110.16667
889.054	3109.16667
892.612	3095.16667
896.166	3071.5
899.719	3046.16667
903.268	3001.83333
906.814	3001.5
910.358	2995.16667
913.899	2938.83333
917.438	2963.83333
920.973	2953.5
924.506	2984.16667
928.036	3036.83333
931.564	3092.83333
935.088	3113.83333
938.61	3128.83333
942.129	3157.5
945.646	3241.83333
949.16	3294.83333
952.671	3333.5
956.179	3375.16667
959.685	3340.16667
963.188	3324.16667
966.688	3276.83333
970.185	3180.5
973.68	3125.16667
977.173	3080.83333
980.662	3043.83333
984.149	3041.83333
987.633	3042.5
991.114	3092.83333
994.593	3201.83333
998.069	3289.16667
1001.542	3383.5
1005.013	3316.5
1008.481	3121.5
1011.947	3079.5
1015.409	3069.83333
1018.869	3076.16667
1022.327	3047.5
1025.782	3063.5
1029.234	3047.16667
1032.683	3014.16667
1036.13	2887.5
1039.574	2803.16667
1043.016	2712.16667
1046.455	2665.16667
1049.891	2663.83333
1053.325	2677.5
1056.756	2661.83333
1060.184	2715.5
1063.61	2709.5
1067.033	2736.83333
1070.454	2745.5
1073.872	2778.5
1077.287	2778.83333
1080.7	2775.16667
1084.11	2796.5
1087.517	2748.16667
1090.922	2724.5
1094.325	2687.83333
1097.724	2658.16667
1101.122	2658.83333
1104.516	2650.16667
1107.908	2675.16667
1111.298	2704.83333
1114.684	2743.5
1118.069	2786.16667
1121.45	2823.5
1124.83	2826.83333
1128.206	2860.83333
1131.58	2898.16667
1134.951	2996.16667
1138.32	3110.83333
1141.687	3230.16667
1145.05	3317.5
1148.412	3354.16667
1151.77	3309.5
1155.126	3333.16667
1158.48	3312.16667
1161.831	3359.5
1165.18	3367.5
1168.525	3417.16667
1171.869	3418.16667
1175.21	3425.83333
1178.548	3488.16667
1181.884	3488.16667
1185.217	3502.83333
1188.548	3543.16667
1191.877	3633.5
1195.202	3678.5
1198.526	3752.5
1201.846	3757.16667
1205.165	3749.16667
1208.48	3741.5
1211.794	3752.5
1215.104	3765.16667
1218.413	3746.5
1221.719	3729.5
1225.022	3676.16667
1228.323	3646.5
1231.621	3625.83333
1234.917	3608.16667
1238.21	3627.16667
1241.501	3617.83333
1244.79	3621.83333
1248.076	3635.16667
1251.359	3679.5
1254.64	3752.83333
1257.919	3741.5
1261.195	3833.83333
1264.468	3890.5
1267.74	3934.83333
1271.008	3955.16667
1274.275	3936.5
1277.538	3902.5
1280.8	3904.83333
1284.059	3917.5
1287.315	3947.16667
1290.569	3952.16667
1293.821	3988.16667
1297.07	3979.83333
1300.317	3990.83333
1303.562	3967.83333
1306.803	3940.16667
1310.043	3908.83333
1313.28	3830.5
1316.515	3837.5
1319.747	3810.16667
1322.977	3746.16667
1326.204	3698.83333
1329.429	3671.83333
1332.652	3655.16667
1335.872	3644.83333
1339.09	3607.16667
1342.306	3589.5
1345.519	3568.16667
1348.729	3526.16667
1351.938	3533.83333
1355.144	3496.83333
1358.347	3443.16667
1361.548	3438.16667
1364.747	3444.5
1367.944	3429.16667
1371.138	3430.16667
1374.329	3472.16667
1377.518	3498.83333
1380.705	3533.83333
1383.89	3494.16667
1387.072	3398.83333
1390.252	3244.5
1393.429	3168.16667
1396.605	3061.16667
1399.777	2994.83333
1402.948	2963.5
1406.116	2907.83333
1409.282	2939.16667
1412.445	2924.5
1415.606	2979.5
1418.765	3009.83333
1421.921	3081.16667
1425.075	3140.16667
1428.227	3264.5
1431.376	3424.16667
1434.524	3489.5
1437.668	3562.5
1440.811	3603.16667
1443.951	3646.16667
1447.089	3644.5
1450.224	3646.83333
1453.357	3622.83333
1456.488	3632.5
1459.617	3559.16667
1462.743	3508.5
1465.867	3423.16667
1468.989	3393.5
1472.108	3372.83333
1475.225	3320.16667
1478.34	3254.5
1481.453	3301.5
1484.563	3290.5
1487.671	3367.83333
1490.776	3394.5
1493.88	3482.16667
1496.981	3532.16667
1500.08	3633.5
1503.176	3673.5
1506.271	3717.5
1509.363	3771.5
1512.452	3806.83333
1515.54	3864.83333
1518.625	3924.83333
1521.708	4015.83333
1524.789	4195.5
1527.867	4392.16667
1530.944	4621.83333
1534.018	4782.5
1537.089	4972.5
1540.159	4980.16667
1543.226	4928.5
1546.291	4789.5
1549.354	4694.16667
1552.415	4546.83333
1555.473	4442.5
1558.529	4379.5
1561.583	4349.5
1564.634	4311.5
1567.684	4308.83333
1570.731	4322.16667
1573.776	4347.16667
1576.819	4392.16667
1579.859	4442.16667
1582.898	4506.5
1585.934	4560.16667
1588.968	4539.16667
1591.999	4532.5
1595.029	4508.5
1598.056	4519.83333
1601.081	4530.5
1604.104	4508.16667
1607.125	4446.5
1610.144	4360.5
1613.16	4246.16667
1616.174	4166.83333
1619.186	4046.16667
1622.196	3937.83333
1625.203	3865.83333
1628.209	3767.83333
1631.212	3771.83333
1634.213	3722.5
1637.212	3672.16667
1640.209	3632.5
1643.203	3511.83333
1646.196	3409.83333
1649.186	3264.5
1652.174	3182.5
1655.16	3052.5
1658.144	2951.5
1661.125	2827.5
1664.105	2685.16667
1667.082	2566.83333
1670.057	2421.83333
1673.03	2270.16667
1676.001	2141.5
1678.97	2014.5
1681.937	1892.5
1684.901	1825.83333
1687.863	1743.16667
1690.824	1689.5
1693.782	1666.5
1696.738	1592.5
1699.692	1588.5
1702.643	1544.5
1705.593	1526.16667
1708.54	1493.83333
1711.486	1516.16667
1714.429	1458.5
1717.37	1458.16667
1720.309	1432.83333
1723.246	1427.16667
1726.181	1391.16667
1729.113	1414.5
1732.044	1406.16667
1734.972	1379.83333
1737.899	1371.5
1740.823	1362.16667
1743.745	1378.5
1746.665	1340.16667
1749.583	1295.5
1752.499	1282.16667
1755.413	1271.83333
1758.325	1243.83333
1761.235	1236.5
1764.142	1232.83333
1767.048	1195.16667
1769.951	1205.5
1772.852	1202.5
1775.752	1182.16667
1778.649	1191.5
1781.544	1199.16667
1784.437	1177.83333
1787.328	1174.83333
1790.217	1158.16667
1793.104	1149.5
1795.989	1143.5
1798.872	1132.5
1801.753	1160.5
1804.631	1128.83333
1807.508	1159.16667
1810.383	1127.5
1813.255	1138.83333
1816.126	1122.16667
1818.994	1111.16667
1821.861	1111.83333
1824.725	1108.83333
1827.587	1105.16667
1830.448	1095.5
1833.306	1071.16667
1836.162	1094.5
1839.017	1080.16667
1841.869	1077.16667
1844.719	1087.16667
1847.567	1048.16667
1850.414	1048.83333
1853.258	1057.83333
1856.1	1086.83333
1858.94	1086.83333
1861.778	1065.83333
1864.614	1045.16667
1867.448	1069.83333
1870.28	1047.83333
1873.111	1072.83333
1875.939	1070.5
1878.765	1066.83333
1881.589	1048.5
1884.411	1060.83333
1887.231	1058.83333
1890.049	1043.83333
1892.865	1042.16667
1895.68	1031.16667
1898.492	1032.16667
1901.302	1004.83333
1904.11	1023.5
1906.916	1014.5
1909.721	1012.5
1912.523	1023.5
1915.323	1001.16667
1918.122	1000.5
1920.918	1011.16667
1923.712	990.5
1926.505	1003.5
1929.295	981.83333
1932.084	1007.83333
1934.87	1013.83333
1937.655	980.5
1940.438	984.83333
1943.218	993.16667
1945.997	984.5
1948.774	1012.83333
1951.549	997.83333
1954.322	982.16667
1957.093	991.83333
1959.862	976.83333
1962.629	969.16667
1965.394	963.5
1968.157	960.5
1970.918	971.83333
1973.678	955.16667
1976.435	979.16667
1979.19	958.83333
1981.944	958.83333
1984.696	945.5
1987.445	936.16667
1990.193	950.16667
1992.939	963.83333
1995.683	945.16667
1998.425	919.83333
2001.165	966.5
2003.903	940.83333
2006.639	936.5
2009.374	931.16667
2012.106	940.83333
2014.837	918.83333
2017.566	935.5
2020.292	943.16667
2023.017	949.83333
2025.74	937.16667
2028.461	920.5
2031.18	933.5
2033.898	925.5
2036.613	928.83333
2039.327	919.83333
2042.038	897.83333
2044.748	922.16667
2047.456	912.16667
2050.162	902.5
2052.866	902.83333
2055.568	910.5
2058.268	888.5
2060.967	905.83333
2063.663	893.83333
2066.358	905.16667
2069.051	875.83333
2071.742	898.5
2074.431	905.5
2077.118	889.83333
2079.804	899.5
2082.487	893.16667
2085.169	907.83333
2087.849	923.5
2090.527	903.83333
2093.203	921.83333
2095.877	913.16667
2098.55	926.5
2101.22	937.16667
2103.889	939.16667
2106.556	944.5
2109.221	974.16667
2111.884	989.16667
2114.546	1052.5
2117.205	1107.83333
2119.863	1178.16667
2122.519	1250.5
2125.173	1301.16667
2127.825	1377.5
2130.475	1382.16667
2133.124	1330.83333
2135.771	1284.16667
2138.416	1249.83333
2141.059	1165.16667
2143.7	1147.16667
2146.339	1078.16667
2148.977	1027.16667
2151.613	1013.16667
2154.247	979.16667
2156.879	982.16667
2159.51	965.5
2162.138	941.83333
2164.765	944.83333
2167.39	930.5
2170.013	940.5
2172.634	930.83333
2175.254	916.5
2177.872	927.83333
2180.488	889.5
2183.102	897.5
2185.714	880.5
2188.325	870.5
2190.934	879.5
2193.541	875.5
2196.146	868.83333
2198.75	856.83333
2201.351	859.83333
2203.951	846.83333
2206.549	868.5
2209.146	845.5
2211.74	840.5
2214.333	846.83333
2216.924	825.83333
2219.514	823.5
2222.101	815.83333
2224.687	833.5
2227.271	816.5
2229.853	815.83333
2232.433	808.5
2235.012	820.5
2237.589	815.16667
2240.164	821.5
2242.738	816.83333
2245.309	796.83333
2247.879	807.5
2250.448	801.83333
2253.014	780.5
2255.579	769.16667
2258.142	774.83333
2260.703	759.83333
2263.262	774.83333
2265.82	754.5
2268.376	766.83333
2270.93	764.5
2273.483	747.5
2276.033	747.83333
2278.583	759.16667
2281.13	755.16667
2283.675	745.83333
2286.219	753.83333
2288.761	746.5
2291.302	753.83333
2293.841	758.16667
2296.377	728.83333
2298.913	750.83333
2301.446	751.83333
2303.978	744.5
2306.508	731.16667
2309.037	742.5
2311.563	735.5
2314.088	748.16667
2316.612	719.16667
2319.133	745.83333
2321.653	728.83333
2324.171	712.5
2326.688	734.83333
2329.202	728.5
2331.715	718.16667
2334.227	723.16667
2336.736	720.16667
2339.244	714.16667
2341.751	715.16667
2344.255	732.83333
2346.758	713.5
2349.259	706.5
2351.759	706.16667
2354.257	710.83333
2356.753	716.5
2359.247	721.5
2361.74	727.16667
2364.231	714.83333
2366.721	722.16667
2369.209	710.5
2371.695	709.83333
2374.179	711.16667
2376.662	705.16667
2379.143	720.16667
2381.622	709.5
2384.1	720.16667
2386.576	715.83333
2389.051	730.16667
2391.524	737.16667
2393.995	720.5
2396.464	707.83333
2398.932	705.16667
2401.398	705.83333
2403.863	703.16667
2406.325	710.5
2408.787	691.83333
2411.246	705.16667
2413.704	702.16667
2416.16	707.16667
2418.615	703.16667
2421.068	713.16667
2423.519	719.16667
2425.969	691.83333
2428.417	717.83333
2430.863	722.83333
2433.308	714.83333
2435.751	702.83333
2438.193	706.16667
2440.633	721.5
2443.071	718.83333
2445.508	693.16667
2447.943	712.5
2450.376	697.83333
2452.808	710.83333
2455.238	698.5
2457.667	726.16667
2460.093	707.5
2462.519	698.5
2464.942	703.16667
2467.365	715.5
2469.785	702.83333
2472.204	711.83333
2474.621	703.5
2477.037	717.16667
2479.451	698.16667
2481.863	699.83333
2484.274	696.5
2486.683	694.16667
2489.091	712.83333
2491.497	702.5
2493.901	719.83333
2496.304	708.83333
2498.705	713.83333
2501.105	698.83333
2503.503	735.5
2505.899	695.5
2508.294	737.5
2510.687	700.83333
2513.079	702.83333
2515.469	695.16667
2517.858	704.83333
2520.245	722.83333
2522.63	703.83333
2525.014	703.83333
2527.396	697.16667
2529.776	704.83333
2532.156	704.16667
2534.533	682.83333
2536.909	697.83333
2539.283	697.5
2541.656	703.83333
2544.027	723.16667
2546.397	714.16667
2548.765	715.16667
2551.131	697.5
2553.496	706.16667
2555.86	723.16667
2558.221	712.16667
2560.582	706.83333
2562.94	701.83333
2565.298	716.16667
2567.653	734.5
2570.007	698.16667
2572.36	714.5
2574.711	710.83333
2577.06	732.16667
2579.408	718.16667
2581.754	713.5
2584.099	734.16667
2586.442	725.16667
2588.784	731.5
2591.124	716.83333
2593.463	711.83333
2595.8	721.5
2598.135	700.83333
2600.469	723.16667
2602.802	732.83333
2605.133	724.83333
2607.462	710.5
2609.79	719.5
2612.116	731.5
2614.441	730.83333
2616.764	723.5
2619.086	729.5
2621.406	729.5
2623.725	750.16667
2626.042	738.5
2628.358	729.16667
2630.672	737.16667
2632.985	743.5
2635.296	742.83333
2637.606	753.16667
2639.914	725.16667
2642.22	746.83333
2644.525	738.83333
2646.829	751.16667
2649.131	761.5
2651.432	762.16667
2653.731	749.5
2656.028	768.16667
2658.324	769.16667
2660.619	761.5
2662.912	774.5
2665.204	758.16667
2667.494	779.5
2669.782	765.16667
2672.07	775.16667
2674.355	780.5
2676.639	772.83333
2678.922	777.16667
2681.203	782.83333
2683.483	761.5
2685.761	764.5
2688.038	779.5
2690.313	796.16667
2692.587	788.5
2694.859	783.83333
2697.13	786.16667
2699.399	788.5
2701.667	816.83333
2703.933	819.5
2706.198	811.83333
2708.461	821.16667
2710.723	821.16667
2712.984	824.16667
2715.243	833.5
2717.5	826.16667
2719.757	847.5
2722.011	850.5
2724.264	843.5
2726.516	863.5
2728.766	844.16667
2731.015	850.5
2733.262	855.16667
2735.508	849.16667
2737.753	850.83333
2739.996	840.83333
2742.237	839.16667
2744.477	845.16667
2746.716	853.83333
2748.953	840.5
2751.189	838.5
2753.423	828.83333
2755.656	838.5
2757.887	821.83333
2760.117	837.83333
2762.346	830.5
2764.573	828.83333
2766.798	819.16667
2769.022	832.5
2771.245	831.5
2773.467	841.5
2775.686	855.5
2777.905	844.16667
2780.122	843.83333
2782.337	871.16667
2784.552	866.5
2786.764	877.5
2788.976	871.5
2791.186	881.16667
2793.394	889.83333
2795.601	888.83333
2797.807	917.5
2800.011	917.16667
2802.214	929.5
2804.415	921.83333
2806.615	931.16667
2808.814	946.83333
2811.011	948.83333
2813.206	941.16667
2815.401	969.16667
2817.594	975.5
2819.785	986.5
2821.975	975.5
2824.164	979.5
2826.351	1020.16667
2828.537	1034.16667
2830.722	1036.16667
2832.905	1057.16667
2835.086	1091.16667
2837.267	1130.16667
2839.445	1151.5
2841.623	1167.83333
2843.799	1197.16667
2845.974	1251.83333
2848.147	1284.83333
2850.319	1306.83333
2852.489	1349.5
2854.659	1355.83333
2856.826	1378.83333
2858.993	1400.16667
2861.158	1387.83333
2863.321	1389.83333
2865.483	1401.83333
2867.644	1408.16667
2869.804	1403.16667
2871.962	1396.5
2874.118	1390.5
2876.274	1388.83333
2878.428	1369.5
2880.58	1387.16667
2882.731	1374.16667
2884.881	1377.5
2887.03	1382.5
2889.177	1362.5
2891.322	1397.16667
2893.467	1381.83333
2895.61	1383.83333
2897.751	1425.16667
2899.892	1410.83333
2902.03	1427.16667
2904.168	1437.83333
2906.304	1429.5
2908.439	1455.83333
2910.572	1438.5
2912.704	1454.5
2914.835	1444.16667
2916.965	1456.16667
2919.093	1471.83333
2921.219	1430.83333
2923.345	1448.16667
2925.469	1419.83333
2927.591	1419.16667
2929.712	1379.83333
2931.832	1377.83333
2933.951	1347.5
2936.068	1331.83333
2938.184	1308.83333
2940.299	1274.5
2942.412	1233.83333
2944.524	1224.16667
2946.634	1200.83333
2948.744	1149.16667
2950.851	1162.83333
2952.958	1119.16667
2955.063	1128.5
2957.167	1097.5
2959.269	1070.16667
2961.371	1093.5
2963.471	1048.16667
2965.569	1043.5
2967.666	1024.83333
2969.762	1030.83333
2971.857	996.83333
2973.95	974.83333
2976.042	958.16667
2978.133	946.5
2980.222	927.83333
2982.31	914.5
2984.396	894.5
2986.482	889.16667
2988.566	885.5
2990.648	871.5
2992.73	871.5
2994.81	862.5
2996.889	879.5
2998.966	860.83333
3001.042	874.5
3003.117	860.83333
3005.191	854.16667
3007.263	845.5
3009.334	844.16667
3011.403	832.5
3013.472	811.16667
3015.539	809.83333
3017.604	820.5
3019.669	783.5
3021.732	773.16667
3023.794	780.83333
3025.854	769.16667
3027.914	777.16667
3029.971	777.5
3032.028	779.5
3034.083	775.5
3036.137	750.83333
3038.19	735.5
3040.242	726.16667
3042.292	708.16667
3044.341	700.5
3046.388	708.83333
3048.435	691.5
3050.48	703.83333
3052.524	698.16667
3054.566	668.5
3056.607	682.16667
3058.647	669.83333
3060.686	632.16667
3062.723	624.83333
3064.759	611.16667
3066.794	-0.83333
3068.828	-2.83333
3070.86	-1.16667
