-0.839	430.33333
3.438	474.33333
7.711	129.66667
11.981	53.66667
16.247	44
20.509	42.66667
24.768	41.66667
29.024	46.66667
33.276	40.33333
37.524	50.66667
41.769	39
46.01	36.66667
50.247	51
54.481	62
58.712	65.66667
62.939	48.66667
67.162	58.33333
71.382	56
75.599	48
79.812	66.66667
84.021	79.33333
88.227	59.66667
92.429	65.66667
96.628	49
100.823	70.33333
105.015	76.66667
109.204	73.66667
113.388	73.66667
117.57	73.33333
121.748	86.33333
125.922	75.66667
130.093	96.33333
134.261	103.66667
138.425	95.66667
142.585	143
146.742	138
150.896	167
155.046	208
159.193	336.66667
163.336	566
167.476	1043.33333
171.613	1923.66667
175.746	3204.33333
179.875	4763.33333
184.002	6213.66667
188.124	7153.33333
192.244	7462.33333
196.36	7306.33333
200.472	7066.66667
204.581	6839.33333
208.687	6592.33333
212.79	6474.66667
216.889	6441
220.984	6477
225.077	6505.66667
229.165	6572.66667
233.251	6567
237.333	6621.66667
241.412	6586.33333
245.487	6518
249.559	6455.66667
253.628	6389.33333
257.694	6369.66667
261.756	6309.66667
265.814	6209
269.87	6056.33333
273.922	5858
277.97	5780.66667
282.016	5709.33333
286.058	5688.33333
290.097	5770.66667
294.132	5830.33333
298.164	5745.66667
302.193	5500
306.219	5106.33333
310.241	4612.33333
314.26	4158.66667
318.276	3802.33333
322.288	3539.66667
326.297	3318.66667
330.303	3153.66667
334.305	3054.66667
338.305	2965.66667
342.301	2923.33333
346.294	2876.66667
350.283	2834.66667
354.269	2808.33333
358.252	2799
362.232	2755.33333
366.209	2727
370.182	2704
374.152	2687.33333
378.119	2683
382.083	2662.66667
386.043	2695.33333
390	2618.66667
393.954	2631.66667
397.905	2595.33333
401.852	2575.66667
405.797	2555.66667
409.738	2523.33333
413.676	2511.33333
417.61	2509.66667
421.542	2463.33333
425.47	2464.66667
429.396	2428
433.318	2394.33333
437.236	2386
441.152	2410
445.065	2352
448.974	2376.33333
452.88	2322.33333
456.783	2304
460.683	2299.33333
464.58	2286.33333
468.473	2287.33333
472.364	2289.33333
476.251	2291.33333
480.135	2320.66667
484.016	2326.66667
487.894	2345
491.769	2366.33333
495.641	2375.33333
499.509	2365
503.375	2378.33333
507.237	2372
511.096	2351.66667
514.952	2363
518.805	2411.66667
522.655	2400
526.502	2342
530.346	2349.66667
534.187	2363.66667
538.024	2379.66667
541.859	2378.33333
545.69	2401.33333
549.519	2377
553.344	2352
557.166	2323.66667
560.985	2282.33333
564.802	2276
568.615	2223.66667
572.425	2187
576.232	2174.33333
580.036	2151
583.836	2179.66667
587.634	2180.33333
591.429	2189.66667
595.221	2221.66667
599.01	2241.66667
602.796	2282.66667
606.578	2292.33333
610.358	2313.33333
614.135	2260.33333
617.909	2266.66667
621.679	2270.33333
625.447	2254.66667
629.212	2270.33333
632.973	2248.33333
636.732	2258.66667
640.488	2258.33333
644.241	2251.33333
647.991	2216.66667
651.737	2246.33333
655.481	2212.33333
659.222	2229.33333
662.96	2260.66667
666.695	2240.66667
670.427	2250.66667
674.156	2271.66667
677.882	2256.66667
681.605	2264.33333
685.325	2221.33333
689.043	2234.33333
692.757	2235
696.468	2224.66667
700.177	2237.33333
703.882	2233.66667
707.585	2208.66667
711.284	2211
714.981	2216
718.675	2242.66667
722.366	2242
726.054	2218.66667
729.739	2246.33333
733.421	2216.33333
737.1	2231.66667
740.777	2265.66667
744.45	2255
748.121	2276.66667
751.789	2348.66667
755.453	2305.33333
759.115	2325.33333
762.774	2367.66667
766.431	2356.66667
770.084	2396.66667
773.734	2441.33333
777.382	2487
781.027	2522.66667
784.669	2543.33333
788.308	2536
791.944	2575.66667
795.577	2572
799.208	2602
802.835	2612.66667
806.46	2628.66667
810.082	2667
813.701	2671.33333
817.317	2697.33333
820.931	2695.33333
824.542	2699.33333
828.149	2672.33333
831.754	2608
835.357	2612
838.956	2618
842.553	2588
846.146	2585.33333
849.737	2573
853.326	2589
856.911	2613.33333
860.493	2630.66667
864.073	2665.66667
867.65	2708.66667
871.225	2751
874.796	2737.66667
878.365	2734
881.931	2758.33333
885.494	2779.33333
889.054	2778.33333
892.612	2794
896.166	2738.33333
899.719	2731
903.268	2705
906.814	2689.66667
910.358	2672
913.899	2660.33333
917.438	2679.66667
920.973	2678
924.506	2707.66667
928.036	2752.66667
931.564	2770.33333
935.088	2783.33333
938.61	2823.33333
942.129	2827.33333
945.646	2918.33333
949.16	2990.66667
952.671	3078
956.179	3098
959.685	3072.66667
963.188	3072.66667
966.688	3026.33333
970.185	2922.33333
973.68	2846.33333
977.173	2836
980.662	2808.33333
984.149	2795.33333
987.633	2813.33333
991.114	2872.33333
994.593	2946.66667
998.069	3037.33333
1001.542	3140.66667
1005.013	3069.33333
1008.481	2879.33333
1011.947	2854.66667
1015.409	2831
1018.869	2837
1022.327	2819.66667
1025.782	2800.33333
1029.234	2815.33333
1032.683	2778.33333
1036.13	2698.66667
1039.574	2579.66667
1043.016	2505.66667
1046.455	2471
1049.891	2442
1053.325	2439.33333
1056.756	2454.33333
1060.184	2478.33333
1063.61	2490.33333
1067.033	2496.33333
1070.454	2495.33333
1073.872	2525.66667
1077.287	2509.66667
1080.7	2546.66667
1084.11	2539.33333
1087.517	2532.66667
1090.922	2485.33333
1094.325	2432
1097.724	2431
1101.122	2427.33333
1104.516	2441
1107.908	2430.66667
1111.298	2464
1114.684	2499
1118.069	2527
1121.45	2559
1124.83	2556
1128.206	2561.66667
1131.58	2635
1134.951	2723.33333
1138.32	2793.33333
1141.687	2923.66667
1145.05	3000.33333
1148.412	3026
1151.77	3024.33333
1155.126	3014.33333
1158.48	2978.66667
1161.831	3009
1165.18	3015.66667
1168.525	3069
1171.869	3111
1175.21	3128
1178.548	3165.33333
1181.884	3194.66667
1185.217	3214
1188.548	3247
1191.877	3328
1195.202	3423.33333
1198.526	3459.66667
1201.846	3489.33333
1205.165	3482.66667
1208.48	3474.66667
1211.794	3474.66667
1215.104	3476.66667
1218.413	3479
1221.719	3463.33333
1225.022	3415.66667
1228.323	3396.33333
1231.621	3378
1234.917	3355
1238.21	3371.66667
1241.501	3351.33333
1244.79	3383.33333
1248.076	3356.66667
1251.359	3402
1254.64	3451
1257.919	3470.66667
1261.195	3523.66667
1264.468	3609
1267.74	3664.33333
1271.008	3687.33333
1274.275	3662
1277.538	3624.66667
1280.8	3619
1284.059	3652
1287.315	3664
1290.569	3705.33333
1293.821	3718
1297.07	3726
1300.317	3732.66667
1303.562	3747.66667
1306.803	3713
1310.043	3671.66667
1313.28	3618.66667
1316.515	3588.66667
1319.747	3555
1322.977	3498.66667
1326.204	3454.66667
1329.429	3398
1332.652	3377
1335.872	3368.33333
1339.09	3314
1342.306	3290.66667
1345.519	3267
1348.729	3259.33333
1351.938	3239
1355.144	3192.33333
1358.347	3169.33333
1361.548	3158.33333
1364.747	3171.66667
1367.944	3148.66667
1371.138	3184.33333
1374.329	3217
1377.518	3257
1380.705	3307.33333
1383.89	3276.66667
1387.072	3187.66667
1390.252	3050.66667
1393.429	2943.33333
1396.605	2827.66667
1399.777	2741
1402.948	2715.66667
1406.116	2663.66667
1409.282	2693.66667
1412.445	2694.33333
1415.606	2724.33333
1418.765	2774.33333
1421.921	2844.33333
1425.075	2919.66667
1428.227	3038
1431.376	3190
1434.524	3310.33333
1437.668	3390.33333
1440.811	3401.33333
1443.951	3443.33333
1447.089	3433.66667
1450.224	3447
1453.357	3439.33333
1456.488	3389
1459.617	3341
1462.743	3297
1465.867	3233.33333
1468.989	3193.33333
1472.108	3126.33333
1475.225	3074
1478.34	3037
1481.453	3033
1484.563	3040
1487.671	3077.33333
1490.776	3141.33333
1493.88	3203.33333
1496.981	3269.66667
1500.08	3333.33333
1503.176	3378.33333
1506.271	3441.66667
1509.363	3472.66667
1512.452	3518
1515.54	3559
1518.625	3632
1521.708	3747
1524.789	3923
1527.867	4136
1530.944	4367
1534.018	4592
1537.089	4716.33333
1540.159	4724
1543.226	4698.33333
1546.291	4521.66667
1549.354	4379.33333
1552.415	4254
1555.473	4132.33333
1558.529	4069.66667
1561.583	4031
1564.634	3970
1567.684	3982
1570.731	4009
1573.776	4000
1576.819	4065.33333
1579.859	4074
1582.898	4152
1585.934	4137.66667
1588.968	4217
1591.999	4170
1595.029	4188
1598.056	4203.33333
1601.081	4233
1604.104	4206
1607.125	4180.33333
1610.144	4056.33333
1613.16	3997.66667
1616.174	3890.66667
1619.186	3805.33333
1622.196	3705
1625.203	3610.66667
1628.209	3565
1631.212	3502.33333
1634.213	3517
1637.212	3492.66667
1640.209	3441
1643.203	3316.66667
1646.196	3228
1649.186	3133
1652.174	3040
1655.16	2941.33333
1658.144	2828
1661.125	2717.66667
1664.105	2575.66667
1667.082	2461.66667
1670.057	2329.33333
1673.03	2186
1676.001	2032.66667
1678.97	1863
1681.937	1747.66667
1684.901	1666.33333
1687.863	1607.33333
1690.824	1526.66667
1693.782	1509
1696.738	1439.33333
1699.692	1412.33333
1702.643	1377
1705.593	1352
1708.54	1334.66667
1711.486	1337.33333
1714.429	1293
1717.37	1305.33333
1720.309	1268
1723.246	1284.66667
1726.181	1247
1729.113	1249.33333
1732.044	1232.66667
1734.972	1202.33333
1737.899	1219
1740.823	1215
1743.745	1194.33333
1746.665	1154
1749.583	1123.33333
1752.499	1111.33333
1755.413	1118.66667
1758.325	1079.66667
1761.235	1078.66667
1764.142	1059.33333
1767.048	1047.33333
1769.951	1045.33333
1772.852	1035.66667
1775.752	1024.33333
1778.649	1004
1781.544	1028.66667
1784.437	990
1787.328	990.66667
1790.217	985.66667
1793.104	977.66667
1795.989	976.33333
1798.872	957
1801.753	985
1804.631	984.33333
1807.508	979.33333
1810.383	956.66667
1813.255	955
1816.126	964
1818.994	950.66667
1821.861	942.66667
1824.725	948.66667
1827.587	946.66667
1830.448	936
1833.306	917
1836.162	927.33333
1839.017	909
1841.869	920.66667
1844.719	916.66667
1847.567	903.66667
1850.414	890
1853.258	894.66667
1856.1	927
1858.94	910
1861.778	897.33333
1864.614	890.33333
1867.448	895.33333
1870.28	869.66667
1873.111	909.66667
1875.939	884.33333
1878.765	900
1881.589	883.33333
1884.411	887.66667
1887.231	895.33333
1890.049	888.33333
1892.865	878.66667
1895.68	874.66667
1898.492	880.66667
1901.302	866.33333
1904.11	868.66667
1906.916	852.33333
1909.721	851.33333
1912.523	857.66667
1915.323	834.66667
1918.122	834.66667
1920.918	853
1923.712	838.33333
1926.505	841.33333
1929.295	822.33333
1932.084	845.66667
1934.87	833.33333
1937.655	828.66667
1940.438	832.33333
1943.218	831
1945.997	824
1948.774	848
1951.549	843.33333
1954.322	829.33333
1957.093	822.33333
1959.862	811
1962.629	815.66667
1965.394	798.33333
1968.157	801.33333
1970.918	814.66667
1973.678	802.66667
1976.435	808.66667
1979.19	798.33333
1981.944	784.66667
1984.696	785.66667
1987.445	779.66667
1990.193	791.66667
1992.939	802
1995.683	799.33333
1998.425	767.33333
2001.165	800
2003.903	769.33333
2006.639	772.66667
2009.374	765
2012.106	780
2014.837	762.33333
2017.566	781.33333
2020.292	776
2023.017	773.66667
2025.74	761
2028.461	770.33333
2031.18	760.33333
2033.898	751.33333
2036.613	764.66667
2039.327	764.66667
2042.038	747.66667
2044.748	755
2047.456	753
2050.162	733.33333
2052.866	732.66667
2055.568	753
2058.268	745.66667
2060.967	745.66667
2063.663	728
2066.358	744.33333
2069.051	728.66667
2071.742	733.66667
2074.431	738.66667
2077.118	733.33333
2079.804	724
2082.487	737
2085.169	735.66667
2087.849	757
2090.527	735.66667
2093.203	748.33333
2095.877	746
2098.55	740.33333
2101.22	754.66667
2103.889	764
2106.556	761
2109.221	793.66667
2111.884	810.66667
2114.546	866.66667
2117.205	916
2119.863	999.66667
2122.519	1063.33333
2125.173	1136
2127.825	1211
2130.475	1218.66667
2133.124	1172.66667
2135.771	1155.66667
2138.416	1077.33333
2141.059	1010.33333
2143.7	979.33333
2146.339	896.33333
2148.977	868.66667
2151.613	854.33333
2154.247	817
2156.879	802.33333
2159.51	785.33333
2162.138	763
2164.765	762.33333
2167.39	743
2170.013	765.66667
2172.634	764
2175.254	743.66667
2177.872	767
2180.488	732
2183.102	736.66667
2185.714	717.66667
2188.325	702
2190.934	696.66667
2193.541	701.66667
2196.146	688.66667
2198.75	682
2201.351	683.33333
2203.951	663
2206.549	675.33333
2209.146	658
2211.74	662
2214.333	662.33333
2216.924	650.33333
2219.514	664
2222.101	634.66667
2224.687	661
2227.271	642.33333
2229.853	637
2232.433	624
2235.012	641.66667
2237.589	628.66667
2240.164	646
2242.738	643.33333
2245.309	618
2247.879	628.33333
2250.448	636
2253.014	612.66667
2255.579	598.66667
2258.142	597
2260.703	586.33333
2263.262	588.66667
2265.82	594.66667
2268.376	586.33333
2270.93	564
2273.483	576.33333
2276.033	574
2278.583	572
2281.13	573
2283.675	563.66667
2286.219	553.66667
2288.761	564
2291.302	566.33333
2293.841	569
2296.377	542
2298.913	554.33333
2301.446	563.66667
2303.978	547
2306.508	538
2309.037	534
2311.563	555.66667
2314.088	550.66667
2316.612	525
2319.133	537.33333
2321.653	525.66667
2324.171	530.33333
2326.688	538.66667
2329.202	530
2331.715	541.66667
2334.227	529.66667
2336.736	526
2339.244	514
2341.751	514.33333
2344.255	534
2346.758	519
2349.259	510.66667
2351.759	518.66667
2354.257	508.33333
2356.753	507.33333
2359.247	509.33333
2361.74	530.66667
2364.231	510.33333
2366.721	503.66667
2369.209	509
2371.695	504
2374.179	507.33333
2376.662	498
2379.143	506.33333
2381.622	489.66667
2384.1	507
2386.576	500.66667
2389.051	506.33333
2391.524	519.66667
2393.995	510.33333
2396.464	493
2398.932	490.66667
2401.398	486
2403.863	486.66667
2406.325	483.66667
2408.787	491.66667
2411.246	475.33333
2413.704	476.66667
2416.16	470.33333
2418.615	484.33333
2421.068	491
2423.519	481
2425.969	467
2428.417	481
2430.863	496.33333
2433.308	486.66667
2435.751	487.33333
2438.193	477.33333
2440.633	485.66667
2443.071	481
2445.508	471.66667
2447.943	470.66667
2450.376	466.66667
2452.808	476.66667
2455.238	462.66667
2457.667	493.33333
2460.093	468.66667
2462.519	457.33333
2464.942	463.33333
2467.365	472.66667
2469.785	470.33333
2472.204	462.66667
2474.621	457.33333
2477.037	481.33333
2479.451	445.66667
2481.863	446.33333
2484.274	452
2486.683	455
2489.091	455.66667
2491.497	463.33333
2493.901	459.33333
2496.304	452.33333
2498.705	464.66667
2501.105	448
2503.503	474
2505.899	440.33333
2508.294	465.66667
2510.687	443.33333
2513.079	444.33333
2515.469	437.33333
2517.858	441
2520.245	452.33333
2522.63	436.66667
2525.014	440
2527.396	439.33333
2529.776	429
2532.156	444.66667
2534.533	427
2536.909	436.33333
2539.283	428.33333
2541.656	436.33333
2544.027	456.33333
2546.397	430
2548.765	429
2551.131	425
2553.496	427
2555.86	441.66667
2558.221	434
2560.582	422
2562.94	422
2565.298	421.66667
2567.653	436.33333
2570.007	421.33333
2572.36	432
2574.711	416.33333
2577.06	447.33333
2579.408	420.66667
2581.754	418
2584.099	426.66667
2586.442	423
2588.784	433.33333
2591.124	429.33333
2593.463	413
2595.8	422
2598.135	406.66667
2600.469	409
2602.802	436
2605.133	426.66667
2607.462	419
2609.79	400.66667
2612.116	418.33333
2614.441	422.33333
2616.764	421.33333
2619.086	426.66667
2621.406	411.66667
2623.725	419
2626.042	420.33333
2628.358	406
2630.672	414.66667
2632.985	433.33333
2635.296	421.33333
2637.606	427.66667
2639.914	411
2642.22	421.33333
2644.525	418.66667
2646.829	426.66667
2649.131	430.66667
2651.432	432.66667
2653.731	412.66667
2656.028	434.66667
2658.324	425.33333
2660.619	411.33333
2662.912	432.33333
2665.204	420.66667
2667.494	438
2669.782	412.66667
2672.07	439.33333
2674.355	438
2676.639	418.66667
2678.922	420.66667
2681.203	438.66667
2683.483	420.33333
2685.761	417
2688.038	429
2690.313	446.33333
2692.587	437.33333
2694.859	424
2697.13	428.33333
2699.399	428.66667
2701.667	447
2703.933	442.66667
2706.198	447.33333
2708.461	452
2710.723	459
2712.984	452
2715.243	468.66667
2717.5	450
2719.757	464
2722.011	457.33333
2724.264	478.66667
2726.516	483.66667
2728.766	465.66667
2731.015	471
2733.262	460.66667
2735.508	468
2737.753	461
2739.996	442.66667
2742.237	448.33333
2744.477	457
2746.716	449.66667
2748.953	449.33333
2751.189	454.33333
2753.423	437
2755.656	437
2757.887	439
2760.117	434.66667
2762.346	428
2764.573	429.33333
2766.798	425
2769.022	435
2771.245	441.66667
2773.467	438.33333
2775.686	445
2777.905	449
2780.122	454.66667
2782.337	460.66667
2784.552	448.33333
2786.764	463.33333
2788.976	456
2791.186	469.66667
2793.394	480.66667
2795.601	483
2797.807	479
2800.011	490
2802.214	506.33333
2804.415	508.66667
2806.615	499.66667
2808.814	523
2811.011	519.66667
2813.206	525
2815.401	530
2817.594	559.66667
2819.785	570
2821.975	555
2824.164	567.66667
2826.351	597
2828.537	618.33333
2830.722	619.66667
2832.905	629
2835.086	660.33333
2837.267	705.33333
2839.445	729.66667
2841.623	746.33333
2843.799	780.33333
2845.974	824.33333
2848.147	867
2850.319	891.66667
2852.489	945
2854.659	936
2856.826	961
2858.993	990
2861.158	974.66667
2863.321	978
2865.483	1002.66667
2867.644	992.33333
2869.804	997.66667
2871.962	972.33333
2874.118	984
2876.274	980.66667
2878.428	971.33333
2880.58	961.66667
2882.731	955
2884.881	975
2887.03	991.33333
2889.177	972.66667
2891.322	984.33333
2893.467	963.66667
2895.61	972.33333
2897.751	1020
2899.892	1008.66667
2902.03	1007.66667
2904.168	1023
2906.304	1034.66667
2908.439	1046.66667
2910.572	1027
2912.704	1048.66667
2914.835	1037
2916.965	1035.66667
2919.093	1057.66667
2921.219	1029.66667
2923.345	1042
2925.469	992.66667
2927.591	1002.33333
2929.712	971
2931.832	958.33333
2933.951	930
2936.068	905.33333
2938.184	885.66667
2940.299	853.66667
2942.412	827.66667
2944.524	789.33333
2946.634	764.33333
2948.744	704
2950.851	722.66667
2952.958	680.33333
2955.063	670.33333
2957.167	662
2959.269	625.33333
2961.371	643
2963.471	595.66667
2965.569	599.66667
2967.666	560
2969.762	549.66667
2971.857	522.33333
2973.95	520.66667
2976.042	506
2978.133	491.66667
2980.222	476
2982.31	450.33333
2984.396	441
2986.482	444.33333
2988.566	439
2990.648	423.33333
2992.73	418.66667
2994.81	409.33333
2996.889	413.66667
2998.966	391.66667
3001.042	403
3003.117	398.33333
3005.191	398
3007.263	389.66667
3009.334	386
3011.403	376.66667
3013.472	364.33333
3015.539	375.66667
3017.604	370.66667
3019.669	345.33333
3021.732	340.66667
3023.794	351.33333
3025.854	327
3027.914	327.66667
3029.971	342
3032.028	331.33333
3034.083	327.33333
3036.137	328.66667
3038.19	309.33333
3040.242	307.33333
3042.292	300.66667
3044.341	290
3046.388	310.33333
3048.435	283
3050.48	300.33333
3052.524	299.66667
3054.566	273.66667
3056.607	291
3058.647	279.66667
3060.686	262.33333
3062.723	252.66667
3064.759	248.66667
3066.794	1.66667
3068.828	-1.66667
3070.86	-2
