-0.839	413.875
3.438	442.875
7.711	126.875
11.981	56.54167
16.247	45.875
20.509	43.875
24.768	49.54167
29.024	50.54167
33.276	45.54167
37.524	52.20833
41.769	42.54167
46.01	38.875
50.247	54.20833
54.481	62.54167
58.712	69.875
62.939	50.20833
67.162	64.875
71.382	59.875
75.599	51.54167
79.812	66.54167
84.021	87.20833
88.227	60.875
92.429	66.20833
96.628	55.20833
100.823	70.54167
105.015	79.20833
109.204	79.54167
113.388	84.20833
117.57	78.20833
121.748	98.20833
125.922	86.875
130.093	103.20833
134.261	112.20833
138.425	111.875
142.585	146.54167
146.742	148.875
150.896	181.20833
155.046	226.875
159.193	363.875
163.336	613.54167
167.476	1146.54167
171.613	2092.875
175.746	3540.875
179.875	5268.20833
184.002	6861.875
188.124	7957.875
192.244	8284.20833
196.36	8215.54167
200.472	8007.875
204.581	7819.875
208.687	7592.875
212.79	7516.20833
216.889	7531.875
220.984	7591.54167
225.077	7669.20833
229.165	7747.54167
233.251	7802.875
237.333	7847.20833
241.412	7817.54167
245.487	7782.20833
249.559	7735.20833
253.628	7617.54167
257.694	7611.54167
261.756	7526.20833
265.814	7418.875
269.87	7236.54167
273.922	7073.20833
277.97	7007.20833
282.016	7006.54167
286.058	7016.54167
290.097	7158.875
294.132	7209.54167
298.164	7142.54167
302.193	6802.875
306.219	6263.54167
310.241	5688.875
314.26	5204.20833
318.276	4752.54167
322.288	4413.54167
326.297	4130.54167
330.303	3912.875
334.305	3808.875
338.305	3721.20833
342.301	3617.20833
346.294	3607.54167
350.283	3570.875
354.269	3513.54167
358.252	3501.54167
362.232	3493.54167
366.209	3435.875
370.182	3407.875
374.152	3401.20833
378.119	3395.875
382.083	3353.54167
386.043	3410.875
390	3328.875
393.954	3307.20833
397.905	3285.54167
401.852	3266.20833
405.797	3218.54167
409.738	3207.20833
413.676	3187.20833
417.61	3144.54167
421.542	3152.20833
425.47	3086.20833
429.396	3073.54167
433.318	3056.54167
437.236	3030.875
441.152	3054.20833
445.065	2998.875
448.974	2978.54167
452.88	2955.54167
456.783	2942.875
460.683	2929.54167
464.58	2928.54167
468.473	2940.54167
472.364	2943.54167
476.251	2966.54167
480.135	2973.54167
484.016	2981.875
487.894	3017.875
491.769	3008.54167
495.641	3013.54167
499.509	3043.20833
503.375	3026.875
507.237	3007.20833
511.096	2988.875
514.952	3003.54167
518.805	3029.20833
522.655	3010.20833
526.502	2971.875
530.346	2962.54167
534.187	2999.54167
538.024	3014.20833
541.859	3036.54167
545.69	3033.875
549.519	3015.875
553.344	2982.875
557.166	2940.20833
560.985	2924.20833
564.802	2887.875
568.615	2836.875
572.425	2784.875
576.232	2803.54167
580.036	2782.54167
583.836	2803.54167
587.634	2778.875
591.429	2785.875
595.221	2845.875
599.01	2850.54167
602.796	2901.875
606.578	2931.875
610.358	2920.20833
614.135	2898.875
617.909	2899.54167
621.679	2861.20833
625.447	2880.20833
629.212	2879.875
632.973	2878.875
636.732	2891.875
640.488	2878.875
644.241	2845.54167
647.991	2828.20833
651.737	2862.20833
655.481	2824.20833
659.222	2821.20833
662.96	2828.54167
666.695	2852.20833
670.427	2844.54167
674.156	2875.20833
677.882	2882.20833
681.605	2878.54167
685.325	2844.54167
689.043	2870.20833
692.757	2840.875
696.468	2854.54167
700.177	2838.20833
703.882	2846.875
707.585	2843.20833
711.284	2863.20833
714.981	2868.20833
718.675	2862.875
722.366	2886.54167
726.054	2846.875
729.739	2854.875
733.421	2871.875
737.1	2858.54167
740.777	2890.20833
744.45	2894.875
748.121	2940.54167
751.789	2983.54167
755.453	2985.20833
759.115	2979.875
762.774	3033.20833
766.431	3010.20833
770.084	3091.875
773.734	3096.875
777.382	3159.875
781.027	3191.875
784.669	3214.54167
788.308	3248.20833
791.944	3257.875
795.577	3298.20833
799.208	3311.54167
802.835	3343.20833
806.46	3323.54167
810.082	3366.875
813.701	3376.54167
817.317	3413.20833
820.931	3417.54167
824.542	3384.20833
828.149	3385.54167
831.754	3349.54167
835.357	3352.20833
838.956	3341.875
842.553	3315.875
846.146	3319.54167
849.737	3279.54167
853.326	3322.54167
856.911	3300.20833
860.493	3380.875
864.073	3392.875
867.65	3426.20833
871.225	3466.54167
874.796	3481.20833
878.365	3501.875
881.931	3529.875
885.494	3557.20833
889.054	3509.875
892.612	3541.20833
896.166	3518.875
899.719	3454.54167
903.268	3426.20833
906.814	3424.875
910.358	3381.875
913.899	3374.875
917.438	3399.875
920.973	3390.875
924.506	3423.875
928.036	3492.20833
931.564	3486.875
935.088	3544.20833
938.61	3583.875
942.129	3586.875
945.646	3680.54167
949.16	3765.20833
952.671	3830.875
956.179	3854.875
959.685	3819.20833
963.188	3770.54167
966.688	3709.20833
970.185	3615.20833
973.68	3550.20833
977.173	3523.875
980.662	3514.54167
984.149	3517.20833
987.633	3528.20833
991.114	3581.54167
994.593	3684.54167
998.069	3803.875
1001.542	3914.875
1005.013	3851.875
1008.481	3636.20833
1011.947	3584.875
1015.409	3551.875
1018.869	3564.54167
1022.327	3565.20833
1025.782	3548.54167
1029.234	3572.875
1032.683	3530.20833
1036.13	3396.54167
1039.574	3274.54167
1043.016	3183.20833
1046.455	3137.20833
1049.891	3092.20833
1053.325	3132.20833
1056.756	3130.54167
1060.184	3132.54167
1063.61	3152.875
1067.033	3186.20833
1070.454	3149.875
1073.872	3196.20833
1077.287	3194.20833
1080.7	3227.875
1084.11	3243.20833
1087.517	3223.875
1090.922	3183.54167
1094.325	3126.875
1097.724	3100.20833
1101.122	3084.875
1104.516	3089.20833
1107.908	3092.20833
1111.298	3141.20833
1114.684	3192.875
1118.069	3212.54167
1121.45	3256.875
1124.83	3263.54167
1128.206	3285.875
1131.58	3325.54167
1134.951	3403.20833
1138.32	3518.20833
1141.687	3640.875
1145.05	3759.20833
1148.412	3765.20833
1151.77	3764.875
1155.126	3746.20833
1158.48	3755.875
1161.831	3780.875
1165.18	3810.54167
1168.525	3866.54167
1171.869	3904.875
1175.21	3926.875
1178.548	3977.20833
1181.884	4009.875
1185.217	4017.875
1188.548	4076.20833
1191.877	4172.875
1195.202	4239.54167
1198.526	4326.875
1201.846	4326.875
1205.165	4325.875
1208.48	4322.54167
1211.794	4322.54167
1215.104	4321.54167
1218.413	4352.54167
1221.719	4331.20833
1225.022	4298.875
1228.323	4234.875
1231.621	4225.875
1234.917	4245.20833
1238.21	4261.20833
1241.501	4266.54167
1244.79	4271.875
1248.076	4248.20833
1251.359	4292.875
1254.64	4403.875
1257.919	4402.20833
1261.195	4486.20833
1264.468	4556.20833
1267.74	4604.20833
1271.008	4630.20833
1274.275	4583.875
1277.538	4535.875
1280.8	4544.20833
1284.059	4561.875
1287.315	4594.54167
1290.569	4636.875
1293.821	4667.54167
1297.07	4666.20833
1300.317	4666.20833
1303.562	4628.54167
1306.803	4586.54167
1310.043	4582.54167
1313.28	4494.20833
1316.515	4424.54167
1319.747	4401.20833
1322.977	4324.875
1326.204	4273.20833
1329.429	4236.20833
1332.652	4217.875
1335.872	4159.54167
1339.09	4176.875
1342.306	4152.875
1345.519	4116.875
1348.729	4102.20833
1351.938	4093.20833
1355.144	4005.20833
1358.347	3988.875
1361.548	4000.54167
1364.747	4006.20833
1367.944	4004.875
1371.138	4023.875
1374.329	4068.54167
1377.518	4086.875
1380.705	4161.20833
1383.89	4114.875
1387.072	4036.20833
1390.252	3848.20833
1393.429	3734.875
1396.605	3609.875
1399.777	3516.20833
1402.948	3521.20833
1406.116	3465.54167
1409.282	3474.20833
1412.445	3494.875
1415.606	3526.20833
1418.765	3567.20833
1421.921	3644.875
1425.075	3741.875
1428.227	3867.54167
1431.376	4000.54167
1434.524	4188.20833
1437.668	4254.20833
1440.811	4286.875
1443.951	4300.875
1447.089	4313.54167
1450.224	4309.54167
1453.357	4272.875
1456.488	4256.20833
1459.617	4199.20833
1462.743	4125.875
1465.867	4065.54167
1468.989	3998.875
1472.108	3909.20833
1475.225	3844.54167
1478.34	3807.54167
1481.453	3776.875
1484.563	3803.54167
1487.671	3825.20833
1490.776	3916.54167
1493.88	4002.875
1496.981	4076.20833
1500.08	4137.875
1503.176	4247.20833
1506.271	4286.875
1509.363	4348.54167
1512.452	4403.875
1515.54	4490.54167
1518.625	4594.875
1521.708	4760.20833
1524.789	4976.54167
1527.867	5256.875
1530.944	5589.875
1534.018	5826.875
1537.089	6028.54167
1540.159	6016.54167
1543.226	5910.20833
1546.291	5687.54167
1549.354	5576.54167
1552.415	5354.875
1555.473	5225.875
1558.529	5102.54167
1561.583	5065.875
1564.634	5024.875
1567.684	4996.20833
1570.731	4988.20833
1573.776	5010.54167
1576.819	5029.875
1579.859	5057.875
1582.898	5128.875
1585.934	5179.54167
1588.968	5206.54167
1591.999	5181.54167
1595.029	5190.875
1598.056	5181.54167
1601.081	5203.875
1604.104	5204.54167
1607.125	5155.20833
1610.144	5037.875
1613.16	4944.54167
1616.174	4791.20833
1619.186	4706.20833
1622.196	4585.54167
1625.203	4471.875
1628.209	4413.875
1631.212	4365.20833
1634.213	4292.54167
1637.212	4256.875
1640.209	4181.54167
1643.203	4083.54167
1646.196	3964.875
1649.186	3817.54167
1652.174	3726.54167
1655.16	3611.875
1658.144	3481.54167
1661.125	3336.54167
1664.105	3177.875
1667.082	3056.20833
1670.057	2866.20833
1673.03	2675.54167
1676.001	2530.54167
1678.97	2385.20833
1681.937	2231.54167
1684.901	2110.54167
1687.863	2050.20833
1690.824	1967.875
1693.782	1935.20833
1696.738	1844.20833
1699.692	1821.875
1702.643	1781.54167
1705.593	1748.875
1708.54	1721.875
1711.486	1722.54167
1714.429	1690.54167
1717.37	1669.20833
1720.309	1647.875
1723.246	1644.875
1726.181	1618.875
1729.113	1625.54167
1732.044	1600.20833
1734.972	1591.20833
1737.899	1587.875
1740.823	1561.875
1743.745	1562.20833
1746.665	1512.20833
1749.583	1501.875
1752.499	1469.875
1755.413	1455.54167
1758.325	1410.875
1761.235	1404.54167
1764.142	1378.54167
1767.048	1360.20833
1769.951	1366.20833
1772.852	1345.20833
1775.752	1338.875
1778.649	1350.20833
1781.544	1347.54167
1784.437	1302.20833
1787.328	1304.54167
1790.217	1304.20833
1793.104	1282.20833
1795.989	1261.875
1798.872	1271.20833
1801.753	1289.54167
1804.631	1293.20833
1807.508	1292.20833
1810.383	1285.875
1813.255	1273.875
1816.126	1256.54167
1818.994	1260.20833
1821.861	1248.54167
1824.725	1252.20833
1827.587	1238.875
1830.448	1237.20833
1833.306	1206.54167
1836.162	1228.54167
1839.017	1195.54167
1841.869	1197.875
1844.719	1206.20833
1847.567	1192.54167
1850.414	1185.54167
1853.258	1188.54167
1856.1	1201.875
1858.94	1193.54167
1861.778	1187.54167
1864.614	1173.875
1867.448	1171.54167
1870.28	1168.20833
1873.111	1185.20833
1875.939	1177.54167
1878.765	1196.54167
1881.589	1170.54167
1884.411	1167.20833
1887.231	1177.20833
1890.049	1164.54167
1892.865	1157.54167
1895.68	1158.875
1898.492	1155.20833
1901.302	1138.20833
1904.11	1123.20833
1906.916	1118.875
1909.721	1119.54167
1912.523	1118.875
1915.323	1095.875
1918.122	1110.54167
1920.918	1115.20833
1923.712	1106.20833
1926.505	1112.54167
1929.295	1088.54167
1932.084	1101.54167
1934.87	1111.875
1937.655	1091.875
1940.438	1087.54167
1943.218	1096.20833
1945.997	1097.54167
1948.774	1103.20833
1951.549	1082.54167
1954.322	1099.54167
1957.093	1091.875
1959.862	1068.20833
1962.629	1069.875
1965.394	1079.20833
1968.157	1068.20833
1970.918	1056.20833
1973.678	1056.875
1976.435	1056.20833
1979.19	1056.20833
1981.944	1041.20833
1984.696	1038.20833
1987.445	1041.20833
1990.193	1030.54167
1992.939	1056.875
1995.683	1039.54167
1998.425	1023.20833
2001.165	1051.54167
2003.903	1015.54167
2006.639	1018.20833
2009.374	1033.20833
2012.106	1028.875
2014.837	1008.54167
2017.566	1035.875
2020.292	1020.54167
2023.017	1014.54167
2025.74	1013.54167
2028.461	1001.875
2031.18	1003.875
2033.898	994.20833
2036.613	989.20833
2039.327	1007.875
2042.038	981.54167
2044.748	989.20833
2047.456	989.20833
2050.162	974.875
2052.866	971.875
2055.568	983.54167
2058.268	988.20833
2060.967	990.875
2063.663	974.20833
2066.358	985.875
2069.051	967.54167
2071.742	977.875
2074.431	980.875
2077.118	987.20833
2079.804	960.20833
2082.487	970.875
2085.169	989.875
2087.849	996.875
2090.527	989.20833
2093.203	991.875
2095.877	1013.875
2098.55	999.54167
2101.22	1024.20833
2103.889	1028.875
2106.556	1044.20833
2109.221	1083.875
2111.884	1119.875
2114.546	1204.20833
2117.205	1287.20833
2119.863	1421.875
2122.519	1522.875
2125.173	1615.875
2127.825	1714.875
2130.475	1728.20833
2133.124	1677.875
2135.771	1600.875
2138.416	1517.20833
2141.059	1423.54167
2143.7	1350.54167
2146.339	1259.54167
2148.977	1210.875
2151.613	1181.54167
2154.247	1130.54167
2156.879	1105.54167
2159.51	1076.875
2162.138	1059.875
2164.765	1045.20833
2167.39	1009.875
2170.013	1024.20833
2172.634	1019.875
2175.254	1001.20833
2177.872	1024.54167
2180.488	964.54167
2183.102	980.20833
2185.714	960.20833
2188.325	946.20833
2190.934	945.20833
2193.541	950.54167
2196.146	918.875
2198.75	915.54167
2201.351	911.875
2203.951	888.20833
2206.549	892.875
2209.146	897.875
2211.74	881.20833
2214.333	881.20833
2216.924	848.54167
2219.514	876.875
2222.101	850.20833
2224.687	865.875
2227.271	851.20833
2229.853	843.20833
2232.433	830.54167
2235.012	848.20833
2237.589	843.54167
2240.164	838.20833
2242.738	841.54167
2245.309	837.54167
2247.879	815.20833
2250.448	823.20833
2253.014	810.20833
2255.579	779.875
2258.142	781.54167
2260.703	778.54167
2263.262	775.54167
2265.82	779.875
2268.376	768.20833
2270.93	765.875
2273.483	748.875
2276.033	762.20833
2278.583	750.54167
2281.13	742.20833
2283.675	734.54167
2286.219	742.54167
2288.761	726.875
2291.302	737.875
2293.841	730.20833
2296.377	710.875
2298.913	715.54167
2301.446	737.20833
2303.978	727.54167
2306.508	715.54167
2309.037	709.875
2311.563	720.54167
2314.088	716.20833
2316.612	701.875
2319.133	708.875
2321.653	697.54167
2324.171	698.875
2326.688	710.54167
2329.202	699.20833
2331.715	686.54167
2334.227	696.20833
2336.736	686.20833
2339.244	673.875
2341.751	675.54167
2344.255	688.54167
2346.758	673.875
2349.259	667.54167
2351.759	676.20833
2354.257	662.875
2356.753	666.54167
2359.247	662.54167
2361.74	675.875
2364.231	658.875
2366.721	666.54167
2369.209	644.54167
2371.695	663.20833
2374.179	648.875
2376.662	655.20833
2379.143	672.20833
2381.622	643.54167
2384.1	666.20833
2386.576	646.875
2389.051	658.875
2391.524	658.54167
2393.995	654.54167
2396.464	641.875
2398.932	641.875
2401.398	647.875
2403.863	636.54167
2406.325	640.875
2408.787	643.875
2411.246	633.20833
2413.704	635.875
2416.16	629.54167
2418.615	628.54167
2421.068	638.875
2423.519	617.54167
2425.969	616.20833
2428.417	632.875
2430.863	634.20833
2433.308	629.54167
2435.751	617.875
2438.193	618.20833
2440.633	616.875
2443.071	619.20833
2445.508	609.875
2447.943	608.54167
2450.376	598.20833
2452.808	612.20833
2455.238	598.54167
2457.667	626.20833
2460.093	612.20833
2462.519	584.875
2464.942	594.875
2467.365	602.875
2469.785	598.20833
2472.204	591.875
2474.621	570.54167
2477.037	608.20833
2479.451	567.20833
2481.863	577.875
2484.274	581.54167
2486.683	578.54167
2489.091	582.875
2491.497	582.875
2493.901	573.875
2496.304	574.54167
2498.705	592.20833
2501.105	565.875
2503.503	604.54167
2505.899	565.875
2508.294	588.875
2510.687	564.875
2513.079	561.20833
2515.469	561.875
2517.858	558.875
2520.245	585.20833
2522.63	555.54167
2525.014	559.20833
2527.396	544.875
2529.776	548.54167
2532.156	563.20833
2534.533	550.875
2536.909	546.54167
2539.283	544.54167
2541.656	548.20833
2544.027	563.54167
2546.397	553.54167
2548.765	553.54167
2551.131	541.875
2553.496	546.20833
2555.86	560.20833
2558.221	551.20833
2560.582	548.54167
2562.94	527.54167
2565.298	535.54167
2567.653	550.20833
2570.007	534.20833
2572.36	541.54167
2574.711	532.875
2577.06	542.20833
2579.408	538.20833
2581.754	540.875
2584.099	530.875
2586.442	532.20833
2588.784	540.54167
2591.124	539.54167
2593.463	534.54167
2595.8	534.20833
2598.135	518.54167
2600.469	530.54167
2602.802	551.875
2605.133	540.20833
2607.462	523.875
2609.79	519.20833
2612.116	523.875
2614.441	518.875
2616.764	530.875
2619.086	522.20833
2621.406	523.20833
2623.725	537.54167
2626.042	528.875
2628.358	512.20833
2630.672	518.875
2632.985	533.54167
2635.296	527.54167
2637.606	523.54167
2639.914	506.20833
2642.22	527.54167
2644.525	515.20833
2646.829	527.20833
2649.131	532.20833
2651.432	544.20833
2653.731	528.20833
2656.028	542.54167
2658.324	527.54167
2660.619	517.54167
2662.912	549.54167
2665.204	522.875
2667.494	541.54167
2669.782	522.875
2672.07	544.20833
2674.355	542.54167
2676.639	532.20833
2678.922	532.20833
2681.203	542.875
2683.483	524.20833
2685.761	512.875
2688.038	545.875
2690.313	546.875
2692.587	541.875
2694.859	527.875
2697.13	540.875
2699.399	530.875
2701.667	557.20833
2703.933	551.875
2706.198	569.54167
2708.461	568.54167
2710.723	571.54167
2712.984	570.20833
2715.243	578.54167
2717.5	572.54167
2719.757	590.20833
2722.011	569.875
2724.264	586.20833
2726.516	594.20833
2728.766	579.20833
2731.015	582.875
2733.262	580.54167
2735.508	573.54167
2737.753	575.54167
2739.996	555.54167
2742.237	557.54167
2744.477	568.54167
2746.716	564.875
2748.953	558.20833
2751.189	551.54167
2753.423	541.20833
2755.656	541.20833
2757.887	536.54167
2760.117	552.875
2762.346	539.875
2764.573	534.20833
2766.798	531.20833
2769.022	544.54167
2771.245	542.20833
2773.467	545.875
2775.686	559.20833
2777.905	558.875
2780.122	553.875
2782.337	559.875
2784.552	564.54167
2786.764	583.20833
2788.976	576.875
2791.186	590.20833
2793.394	592.54167
2795.601	598.54167
2797.807	624.20833
2800.011	617.875
2802.214	633.875
2804.415	645.54167
2806.615	648.54167
2808.814	667.875
2811.011	673.875
2813.206	673.20833
2815.401	699.875
2817.594	705.875
2819.785	723.20833
2821.975	717.54167
2824.164	729.875
2826.351	762.20833
2828.537	769.875
2830.722	793.54167
2832.905	815.54167
2835.086	849.20833
2837.267	881.20833
2839.445	914.54167
2841.623	951.54167
2843.799	990.20833
2845.974	1031.54167
2848.147	1082.20833
2850.319	1101.20833
2852.489	1157.54167
2854.659	1155.875
2856.826	1179.54167
2858.993	1223.54167
2861.158	1207.54167
2863.321	1198.20833
2865.483	1213.20833
2867.644	1214.54167
2869.804	1198.875
2871.962	1198.54167
2874.118	1205.875
2876.274	1200.54167
2878.428	1177.20833
2880.58	1178.875
2882.731	1161.54167
2884.881	1171.875
2887.03	1159.875
2889.177	1166.875
2891.322	1193.875
2893.467	1175.875
2895.61	1186.54167
2897.751	1210.875
2899.892	1210.20833
2902.03	1207.875
2904.168	1209.54167
2906.304	1227.54167
2908.439	1257.875
2910.572	1216.875
2912.704	1233.20833
2914.835	1244.54167
2916.965	1234.20833
2919.093	1245.875
2921.219	1190.875
2923.345	1226.20833
2925.469	1177.875
2927.591	1166.20833
2929.712	1136.20833
2931.832	1127.20833
2933.951	1095.875
2936.068	1059.54167
2938.184	1044.20833
2940.299	997.875
2942.412	963.20833
2944.524	905.875
2946.634	886.54167
2948.744	835.20833
2950.851	848.875
2952.958	801.20833
2955.063	778.20833
2957.167	749.20833
2959.269	725.875
2961.371	734.875
2963.471	674.875
2965.569	667.54167
2967.666	642.54167
2969.762	627.875
2971.857	612.54167
2973.95	592.20833
2976.042	588.54167
2978.133	549.875
2980.222	539.875
2982.31	509.20833
2984.396	488.20833
2986.482	504.20833
2988.566	494.20833
2990.648	472.875
2992.73	459.20833
2994.81	449.875
2996.889	459.875
2998.966	449.875
3001.042	450.54167
3003.117	434.20833
3005.191	431.875
3007.263	421.875
3009.334	412.54167
3011.403	410.20833
3013.472	395.54167
3015.539	392.875
3017.604	408.20833
3019.669	372.54167
3021.732	380.20833
3023.794	376.20833
3025.854	363.875
3027.914	349.875
3029.971	361.20833
3032.028	355.20833
3034.083	357.20833
3036.137	357.20833
3038.19	333.54167
3040.242	325.875
3042.292	317.54167
3044.341	312.875
3046.388	329.875
3048.435	303.54167
3050.48	321.20833
3052.524	316.54167
3054.566	299.875
3056.607	306.20833
3058.647	293.54167
3060.686	280.20833
3062.723	269.54167
3064.759	260.20833
3066.794	0.20833
3068.828	-2.125
3070.86	-4.125
