-0.839	429.79167
3.438	467.79167
7.711	128.125
11.981	58.125
16.247	50.125
20.509	46.125
24.768	46.79167
29.024	50.45833
33.276	43.125
37.524	50.45833
41.769	45.45833
46.01	41.125
50.247	53.125
54.481	59.125
58.712	70.79167
62.939	51.79167
67.162	66.79167
71.382	58.79167
75.599	49.125
79.812	66.79167
84.021	85.45833
88.227	62.79167
92.429	67.125
96.628	50.79167
100.823	71.125
105.015	79.125
109.204	79.45833
113.388	80.45833
117.57	75.45833
121.748	93.45833
125.922	85.79167
130.093	103.79167
134.261	110.79167
138.425	108.79167
142.585	149.125
146.742	147.45833
150.896	173.79167
155.046	222.79167
159.193	359.125
163.336	607.45833
167.476	1107.79167
171.613	2051.45833
175.746	3466.45833
179.875	5148.45833
184.002	6720.125
188.124	7782.45833
192.244	8148.79167
196.36	8033.79167
200.472	7804.79167
204.581	7582.45833
208.687	7395.45833
212.79	7333.125
216.889	7365.79167
220.984	7437.125
225.077	7476.79167
229.165	7572.79167
233.251	7675.125
237.333	7645.79167
241.412	7604.79167
245.487	7611.45833
249.559	7560.125
253.628	7503.125
257.694	7442.45833
261.756	7372.45833
265.814	7258.45833
269.87	7072.45833
273.922	6934.45833
277.97	6840.45833
282.016	6873.125
286.058	6929.79167
290.097	7081.125
294.132	7122.45833
298.164	7063.79167
302.193	6694.45833
306.219	6193.79167
310.241	5593.45833
314.26	5125.45833
318.276	4649.125
322.288	4305.125
326.297	4059.79167
330.303	3858.45833
334.305	3701.125
338.305	3607.79167
342.301	3559.79167
346.294	3500.79167
350.283	3456.45833
354.269	3428.79167
358.252	3394.79167
362.232	3384.125
366.209	3341.125
370.182	3310.79167
374.152	3275.45833
378.119	3299.45833
382.083	3285.125
386.043	3267.125
390	3227.125
393.954	3191.125
397.905	3179.125
401.852	3158.79167
405.797	3109.45833
409.738	3079.125
413.676	3078.45833
417.61	3052.45833
421.542	3029.45833
425.47	2988.45833
429.396	2979.45833
433.318	2949.79167
437.236	2928.79167
441.152	2940.45833
445.065	2903.79167
448.974	2881.125
452.88	2855.125
456.783	2854.125
460.683	2819.79167
464.58	2826.45833
468.473	2867.45833
472.364	2834.45833
476.251	2872.79167
480.135	2876.79167
484.016	2887.79167
487.894	2906.125
491.769	2922.45833
495.641	2932.125
499.509	2914.79167
503.375	2911.125
507.237	2891.45833
511.096	2864.79167
514.952	2906.79167
518.805	2913.125
522.655	2900.79167
526.502	2905.79167
530.346	2868.45833
534.187	2918.79167
538.024	2902.79167
541.859	2922.45833
545.69	2935.79167
549.519	2917.45833
553.344	2893.79167
557.166	2842.45833
560.985	2809.125
564.802	2784.125
568.615	2734.45833
572.425	2705.45833
576.232	2688.79167
580.036	2682.125
583.836	2688.79167
587.634	2686.125
591.429	2689.79167
595.221	2735.79167
599.01	2770.79167
602.796	2803.79167
606.578	2818.125
610.358	2827.45833
614.135	2794.45833
617.909	2791.45833
621.679	2788.79167
625.447	2775.125
629.212	2780.45833
632.973	2793.79167
636.732	2787.45833
640.488	2791.125
644.241	2755.79167
647.991	2737.45833
651.737	2752.125
655.481	2715.79167
659.222	2698.79167
662.96	2702.125
666.695	2747.45833
670.427	2752.45833
674.156	2756.125
677.882	2763.125
681.605	2753.45833
685.325	2743.125
689.043	2739.79167
692.757	2747.45833
696.468	2758.125
700.177	2763.79167
703.882	2748.79167
707.585	2766.125
711.284	2749.79167
714.981	2747.45833
718.675	2735.125
722.366	2787.125
726.054	2734.45833
729.739	2774.45833
733.421	2774.45833
737.1	2763.79167
740.777	2789.125
744.45	2797.125
748.121	2824.125
751.789	2887.45833
755.453	2885.125
759.115	2888.45833
762.774	2930.125
766.431	2951.45833
770.084	3003.79167
773.734	3025.125
777.382	3087.125
781.027	3102.79167
784.669	3075.45833
788.308	3121.45833
791.944	3195.45833
795.577	3208.79167
799.208	3204.45833
802.835	3228.79167
806.46	3247.45833
810.082	3271.125
813.701	3268.79167
817.317	3311.125
820.931	3300.79167
824.542	3304.125
828.149	3279.79167
831.754	3281.125
835.357	3254.79167
838.956	3275.45833
842.553	3228.79167
846.146	3216.45833
849.737	3226.79167
853.326	3251.79167
856.911	3229.125
860.493	3281.45833
864.073	3316.45833
867.65	3378.79167
871.225	3418.79167
874.796	3406.125
878.365	3422.45833
881.931	3460.79167
885.494	3464.79167
889.054	3489.45833
892.612	3473.125
896.166	3440.125
899.719	3405.125
903.268	3344.79167
906.814	3369.45833
910.358	3318.45833
913.899	3313.45833
917.438	3322.45833
920.973	3311.79167
924.506	3366.79167
928.036	3385.125
931.564	3427.79167
935.088	3481.79167
938.61	3483.125
942.129	3522.79167
945.646	3612.125
949.16	3707.125
952.671	3756.79167
956.179	3784.45833
959.685	3753.79167
963.188	3708.45833
966.688	3609.79167
970.185	3531.79167
973.68	3457.125
977.173	3445.45833
980.662	3419.125
984.149	3418.79167
987.633	3427.125
991.114	3475.79167
994.593	3581.45833
998.069	3688.79167
1001.542	3808.125
1005.013	3718.125
1008.481	3521.45833
1011.947	3471.45833
1015.409	3460.79167
1018.869	3480.79167
1022.327	3479.79167
1025.782	3477.79167
1029.234	3440.125
1032.683	3422.79167
1036.13	3288.79167
1039.574	3156.45833
1043.016	3082.79167
1046.455	3029.79167
1049.891	3034.79167
1053.325	3016.45833
1056.756	3010.79167
1060.184	3071.45833
1063.61	3063.45833
1067.033	3089.79167
1070.454	3099.45833
1073.872	3120.79167
1077.287	3116.45833
1080.7	3114.45833
1084.11	3123.125
1087.517	3117.79167
1090.922	3086.45833
1094.325	3051.45833
1097.724	3003.45833
1101.122	2999.79167
1104.516	3001.79167
1107.908	3019.45833
1111.298	3052.79167
1114.684	3114.45833
1118.069	3154.125
1121.45	3195.125
1124.83	3178.79167
1128.206	3234.45833
1131.58	3248.79167
1134.951	3369.79167
1138.32	3466.45833
1141.687	3614.45833
1145.05	3664.125
1148.412	3703.79167
1151.77	3704.79167
1155.126	3719.45833
1158.48	3705.45833
1161.831	3714.125
1165.18	3759.45833
1168.525	3808.79167
1171.869	3852.125
1175.21	3850.79167
1178.548	3895.125
1181.884	3955.45833
1185.217	3976.45833
1188.548	4027.125
1191.877	4103.45833
1195.202	4178.79167
1198.526	4232.45833
1201.846	4255.45833
1205.165	4255.125
1208.48	4256.125
1211.794	4239.79167
1215.104	4266.79167
1218.413	4254.79167
1221.719	4269.45833
1225.022	4204.45833
1228.323	4197.79167
1231.621	4162.125
1234.917	4148.125
1238.21	4227.79167
1241.501	4188.125
1244.79	4170.45833
1248.076	4213.125
1251.359	4202.79167
1254.64	4299.79167
1257.919	4323.125
1261.195	4387.125
1264.468	4441.125
1267.74	4546.79167
1271.008	4533.45833
1274.275	4532.79167
1277.538	4477.79167
1280.8	4444.45833
1284.059	4490.79167
1287.315	4518.45833
1290.569	4546.45833
1293.821	4564.79167
1297.07	4558.45833
1300.317	4558.79167
1303.562	4560.125
1306.803	4530.125
1310.043	4473.45833
1313.28	4401.45833
1316.515	4336.45833
1319.747	4303.125
1322.977	4249.79167
1326.204	4193.45833
1329.429	4141.125
1332.652	4113.79167
1335.872	4084.79167
1339.09	4041.79167
1342.306	4038.45833
1345.519	4012.125
1348.729	3991.45833
1351.938	3959.125
1355.144	3918.79167
1358.347	3896.45833
1361.548	3884.45833
1364.747	3913.125
1367.944	3880.45833
1371.138	3910.125
1374.329	3999.45833
1377.518	4021.125
1380.705	4041.125
1383.89	4001.125
1387.072	3948.125
1390.252	3762.79167
1393.429	3646.125
1396.605	3511.45833
1399.777	3458.45833
1402.948	3408.79167
1406.116	3377.125
1409.282	3408.125
1412.445	3385.45833
1415.606	3465.125
1418.765	3489.45833
1421.921	3577.45833
1425.075	3663.45833
1428.227	3787.125
1431.376	3939.125
1434.524	4075.125
1437.668	4189.125
1440.811	4196.125
1443.951	4210.79167
1447.089	4189.79167
1450.224	4200.79167
1453.357	4166.79167
1456.488	4142.45833
1459.617	4070.45833
1462.743	4022.45833
1465.867	3987.79167
1468.989	3921.45833
1472.108	3867.125
1475.225	3763.125
1478.34	3745.79167
1481.453	3732.79167
1484.563	3748.79167
1487.671	3826.45833
1490.776	3901.45833
1493.88	3954.45833
1496.981	4059.125
1500.08	4088.45833
1503.176	4197.125
1506.271	4227.45833
1509.363	4307.45833
1512.452	4362.125
1515.54	4450.79167
1518.625	4594.125
1521.708	4687.45833
1524.789	4907.45833
1527.867	5177.79167
1530.944	5509.125
1534.018	5734.125
1537.089	5938.45833
1540.159	5969.125
1543.226	5841.125
1546.291	5670.79167
1549.354	5513.79167
1552.415	5336.45833
1555.473	5183.79167
1558.529	5068.79167
1561.583	5005.125
1564.634	4975.45833
1567.684	4918.125
1570.731	4943.79167
1573.776	4971.125
1576.819	4990.125
1579.859	5045.45833
1582.898	5092.79167
1585.934	5105.79167
1588.968	5167.45833
1591.999	5140.125
1595.029	5105.79167
1598.056	5146.45833
1601.081	5179.125
1604.104	5127.79167
1607.125	5091.45833
1610.144	4974.79167
1613.16	4878.125
1616.174	4722.125
1619.186	4631.125
1622.196	4505.125
1625.203	4361.125
1628.209	4286.125
1631.212	4221.45833
1634.213	4177.45833
1637.212	4103.79167
1640.209	4026.125
1643.203	3939.125
1646.196	3826.79167
1649.186	3690.125
1652.174	3594.79167
1655.16	3469.79167
1658.144	3364.125
1661.125	3210.79167
1664.105	3087.125
1667.082	2929.79167
1670.057	2790.125
1673.03	2617.45833
1676.001	2465.125
1678.97	2317.45833
1681.937	2169.45833
1684.901	2064.79167
1687.863	2003.45833
1690.824	1918.45833
1693.782	1877.79167
1696.738	1803.125
1699.692	1774.79167
1702.643	1740.125
1705.593	1717.45833
1708.54	1682.45833
1711.486	1667.79167
1714.429	1648.45833
1717.37	1622.125
1720.309	1609.125
1723.246	1606.45833
1726.181	1564.125
1729.113	1558.79167
1732.044	1535.79167
1734.972	1548.45833
1737.899	1525.125
1740.823	1528.45833
1743.745	1514.125
1746.665	1458.45833
1749.583	1451.45833
1752.499	1422.45833
1755.413	1411.45833
1758.325	1355.125
1761.235	1367.45833
1764.142	1334.125
1767.048	1334.45833
1769.951	1314.45833
1772.852	1315.79167
1775.752	1297.45833
1778.649	1296.79167
1781.544	1294.79167
1784.437	1265.125
1787.328	1279.45833
1790.217	1251.45833
1793.104	1234.125
1795.989	1242.125
1798.872	1213.79167
1801.753	1234.79167
1804.631	1244.45833
1807.508	1244.125
1810.383	1225.79167
1813.255	1224.79167
1816.126	1223.125
1818.994	1218.125
1821.861	1205.45833
1824.725	1205.45833
1827.587	1186.79167
1830.448	1182.45833
1833.306	1165.125
1836.162	1186.45833
1839.017	1156.125
1841.869	1158.79167
1844.719	1160.45833
1847.567	1135.125
1850.414	1133.45833
1853.258	1133.79167
1856.1	1155.45833
1858.94	1157.125
1861.778	1143.79167
1864.614	1135.125
1867.448	1139.125
1870.28	1118.125
1873.111	1143.125
1875.939	1140.79167
1878.765	1152.125
1881.589	1128.79167
1884.411	1131.45833
1887.231	1143.125
1890.049	1126.79167
1892.865	1117.125
1895.68	1108.45833
1898.492	1105.45833
1901.302	1095.79167
1904.11	1097.125
1906.916	1086.125
1909.721	1084.45833
1912.523	1091.79167
1915.323	1081.45833
1918.122	1076.45833
1920.918	1089.45833
1923.712	1069.45833
1926.505	1073.79167
1929.295	1053.45833
1932.084	1083.45833
1934.87	1071.79167
1937.655	1058.45833
1940.438	1054.45833
1943.218	1066.125
1945.997	1066.79167
1948.774	1072.45833
1951.549	1064.45833
1954.322	1050.79167
1957.093	1053.79167
1959.862	1044.79167
1962.629	1050.79167
1965.394	1039.45833
1968.157	1017.79167
1970.918	1031.125
1973.678	1025.125
1976.435	1039.125
1979.19	1008.45833
1981.944	1012.125
1984.696	1012.125
1987.445	997.45833
1990.193	1004.79167
1992.939	1019.45833
1995.683	998.125
1998.425	982.45833
2001.165	1014.45833
2003.903	998.79167
2006.639	993.79167
2009.374	993.125
2012.106	1000.45833
2014.837	981.125
2017.566	1002.45833
2020.292	987.125
2023.017	977.45833
2025.74	986.125
2028.461	969.45833
2031.18	982.45833
2033.898	977.45833
2036.613	972.125
2039.327	980.45833
2042.038	958.125
2044.748	962.79167
2047.456	951.125
2050.162	953.125
2052.866	957.125
2055.568	956.79167
2058.268	948.125
2060.967	950.125
2063.663	940.45833
2066.358	954.79167
2069.051	940.79167
2071.742	949.79167
2074.431	944.79167
2077.118	946.79167
2079.804	939.79167
2082.487	947.125
2085.169	961.125
2087.849	974.79167
2090.527	957.45833
2093.203	967.79167
2095.877	971.79167
2098.55	976.45833
2101.22	990.45833
2103.889	994.125
2106.556	1000.79167
2109.221	1050.79167
2111.884	1096.45833
2114.546	1169.79167
2117.205	1276.45833
2119.863	1389.79167
2122.519	1501.45833
2125.173	1615.45833
2127.825	1685.45833
2130.475	1703.79167
2133.124	1659.45833
2135.771	1582.125
2138.416	1484.79167
2141.059	1403.45833
2143.7	1332.45833
2146.339	1238.79167
2148.977	1180.45833
2151.613	1150.79167
2154.247	1107.45833
2156.879	1075.125
2159.51	1047.125
2162.138	1026.125
2164.765	1018.125
2167.39	995.125
2170.013	1010.45833
2172.634	995.45833
2175.254	984.125
2177.872	1000.125
2180.488	947.45833
2183.102	951.125
2185.714	942.45833
2188.325	910.125
2190.934	917.45833
2193.541	916.45833
2196.146	905.125
2198.75	884.45833
2201.351	894.79167
2203.951	863.79167
2206.549	869.79167
2209.146	853.45833
2211.74	854.45833
2214.333	867.45833
2216.924	839.125
2219.514	845.125
2222.101	831.45833
2224.687	859.45833
2227.271	817.79167
2229.853	822.45833
2232.433	797.79167
2235.012	825.125
2237.589	815.79167
2240.164	826.79167
2242.738	817.79167
2245.309	797.79167
2247.879	806.45833
2250.448	815.45833
2253.014	784.79167
2255.579	764.45833
2258.142	763.45833
2260.703	747.45833
2263.262	759.45833
2265.82	748.79167
2268.376	758.79167
2270.93	738.79167
2273.483	729.125
2276.033	730.125
2278.583	717.125
2281.13	732.125
2283.675	727.79167
2286.219	719.79167
2288.761	730.125
2291.302	713.79167
2293.841	722.125
2296.377	700.125
2298.913	697.79167
2301.446	707.45833
2303.978	700.45833
2306.508	694.45833
2309.037	698.79167
2311.563	699.125
2314.088	701.45833
2316.612	688.125
2319.133	702.45833
2321.653	692.125
2324.171	679.45833
2326.688	684.45833
2329.202	676.125
2331.715	695.125
2334.227	679.125
2336.736	672.45833
2339.244	670.79167
2341.751	667.45833
2344.255	675.125
2346.758	663.45833
2349.259	651.79167
2351.759	650.45833
2354.257	660.79167
2356.753	644.45833
2359.247	644.79167
2361.74	660.125
2364.231	633.79167
2366.721	661.125
2369.209	631.125
2371.695	638.45833
2374.179	638.45833
2376.662	640.125
2379.143	656.125
2381.622	640.79167
2384.1	641.45833
2386.576	624.79167
2389.051	638.45833
2391.524	657.125
2393.995	652.125
2396.464	630.79167
2398.932	612.45833
2401.398	621.45833
2403.863	618.45833
2406.325	621.125
2408.787	614.79167
2411.246	629.125
2413.704	619.125
2416.16	611.45833
2418.615	611.125
2421.068	615.45833
2423.519	615.125
2425.969	606.45833
2428.417	617.45833
2430.863	628.125
2433.308	622.79167
2435.751	602.45833
2438.193	610.125
2440.633	610.45833
2443.071	607.79167
2445.508	597.45833
2447.943	593.79167
2450.376	591.45833
2452.808	603.45833
2455.238	587.79167
2457.667	615.45833
2460.093	603.45833
2462.519	580.79167
2464.942	587.79167
2467.365	579.45833
2469.785	587.125
2472.204	584.45833
2474.621	574.125
2477.037	593.125
2479.451	575.125
2481.863	567.45833
2484.274	566.125
2486.683	575.79167
2489.091	582.125
2491.497	577.45833
2493.901	566.125
2496.304	562.125
2498.705	574.79167
2501.105	560.45833
2503.503	580.125
2505.899	562.45833
2508.294	576.45833
2510.687	549.45833
2513.079	558.125
2515.469	550.45833
2517.858	546.45833
2520.245	574.125
2522.63	554.125
2525.014	555.79167
2527.396	548.125
2529.776	540.125
2532.156	555.125
2534.533	538.79167
2536.909	546.125
2539.283	527.79167
2541.656	539.125
2544.027	566.79167
2546.397	546.45833
2548.765	534.79167
2551.131	525.45833
2553.496	540.125
2555.86	546.125
2558.221	531.125
2560.582	531.125
2562.94	513.79167
2565.298	535.79167
2567.653	541.45833
2570.007	522.79167
2572.36	530.45833
2574.711	523.125
2577.06	546.79167
2579.408	533.79167
2581.754	527.79167
2584.099	536.45833
2586.442	518.125
2588.784	533.125
2591.124	521.79167
2593.463	524.79167
2595.8	522.45833
2598.135	507.79167
2600.469	515.125
2602.802	541.79167
2605.133	529.125
2607.462	514.79167
2609.79	513.79167
2612.116	524.125
2614.441	516.45833
2616.764	523.45833
2619.086	513.45833
2621.406	503.79167
2623.725	526.79167
2626.042	522.45833
2628.358	516.45833
2630.672	513.125
2632.985	523.79167
2635.296	514.45833
2637.606	522.45833
2639.914	507.125
2642.22	520.79167
2644.525	520.79167
2646.829	522.79167
2649.131	531.45833
2651.432	532.79167
2653.731	515.45833
2656.028	537.45833
2658.324	524.45833
2660.619	521.125
2662.912	530.79167
2665.204	513.125
2667.494	534.125
2669.782	516.79167
2672.07	530.125
2674.355	537.79167
2676.639	527.125
2678.922	509.45833
2681.203	534.79167
2683.483	514.45833
2685.761	504.45833
2688.038	531.125
2690.313	552.79167
2692.587	527.45833
2694.859	530.45833
2697.13	529.125
2699.399	545.45833
2701.667	554.125
2703.933	556.79167
2706.198	555.125
2708.461	559.79167
2710.723	560.45833
2712.984	565.45833
2715.243	570.125
2717.5	558.79167
2719.757	574.45833
2722.011	563.79167
2724.264	581.45833
2726.516	592.79167
2728.766	573.79167
2731.015	575.125
2733.262	575.125
2735.508	576.125
2737.753	566.45833
2739.996	552.79167
2742.237	547.125
2744.477	562.45833
2746.716	567.125
2748.953	548.125
2751.189	553.45833
2753.423	544.45833
2755.656	535.79167
2757.887	550.125
2760.117	531.45833
2762.346	532.79167
2764.573	528.125
2766.798	535.79167
2769.022	550.79167
2771.245	545.79167
2773.467	536.125
2775.686	550.125
2777.905	554.79167
2780.122	550.45833
2782.337	569.125
2784.552	551.125
2786.764	575.45833
2788.976	576.79167
2791.186	593.79167
2793.394	593.79167
2795.601	609.79167
2797.807	616.79167
2800.011	617.45833
2802.214	642.45833
2804.415	636.125
2806.615	644.125
2808.814	656.79167
2811.011	683.79167
2813.206	677.125
2815.401	696.125
2817.594	703.45833
2819.785	733.45833
2821.975	717.45833
2824.164	730.125
2826.351	751.125
2828.537	772.45833
2830.722	791.125
2832.905	802.45833
2835.086	840.45833
2837.267	879.79167
2839.445	907.125
2841.623	930.45833
2843.799	978.45833
2845.974	1025.125
2848.147	1072.45833
2850.319	1093.45833
2852.489	1144.45833
2854.659	1147.125
2856.826	1169.79167
2858.993	1183.125
2861.158	1177.45833
2863.321	1169.45833
2865.483	1195.125
2867.644	1190.79167
2869.804	1200.125
2871.962	1177.45833
2874.118	1175.79167
2876.274	1178.45833
2878.428	1189.79167
2880.58	1168.79167
2882.731	1149.79167
2884.881	1148.125
2887.03	1158.79167
2889.177	1144.79167
2891.322	1173.45833
2893.467	1175.125
2895.61	1152.45833
2897.751	1192.45833
2899.892	1176.125
2902.03	1195.45833
2904.168	1180.45833
2906.304	1204.79167
2908.439	1223.45833
2910.572	1202.125
2912.704	1210.45833
2914.835	1213.125
2916.965	1202.79167
2919.093	1212.45833
2921.219	1169.79167
2923.345	1205.45833
2925.469	1160.79167
2927.591	1163.79167
2929.712	1105.79167
2931.832	1114.125
2933.951	1071.45833
2936.068	1032.79167
2938.184	1008.45833
2940.299	971.45833
2942.412	953.79167
2944.524	893.79167
2946.634	869.125
2948.744	811.45833
2950.851	831.79167
2952.958	768.125
2955.063	770.45833
2957.167	743.79167
2959.269	703.125
2961.371	713.125
2963.471	665.125
2965.569	667.79167
2967.666	629.45833
2969.762	615.79167
2971.857	595.79167
2973.95	574.45833
2976.042	578.125
2978.133	541.45833
2980.222	532.45833
2982.31	510.125
2984.396	494.125
2986.482	492.79167
2988.566	487.45833
2990.648	481.79167
2992.73	470.79167
2994.81	444.45833
2996.889	462.79167
2998.966	444.45833
3001.042	446.79167
3003.117	435.45833
3005.191	437.45833
3007.263	426.79167
3009.334	409.125
3011.403	409.45833
3013.472	393.45833
3015.539	392.45833
3017.604	405.79167
3019.669	375.79167
3021.732	379.125
3023.794	369.125
3025.854	352.79167
3027.914	352.45833
3029.971	353.125
3032.028	359.125
3034.083	354.125
3036.137	354.45833
3038.19	331.45833
3040.242	327.45833
3042.292	319.79167
3044.341	310.79167
3046.388	334.125
3048.435	301.45833
3050.48	324.45833
3052.524	310.125
3054.566	285.45833
3056.607	302.45833
3058.647	290.45833
3060.686	279.125
3062.723	274.45833
3064.759	262.125
3066.794	1.45833
3068.828	-1.20833
3070.86	-0.875
