-0.839	347.41667
3.438	379.75
7.711	114.08333
11.981	53.08333
16.247	44.41667
20.509	46.41667
24.768	46.08333
29.024	46.41667
33.276	41.08333
37.524	51.75
41.769	41.08333
46.01	34.41667
50.247	51.41667
54.481	59.75
58.712	66.08333
62.939	50.75
67.162	63.08333
71.382	56.41667
75.599	48.41667
79.812	65.41667
84.021	77.41667
88.227	61.41667
92.429	64.08333
96.628	50.08333
100.823	69.08333
105.015	75.08333
109.204	75.41667
113.388	76.08333
117.57	72.75
121.748	91.75
125.922	81.08333
130.093	97.08333
134.261	105.41667
138.425	101.75
142.585	142.08333
146.742	138.75
150.896	167.41667
155.046	208.08333
159.193	335.08333
163.336	558.75
167.476	1024.75
171.613	1878.41667
175.746	3138.41667
179.875	4694.08333
184.002	6119.75
188.124	7074.41667
192.244	7355.41667
196.36	7268.75
200.472	7129.08333
204.581	6946.75
208.687	6751.08333
212.79	6688.41667
216.889	6702.08333
220.984	6793.08333
225.077	6843.75
229.165	6934.41667
233.251	6993.08333
237.333	7018.08333
241.412	6970.08333
245.487	6916.08333
249.559	6824.08333
253.628	6808.75
257.694	6702.08333
261.756	6665.41667
265.814	6549.75
269.87	6377.08333
273.922	6222.08333
277.97	6225.08333
282.016	6193.41667
286.058	6241.41667
290.097	6341.41667
294.132	6393.75
298.164	6269.41667
302.193	5948.41667
306.219	5529.08333
310.241	5001.41667
314.26	4553.75
318.276	4170.08333
322.288	3898.41667
326.297	3656.41667
330.303	3476.41667
334.305	3356.75
338.305	3261.08333
342.301	3224.75
346.294	3179.08333
350.283	3142.08333
354.269	3101.41667
358.252	3090.41667
362.232	3071.08333
366.209	3058.75
370.182	3023.08333
374.152	2995.75
378.119	2989.41667
382.083	2993.75
386.043	2981.41667
390	2949.75
393.954	2923.75
397.905	2886.08333
401.852	2846.75
405.797	2863.41667
409.738	2787.08333
413.676	2770.75
417.61	2773.75
421.542	2731.08333
425.47	2714.41667
429.396	2710.08333
433.318	2671.08333
437.236	2664.08333
441.152	2656.75
445.065	2633.08333
448.974	2607.08333
452.88	2588.75
456.783	2577.41667
460.683	2573.41667
464.58	2570.75
468.473	2565.08333
472.364	2578.75
476.251	2604.41667
480.135	2595.75
484.016	2616.41667
487.894	2651.41667
491.769	2670.41667
495.641	2635.41667
499.509	2663.75
503.375	2642.08333
507.237	2625.75
511.096	2614.41667
514.952	2616.75
518.805	2628.08333
522.655	2643.08333
526.502	2613.08333
530.346	2599.41667
534.187	2595.08333
538.024	2605.41667
541.859	2618.08333
545.69	2622.75
549.519	2630.08333
553.344	2621.41667
557.166	2567.08333
560.985	2538.08333
564.802	2508.75
568.615	2454.08333
572.425	2444.75
576.232	2434.75
580.036	2424.41667
583.836	2424.75
587.634	2417.08333
591.429	2414.41667
595.221	2480.75
599.01	2489.08333
602.796	2532.75
606.578	2551.75
610.358	2549.41667
614.135	2552.41667
617.909	2543.41667
621.679	2514.08333
625.447	2512.08333
629.212	2516.75
632.973	2534.75
636.732	2523.08333
640.488	2543.41667
644.241	2480.41667
647.991	2466.08333
651.737	2498.08333
655.481	2433.08333
659.222	2421.75
662.96	2439.75
666.695	2467.41667
670.427	2467.75
674.156	2494.75
677.882	2495.75
681.605	2473.08333
685.325	2460.08333
689.043	2491.41667
692.757	2455.75
696.468	2475.41667
700.177	2498.41667
703.882	2485.75
707.585	2492.75
711.284	2497.08333
714.981	2501.75
718.675	2524.41667
722.366	2521.08333
726.054	2511.08333
729.739	2508.41667
733.421	2507.41667
737.1	2502.75
740.777	2517.08333
744.45	2561.75
748.121	2544.41667
751.789	2616.08333
755.453	2619.08333
759.115	2620.41667
762.774	2653.75
766.431	2671.41667
770.084	2692.75
773.734	2741.75
777.382	2774.75
781.027	2802.75
784.669	2828.41667
788.308	2838.41667
791.944	2881.41667
795.577	2880.08333
799.208	2945.41667
802.835	2917.75
806.46	2941.75
810.082	2956.75
813.701	2976.08333
817.317	2966.08333
820.931	2986.08333
824.542	2997.75
828.149	2969.08333
831.754	2974.08333
835.357	2962.08333
838.956	2950.41667
842.553	2944.75
846.146	2949.08333
849.737	2930.08333
853.326	2967.75
856.911	2959.08333
860.493	2985.41667
864.073	3012.75
867.65	3086.75
871.225	3113.41667
874.796	3104.75
878.365	3138.75
881.931	3125.75
885.494	3144.08333
889.054	3147.41667
892.612	3163.41667
896.166	3121.41667
899.719	3107.75
903.268	3084.41667
906.814	3057.08333
910.358	3005.75
913.899	3008.08333
917.438	3039.08333
920.973	3010.08333
924.506	3066.75
928.036	3078.75
931.564	3102.41667
935.088	3124.75
938.61	3141.75
942.129	3193.08333
945.646	3255.08333
949.16	3339.08333
952.671	3407.41667
956.179	3428.41667
959.685	3337.75
963.188	3302.41667
966.688	3248.75
970.185	3195.41667
973.68	3150.08333
977.173	3136.75
980.662	3121.75
984.149	3138.41667
987.633	3118.41667
991.114	3220.08333
994.593	3308.08333
998.069	3414.41667
1001.542	3514.08333
1005.013	3398.41667
1008.481	3232.75
1011.947	3185.08333
1015.409	3165.08333
1018.869	3173.41667
1022.327	3172.08333
1025.782	3132.08333
1029.234	3154.41667
1032.683	3094.75
1036.13	3003.08333
1039.574	2883.41667
1043.016	2820.41667
1046.455	2764.41667
1049.891	2706.75
1053.325	2736.41667
1056.756	2703.75
1060.184	2759.41667
1063.61	2778.41667
1067.033	2798.41667
1070.454	2765.08333
1073.872	2819.08333
1077.287	2803.75
1080.7	2841.41667
1084.11	2851.41667
1087.517	2812.08333
1090.922	2799.41667
1094.325	2795.75
1097.724	2739.08333
1101.122	2720.75
1104.516	2710.08333
1107.908	2745.08333
1111.298	2777.75
1114.684	2819.08333
1118.069	2842.75
1121.45	2878.75
1124.83	2857.41667
1128.206	2902.41667
1131.58	2958.41667
1134.951	3011.75
1138.32	3117.75
1141.687	3227.75
1145.05	3294.75
1148.412	3318.08333
1151.77	3311.08333
1155.126	3329.08333
1158.48	3305.41667
1161.831	3364.75
1165.18	3377.08333
1168.525	3429.75
1171.869	3463.08333
1175.21	3493.08333
1178.548	3522.75
1181.884	3545.41667
1185.217	3566.08333
1188.548	3642.08333
1191.877	3683.75
1195.202	3768.75
1198.526	3785.41667
1201.846	3836.75
1205.165	3841.08333
1208.48	3808.08333
1211.794	3798.41667
1215.104	3793.41667
1218.413	3832.08333
1221.719	3776.41667
1225.022	3782.08333
1228.323	3719.08333
1231.621	3735.41667
1234.917	3710.41667
1238.21	3750.08333
1241.501	3758.08333
1244.79	3770.08333
1248.076	3774.41667
1251.359	3813.08333
1254.64	3887.41667
1257.919	3912.75
1261.195	3972.75
1264.468	4025.41667
1267.74	4084.08333
1271.008	4071.75
1274.275	4057.41667
1277.538	4022.75
1280.8	4007.08333
1284.059	3984.75
1287.315	4030.41667
1290.569	4049.41667
1293.821	4078.08333
1297.07	4074.41667
1300.317	4090.08333
1303.562	4079.41667
1306.803	4040.41667
1310.043	3999.75
1313.28	3961.08333
1316.515	3868.41667
1319.747	3824.75
1322.977	3774.75
1326.204	3710.08333
1329.429	3663.08333
1332.652	3650.08333
1335.872	3614.75
1339.09	3610.08333
1342.306	3621.08333
1345.519	3626.75
1348.729	3588.75
1351.938	3564.08333
1355.144	3500.75
1358.347	3474.08333
1361.548	3489.08333
1364.747	3492.41667
1367.944	3459.08333
1371.138	3503.41667
1374.329	3531.41667
1377.518	3557.75
1380.705	3577.41667
1383.89	3564.41667
1387.072	3462.08333
1390.252	3330.75
1393.429	3234.08333
1396.605	3152.08333
1399.777	3093.41667
1402.948	3051.08333
1406.116	3031.75
1409.282	3028.41667
1412.445	3046.75
1415.606	3055.41667
1418.765	3136.41667
1421.921	3202.75
1425.075	3271.75
1428.227	3396.41667
1431.376	3519.75
1434.524	3606.08333
1437.668	3698.08333
1440.811	3720.41667
1443.951	3742.41667
1447.089	3761.08333
1450.224	3744.08333
1453.357	3713.41667
1456.488	3692.75
1459.617	3638.41667
1462.743	3616.41667
1465.867	3502.75
1468.989	3482.75
1472.108	3420.08333
1475.225	3371.08333
1478.34	3296.41667
1481.453	3324.08333
1484.563	3335.75
1487.671	3385.75
1490.776	3448.08333
1493.88	3523.75
1496.981	3585.08333
1500.08	3648.08333
1503.176	3687.41667
1506.271	3736.08333
1509.363	3810.41667
1512.452	3844.75
1515.54	3902.08333
1518.625	3997.08333
1521.708	4161.41667
1524.789	4329.41667
1527.867	4586.41667
1530.944	4879.75
1534.018	5152.08333
1537.089	5328.08333
1540.159	5339.41667
1543.226	5253.08333
1546.291	5066.75
1549.354	4910.75
1552.415	4787.08333
1555.473	4612.41667
1558.529	4521.75
1561.583	4438.08333
1564.634	4399.75
1567.684	4395.75
1570.731	4374.75
1573.776	4412.08333
1576.819	4412.41667
1579.859	4418.41667
1582.898	4477.08333
1585.934	4498.41667
1588.968	4510.08333
1591.999	4472.41667
1595.029	4507.08333
1598.056	4524.75
1601.081	4536.41667
1604.104	4502.41667
1607.125	4481.41667
1610.144	4358.75
1613.16	4275.08333
1616.174	4140.75
1619.186	4017.08333
1622.196	3927.75
1625.203	3807.75
1628.209	3744.08333
1631.212	3681.08333
1634.213	3648.41667
1637.212	3590.08333
1640.209	3519.08333
1643.203	3444.08333
1646.196	3374.75
1649.186	3264.75
1652.174	3169.75
1655.16	3045.08333
1658.144	2968.75
1661.125	2837.41667
1664.105	2715.08333
1667.082	2592.41667
1670.057	2473.41667
1673.03	2321.08333
1676.001	2178.75
1678.97	2058.75
1681.937	1937.08333
1684.901	1835.08333
1687.863	1798.75
1690.824	1715.08333
1693.782	1688.75
1696.738	1636.08333
1699.692	1608.08333
1702.643	1570.75
1705.593	1545.08333
1708.54	1509.08333
1711.486	1522.75
1714.429	1477.08333
1717.37	1452.75
1720.309	1447.08333
1723.246	1441.75
1726.181	1397.75
1729.113	1432.75
1732.044	1401.08333
1734.972	1379.75
1737.899	1386.75
1740.823	1362.08333
1743.745	1374.41667
1746.665	1313.08333
1749.583	1276.41667
1752.499	1275.41667
1755.413	1267.75
1758.325	1230.41667
1761.235	1227.41667
1764.142	1210.41667
1767.048	1197.08333
1769.951	1178.08333
1772.852	1184.41667
1775.752	1159.41667
1778.649	1183.75
1781.544	1180.75
1784.437	1153.41667
1787.328	1160.41667
1790.217	1144.41667
1793.104	1112.08333
1795.989	1113.41667
1798.872	1103.75
1801.753	1131.08333
1804.631	1123.41667
1807.508	1142.75
1810.383	1105.08333
1813.255	1111.41667
1816.126	1106.41667
1818.994	1105.08333
1821.861	1090.08333
1824.725	1081.75
1827.587	1083.41667
1830.448	1065.41667
1833.306	1048.41667
1836.162	1061.41667
1839.017	1033.41667
1841.869	1048.08333
1844.719	1039.41667
1847.567	1037.08333
1850.414	1039.08333
1853.258	1027.75
1856.1	1041.75
1858.94	1049.41667
1861.778	1034.41667
1864.614	1030.75
1867.448	1025.08333
1870.28	1026.08333
1873.111	1048.41667
1875.939	1038.41667
1878.765	1041.41667
1881.589	1022.41667
1884.411	1018.08333
1887.231	1036.41667
1890.049	1022.75
1892.865	1014.08333
1895.68	1000.75
1898.492	999.08333
1901.302	992.41667
1904.11	991.75
1906.916	978.41667
1909.721	986.75
1912.523	986.75
1915.323	970.08333
1918.122	970.08333
1920.918	969.75
1923.712	968.08333
1926.505	970.41667
1929.295	963.08333
1932.084	972.41667
1934.87	979.41667
1937.655	949.08333
1940.438	943.75
1943.218	957.08333
1945.997	954.75
1948.774	964.08333
1951.549	966.41667
1954.322	957.08333
1957.093	965.08333
1959.862	948.08333
1962.629	943.08333
1965.394	934.75
1968.157	928.41667
1970.918	928.41667
1973.678	908.41667
1976.435	938.75
1979.19	915.75
1981.944	918.41667
1984.696	918.08333
1987.445	910.41667
1990.193	910.41667
1992.939	926.08333
1995.683	904.08333
1998.425	882.75
2001.165	920.75
2003.903	898.75
2006.639	896.75
2009.374	895.08333
2012.106	898.75
2014.837	866.08333
2017.566	892.75
2020.292	887.75
2023.017	903.75
2025.74	895.75
2028.461	886.41667
2031.18	884.08333
2033.898	872.08333
2036.613	875.08333
2039.327	894.08333
2042.038	863.08333
2044.748	865.41667
2047.456	866.75
2050.162	856.75
2052.866	863.08333
2055.568	867.75
2058.268	854.75
2060.967	865.41667
2063.663	852.75
2066.358	864.41667
2069.051	851.41667
2071.742	861.41667
2074.431	861.08333
2077.118	872.41667
2079.804	851.41667
2082.487	855.41667
2085.169	866.08333
2087.849	885.75
2090.527	868.75
2093.203	884.08333
2095.877	903.75
2098.55	902.75
2101.22	914.41667
2103.889	943.08333
2106.556	950.75
2109.221	1006.75
2111.884	1049.41667
2114.546	1155.75
2117.205	1272.75
2119.863	1386.41667
2122.519	1506.41667
2125.173	1618.75
2127.825	1705.75
2130.475	1696.75
2133.124	1648.08333
2135.771	1573.08333
2138.416	1497.08333
2141.059	1363.41667
2143.7	1303.08333
2146.339	1214.41667
2148.977	1137.41667
2151.613	1134.08333
2154.247	1075.08333
2156.879	1024.75
2159.51	990.08333
2162.138	958.41667
2164.765	956.75
2167.39	934.41667
2170.013	933.41667
2172.634	926.08333
2175.254	913.75
2177.872	924.08333
2180.488	884.08333
2183.102	875.75
2185.714	871.41667
2188.325	845.75
2190.934	851.75
2193.541	850.41667
2196.146	829.75
2198.75	814.75
2201.351	804.08333
2203.951	794.08333
2206.549	806.41667
2209.146	789.41667
2211.74	773.08333
2214.333	786.41667
2216.924	762.41667
2219.514	755.75
2222.101	755.41667
2224.687	770.08333
2227.271	734.08333
2229.853	737.75
2232.433	732.75
2235.012	741.75
2237.589	743.41667
2240.164	742.75
2242.738	736.08333
2245.309	731.41667
2247.879	736.41667
2250.448	735.08333
2253.014	704.75
2255.579	686.08333
2258.142	702.08333
2260.703	686.41667
2263.262	685.41667
2265.82	682.08333
2268.376	680.41667
2270.93	666.75
2273.483	661.08333
2276.033	674.75
2278.583	659.75
2281.13	648.75
2283.675	649.75
2286.219	652.75
2288.761	637.08333
2291.302	662.75
2293.841	662.41667
2296.377	631.41667
2298.913	627.41667
2301.446	648.75
2303.978	637.41667
2306.508	633.41667
2309.037	633.75
2311.563	635.75
2314.088	632.75
2316.612	618.41667
2319.133	624.41667
2321.653	621.08333
2324.171	611.75
2326.688	618.08333
2329.202	621.08333
2331.715	618.08333
2334.227	617.75
2336.736	600.41667
2339.244	604.08333
2341.751	592.41667
2344.255	608.41667
2346.758	595.41667
2349.259	593.41667
2351.759	587.08333
2354.257	577.41667
2356.753	593.41667
2359.247	588.75
2361.74	597.08333
2364.231	581.75
2366.721	587.41667
2369.209	569.75
2371.695	586.08333
2374.179	573.75
2376.662	567.75
2379.143	596.08333
2381.622	572.75
2384.1	577.75
2386.576	577.08333
2389.051	578.41667
2391.524	583.75
2393.995	580.75
2396.464	564.75
2398.932	560.75
2401.398	558.75
2403.863	554.08333
2406.325	555.41667
2408.787	557.75
2411.246	566.08333
2413.704	542.75
2416.16	546.08333
2418.615	561.41667
2421.068	556.75
2423.519	550.08333
2425.969	543.75
2428.417	550.08333
2430.863	563.41667
2433.308	551.75
2435.751	556.41667
2438.193	545.08333
2440.633	544.41667
2443.071	540.08333
2445.508	528.41667
2447.943	528.75
2450.376	528.75
2452.808	541.41667
2455.238	539.08333
2457.667	563.08333
2460.093	536.41667
2462.519	520.41667
2464.942	529.08333
2467.365	536.75
2469.785	529.75
2472.204	537.41667
2474.621	519.08333
2477.037	539.75
2479.451	510.41667
2481.863	505.41667
2484.274	522.41667
2486.683	518.08333
2489.091	516.75
2491.497	514.08333
2493.901	511.41667
2496.304	506.41667
2498.705	522.75
2501.105	512.75
2503.503	527.08333
2505.899	500.08333
2508.294	516.75
2510.687	499.75
2513.079	501.08333
2515.469	496.41667
2517.858	504.41667
2520.245	512.08333
2522.63	491.75
2525.014	496.41667
2527.396	482.41667
2529.776	488.41667
2532.156	495.41667
2534.533	479.41667
2536.909	480.08333
2539.283	481.75
2541.656	482.75
2544.027	508.75
2546.397	487.75
2548.765	474.41667
2551.131	479.41667
2553.496	488.08333
2555.86	496.08333
2558.221	483.41667
2560.582	477.75
2562.94	469.75
2565.298	475.75
2567.653	506.41667
2570.007	462.41667
2572.36	481.41667
2574.711	476.41667
2577.06	493.41667
2579.408	477.41667
2581.754	478.75
2584.099	469.08333
2586.442	469.08333
2588.784	471.75
2591.124	476.08333
2593.463	469.75
2595.8	473.08333
2598.135	455.75
2600.469	471.41667
2602.802	484.75
2605.133	478.08333
2607.462	466.08333
2609.79	462.41667
2612.116	473.08333
2614.441	467.41667
2616.764	472.41667
2619.086	458.75
2621.406	461.41667
2623.725	469.75
2626.042	465.08333
2628.358	459.08333
2630.672	458.08333
2632.985	480.08333
2635.296	473.75
2637.606	470.08333
2639.914	460.41667
2642.22	471.75
2644.525	463.41667
2646.829	473.08333
2649.131	479.41667
2651.432	476.41667
2653.731	476.75
2656.028	482.08333
2658.324	464.75
2660.619	457.41667
2662.912	482.08333
2665.204	456.75
2667.494	482.41667
2669.782	470.75
2672.07	471.41667
2674.355	482.75
2676.639	464.08333
2678.922	467.75
2681.203	477.08333
2683.483	457.41667
2685.761	455.41667
2688.038	483.41667
2690.313	494.75
2692.587	481.41667
2694.859	473.75
2697.13	472.41667
2699.399	487.41667
2701.667	505.08333
2703.933	493.08333
2706.198	491.08333
2708.461	503.08333
2710.723	505.75
2712.984	500.41667
2715.243	505.75
2717.5	496.75
2719.757	510.08333
2722.011	505.41667
2724.264	517.08333
2726.516	527.75
2728.766	519.08333
2731.015	505.75
2733.262	509.75
2735.508	499.41667
2737.753	500.75
2739.996	489.41667
2742.237	486.75
2744.477	509.08333
2746.716	508.75
2748.953	489.75
2751.189	501.75
2753.423	486.41667
2755.656	480.75
2757.887	476.75
2760.117	487.41667
2762.346	466.41667
2764.573	472.75
2766.798	475.41667
2769.022	485.41667
2771.245	483.75
2773.467	483.41667
2775.686	494.08333
2777.905	498.75
2780.122	497.75
2782.337	507.08333
2784.552	507.08333
2786.764	518.08333
2788.976	517.75
2791.186	528.75
2793.394	525.08333
2795.601	538.75
2797.807	553.41667
2800.011	558.75
2802.214	571.41667
2804.415	581.41667
2806.615	573.08333
2808.814	595.75
2811.011	603.08333
2813.206	597.41667
2815.401	625.75
2817.594	635.08333
2819.785	648.08333
2821.975	652.75
2824.164	643.08333
2826.351	667.41667
2828.537	684.41667
2830.722	700.08333
2832.905	702.08333
2835.086	722.75
2837.267	752.08333
2839.445	793.41667
2841.623	800.41667
2843.799	844.41667
2845.974	873.08333
2848.147	911.75
2850.319	936.08333
2852.489	966.75
2854.659	962.41667
2856.826	981.41667
2858.993	1007.41667
2861.158	993.41667
2863.321	991.75
2865.483	1009.41667
2867.644	1019.08333
2869.804	1015.08333
2871.962	994.41667
2874.118	991.75
2876.274	979.41667
2878.428	977.75
2880.58	972.08333
2882.731	966.08333
2884.881	968.75
2887.03	973.08333
2889.177	982.75
2891.322	987.41667
2893.467	972.08333
2895.61	979.08333
2897.751	1012.08333
2899.892	983.41667
2902.03	1004.75
2904.168	1009.08333
2906.304	1006.41667
2908.439	1032.08333
2910.572	1001.75
2912.704	1012.08333
2914.835	1020.41667
2916.965	1000.41667
2919.093	1013.75
2921.219	978.75
2923.345	989.75
2925.469	964.08333
2927.591	954.08333
2929.712	915.41667
2931.832	910.75
2933.951	897.08333
2936.068	860.08333
2938.184	846.08333
2940.299	817.08333
2942.412	783.41667
2944.524	752.75
2946.634	732.41667
2948.744	691.41667
2950.851	709.08333
2952.958	659.75
2955.063	646.75
2957.167	628.08333
2959.269	600.75
2961.371	610.41667
2963.471	565.41667
2965.569	574.08333
2967.666	538.75
2969.762	517.08333
2971.857	508.75
2973.95	492.75
2976.042	485.41667
2978.133	474.75
2980.222	459.08333
2982.31	441.08333
2984.396	425.75
2986.482	420.41667
2988.566	419.75
2990.648	400.08333
2992.73	397.08333
2994.81	388.75
2996.889	392.75
2998.966	395.08333
3001.042	391.75
3003.117	384.08333
3005.191	384.08333
3007.263	378.41667
3009.334	364.41667
3011.403	363.41667
3013.472	341.41667
3015.539	353.41667
3017.604	367.08333
3019.669	325.41667
3021.732	322.75
3023.794	326.41667
3025.854	311.41667
3027.914	311.08333
3029.971	315.75
3032.028	308.41667
3034.083	312.41667
3036.137	309.08333
3038.19	298.41667
3040.242	288.08333
3042.292	279.75
3044.341	286.41667
3046.388	291.08333
3048.435	267.41667
3050.48	287.41667
3052.524	274.41667
3054.566	250.75
3056.607	274.41667
3058.647	262.41667
3060.686	251.75
3062.723	243.41667
3064.759	232.41667
3066.794	-0.25
3068.828	-1.91667
3070.86	-1.58333
