-0.839	429.58333
3.438	470.25
7.711	128.91667
11.981	52.91667
16.247	43.91667
20.509	42.25
24.768	44.25
29.024	46.58333
33.276	43.58333
37.524	50.25
41.769	38.25
46.01	35.58333
50.247	50.91667
54.481	62.91667
58.712	66.91667
62.939	50.91667
67.162	64.25
71.382	55.91667
75.599	49.58333
79.812	58.58333
84.021	80.58333
88.227	61.91667
92.429	58.91667
96.628	49.25
100.823	67.58333
105.015	75.25
109.204	75.91667
113.388	74.91667
117.57	75.58333
121.748	87.58333
125.922	79.25
130.093	102.25
134.261	108.91667
138.425	97.25
142.585	137.25
146.742	142.58333
150.896	167.25
155.046	206.58333
159.193	333.91667
163.336	581.58333
167.476	1048.25
171.613	1946.58333
175.746	3249.25
179.875	4810.91667
184.002	6275.58333
188.124	7228.58333
192.244	7508.25
196.36	7389.91667
200.472	7124.25
204.581	6865.91667
208.687	6641.58333
212.79	6538.91667
216.889	6510.25
220.984	6539.25
225.077	6563.58333
229.165	6584.91667
233.251	6619.25
237.333	6633.58333
241.412	6593.91667
245.487	6572.25
249.559	6494.25
253.628	6414.58333
257.694	6362.25
261.756	6314.25
265.814	6224.25
269.87	6031.91667
273.922	5879.91667
277.97	5796.91667
282.016	5755.91667
286.058	5708.25
290.097	5828.91667
294.132	5846.58333
298.164	5802.91667
302.193	5550.25
306.219	5107.25
310.241	4630.58333
314.26	4188.25
318.276	3824.25
322.288	3571.91667
326.297	3314.58333
330.303	3164.58333
334.305	3041.58333
338.305	2963.91667
342.301	2910.58333
346.294	2877.25
350.283	2840.91667
354.269	2801.25
358.252	2781.25
362.232	2766.91667
366.209	2731.25
370.182	2694.25
374.152	2680.58333
378.119	2680.91667
382.083	2666.58333
386.043	2663.58333
390	2616.25
393.954	2625.58333
397.905	2595.58333
401.852	2570.91667
405.797	2533.25
409.738	2520.58333
413.676	2481.25
417.61	2505.25
421.542	2456.25
425.47	2457.91667
429.396	2412.25
433.318	2422.25
437.236	2367.58333
441.152	2417.58333
445.065	2349.91667
448.974	2345.91667
452.88	2315.58333
456.783	2298.58333
460.683	2282.58333
464.58	2276.58333
468.473	2304.25
472.364	2276.25
476.251	2288.91667
480.135	2309.91667
484.016	2336.25
487.894	2353.58333
491.769	2353.58333
495.641	2375.58333
499.509	2349.91667
503.375	2341.58333
507.237	2358.91667
511.096	2347.91667
514.952	2357.91667
518.805	2398.58333
522.655	2388.58333
526.502	2354.58333
530.346	2339.58333
534.187	2369.25
538.024	2391.58333
541.859	2378.58333
545.69	2390.91667
549.519	2381.58333
553.344	2342.91667
557.166	2329.91667
560.985	2297.25
564.802	2294.91667
568.615	2223.91667
572.425	2183.25
576.232	2161.58333
580.036	2180.25
583.836	2172.58333
587.634	2166.58333
591.429	2164.58333
595.221	2218.91667
599.01	2260.91667
602.796	2271.91667
606.578	2295.25
610.358	2302.58333
614.135	2277.91667
617.909	2292.58333
621.679	2278.58333
625.447	2255.58333
629.212	2258.25
632.973	2264.58333
636.732	2231.25
640.488	2246.91667
644.241	2210.58333
647.991	2211.25
651.737	2243.58333
655.481	2221.58333
659.222	2213.91667
662.96	2209.91667
666.695	2230.91667
670.427	2238.91667
674.156	2259.91667
677.882	2246.25
681.605	2222.91667
685.325	2228.58333
689.043	2204.25
692.757	2205.58333
696.468	2199.91667
700.177	2211.25
703.882	2210.58333
707.585	2208.25
711.284	2200.91667
714.981	2200.91667
718.675	2220.58333
722.366	2233.91667
726.054	2195.91667
729.739	2233.91667
733.421	2221.25
737.1	2219.58333
740.777	2242.91667
744.45	2262.91667
748.121	2281.25
751.789	2312.91667
755.453	2306.58333
759.115	2313.58333
762.774	2349.91667
766.431	2386.91667
770.084	2388.25
773.734	2443.91667
777.382	2493.58333
781.027	2511.91667
784.669	2508.58333
788.308	2544.58333
791.944	2566.25
795.577	2564.25
799.208	2582.91667
802.835	2597.25
806.46	2633.91667
810.082	2642.25
813.701	2661.58333
817.317	2678.91667
820.931	2687.58333
824.542	2674.25
828.149	2666.58333
831.754	2632.91667
835.357	2635.58333
838.956	2623.58333
842.553	2618.25
846.146	2593.25
849.737	2596.58333
853.326	2615.58333
856.911	2607.58333
860.493	2645.91667
864.073	2659.58333
867.65	2708.91667
871.225	2742.91667
874.796	2770.58333
878.365	2752.58333
881.931	2769.25
885.494	2809.91667
889.054	2794.91667
892.612	2770.25
896.166	2753.25
899.719	2736.58333
903.268	2710.58333
906.814	2690.25
910.358	2659.25
913.899	2683.58333
917.438	2649.25
920.973	2659.91667
924.506	2708.58333
928.036	2731.25
931.564	2780.91667
935.088	2800.58333
938.61	2816.58333
942.129	2858.58333
945.646	2940.91667
949.16	3004.25
952.671	3080.91667
956.179	3103.25
959.685	3060.58333
963.188	3051.91667
966.688	3014.25
970.185	2910.91667
973.68	2870.58333
977.173	2837.91667
980.662	2809.58333
984.149	2816.25
987.633	2801.58333
991.114	2870.58333
994.593	2942.25
998.069	3057.25
1001.542	3162.91667
1005.013	3070.58333
1008.481	2900.25
1011.947	2825.91667
1015.409	2824.58333
1018.869	2844.58333
1022.327	2825.91667
1025.782	2794.58333
1029.234	2806.25
1032.683	2755.25
1036.13	2678.91667
1039.574	2574.58333
1043.016	2518.91667
1046.455	2480.25
1049.891	2424.58333
1053.325	2441.91667
1056.756	2455.25
1060.184	2463.25
1063.61	2459.91667
1067.033	2497.58333
1070.454	2509.25
1073.872	2539.91667
1077.287	2525.25
1080.7	2538.91667
1084.11	2549.25
1087.517	2511.58333
1090.922	2494.91667
1094.325	2446.58333
1097.724	2432.58333
1101.122	2437.58333
1104.516	2424.25
1107.908	2437.25
1111.298	2483.25
1114.684	2504.91667
1118.069	2538.91667
1121.45	2558.91667
1124.83	2555.91667
1128.206	2584.58333
1131.58	2636.58333
1134.951	2722.25
1138.32	2839.58333
1141.687	2923.58333
1145.05	3016.91667
1148.412	3041.58333
1151.77	3011.25
1155.126	3035.91667
1158.48	3004.91667
1161.831	3012.58333
1165.18	3046.91667
1168.525	3074.25
1171.869	3145.25
1175.21	3153.58333
1178.548	3174.58333
1181.884	3207.91667
1185.217	3221.25
1188.548	3290.91667
1191.877	3377.58333
1195.202	3449.91667
1198.526	3484.58333
1201.846	3497.25
1205.165	3507.25
1208.48	3499.58333
1211.794	3490.91667
1215.104	3478.58333
1218.413	3494.25
1221.719	3473.91667
1225.022	3434.25
1228.323	3378.25
1231.621	3396.91667
1234.917	3387.58333
1238.21	3398.25
1241.501	3375.25
1244.79	3339.91667
1248.076	3356.58333
1251.359	3374.25
1254.64	3471.58333
1257.919	3499.25
1261.195	3573.91667
1264.468	3628.25
1267.74	3694.25
1271.008	3686.58333
1274.275	3676.25
1277.538	3653.58333
1280.8	3643.91667
1284.059	3656.58333
1287.315	3694.91667
1290.569	3697.91667
1293.821	3735.91667
1297.07	3784.25
1300.317	3757.58333
1303.562	3742.58333
1306.803	3746.91667
1310.043	3690.58333
1313.28	3643.91667
1316.515	3624.58333
1319.747	3580.91667
1322.977	3523.91667
1326.204	3466.25
1329.429	3404.91667
1332.652	3358.25
1335.872	3379.58333
1339.09	3347.25
1342.306	3326.91667
1345.519	3260.25
1348.729	3251.25
1351.938	3230.91667
1355.144	3184.91667
1358.347	3147.58333
1361.548	3165.25
1364.747	3151.58333
1367.944	3144.58333
1371.138	3158.25
1374.329	3205.58333
1377.518	3261.25
1380.705	3309.91667
1383.89	3272.91667
1387.072	3188.58333
1390.252	3049.25
1393.429	2950.25
1396.605	2833.25
1399.777	2742.91667
1402.948	2716.91667
1406.116	2706.25
1409.282	2686.91667
1412.445	2703.58333
1415.606	2726.58333
1418.765	2790.58333
1421.921	2860.25
1425.075	2949.58333
1428.227	3035.25
1431.376	3188.25
1434.524	3296.58333
1437.668	3423.25
1440.811	3444.58333
1443.951	3457.58333
1447.089	3454.91667
1450.224	3470.91667
1453.357	3437.25
1456.488	3419.91667
1459.617	3332.91667
1462.743	3307.58333
1465.867	3225.91667
1468.989	3182.25
1472.108	3115.58333
1475.225	3076.25
1478.34	3040.91667
1481.453	3036.58333
1484.563	3057.25
1487.671	3083.25
1490.776	3154.58333
1493.88	3205.58333
1496.981	3287.25
1500.08	3342.58333
1503.176	3385.91667
1506.271	3433.25
1509.363	3491.25
1512.452	3532.25
1515.54	3597.25
1518.625	3666.91667
1521.708	3786.25
1524.789	3955.25
1527.867	4148.58333
1530.944	4384.25
1534.018	4623.91667
1537.089	4763.91667
1540.159	4770.58333
1543.226	4678.58333
1546.291	4528.58333
1549.354	4415.25
1552.415	4276.91667
1555.473	4175.58333
1558.529	4083.25
1561.583	4034.25
1564.634	4008.58333
1567.684	4005.25
1570.731	4025.25
1573.776	4062.58333
1576.819	4088.91667
1579.859	4116.25
1582.898	4167.58333
1585.934	4198.91667
1588.968	4226.25
1591.999	4200.25
1595.029	4254.58333
1598.056	4250.25
1601.081	4271.58333
1604.104	4249.58333
1607.125	4201.91667
1610.144	4097.58333
1613.16	4028.58333
1616.174	3912.91667
1619.186	3795.25
1622.196	3698.91667
1625.203	3606.91667
1628.209	3563.91667
1631.212	3529.91667
1634.213	3488.25
1637.212	3461.58333
1640.209	3399.58333
1643.203	3294.25
1646.196	3214.58333
1649.186	3073.58333
1652.174	3020.58333
1655.16	2909.25
1658.144	2810.58333
1661.125	2681.25
1664.105	2561.25
1667.082	2447.91667
1670.057	2316.91667
1673.03	2169.58333
1676.001	2020.58333
1678.97	1879.91667
1681.937	1762.91667
1684.901	1661.91667
1687.863	1595.25
1690.824	1520.58333
1693.782	1512.91667
1696.738	1427.58333
1699.692	1413.25
1702.643	1369.25
1705.593	1365.58333
1708.54	1326.58333
1711.486	1312.25
1714.429	1305.25
1717.37	1285.58333
1720.309	1260.58333
1723.246	1268.58333
1726.181	1252.58333
1729.113	1253.58333
1732.044	1228.91667
1734.972	1212.58333
1737.899	1220.58333
1740.823	1191.58333
1743.745	1201.91667
1746.665	1150.58333
1749.583	1133.25
1752.499	1114.25
1755.413	1106.25
1758.325	1072.58333
1761.235	1068.91667
1764.142	1042.25
1767.048	1047.58333
1769.951	1035.91667
1772.852	1020.91667
1775.752	1016.58333
1778.649	1024.91667
1781.544	1016.25
1784.437	996.25
1787.328	997.25
1790.217	988.91667
1793.104	969.25
1795.989	969.58333
1798.872	965.25
1801.753	970.25
1804.631	967.58333
1807.508	972.25
1810.383	956.25
1813.255	953.91667
1816.126	956.58333
1818.994	952.25
1821.861	936.58333
1824.725	936.91667
1827.587	946.91667
1830.448	927.58333
1833.306	902.91667
1836.162	920.58333
1839.017	908.91667
1841.869	908.25
1844.719	909.91667
1847.567	885.58333
1850.414	879.25
1853.258	886.91667
1856.1	903.25
1858.94	898.58333
1861.778	898.58333
1864.614	874.91667
1867.448	888.25
1870.28	879.91667
1873.111	902.25
1875.939	886.25
1878.765	907.25
1881.589	875.58333
1884.411	874.58333
1887.231	888.58333
1890.049	863.25
1892.865	867.25
1895.68	864.25
1898.492	863.91667
1901.302	851.58333
1904.11	854.58333
1906.916	847.91667
1909.721	838.25
1912.523	852.25
1915.323	841.58333
1918.122	833.58333
1920.918	833.91667
1923.712	834.58333
1926.505	841.91667
1929.295	811.91667
1932.084	830.58333
1934.87	836.58333
1937.655	824.91667
1940.438	821.58333
1943.218	819.58333
1945.997	819.91667
1948.774	833.91667
1951.549	835.25
1954.322	805.91667
1957.093	820.58333
1959.862	818.25
1962.629	815.25
1965.394	807.58333
1968.157	795.58333
1970.918	802.25
1973.678	789.91667
1976.435	817.91667
1979.19	777.25
1981.944	776.91667
1984.696	785.91667
1987.445	773.91667
1990.193	786.25
1992.939	799.58333
1995.683	774.91667
1998.425	750.58333
2001.165	791.25
2003.903	772.58333
2006.639	773.91667
2009.374	770.58333
2012.106	777.91667
2014.837	763.25
2017.566	772.91667
2020.292	773.25
2023.017	772.25
2025.74	764.58333
2028.461	746.58333
2031.18	754.25
2033.898	741.91667
2036.613	753.58333
2039.327	752.58333
2042.038	745.58333
2044.748	740.25
2047.456	758.58333
2050.162	735.91667
2052.866	723.58333
2055.568	736.91667
2058.268	729.58333
2060.967	740.58333
2063.663	730.58333
2066.358	735.58333
2069.051	720.58333
2071.742	734.25
2074.431	734.25
2077.118	730.25
2079.804	725.25
2082.487	728.91667
2085.169	738.25
2087.849	738.58333
2090.527	719.58333
2093.203	735.25
2095.877	726.91667
2098.55	745.58333
2101.22	759.58333
2103.889	758.58333
2106.556	753.91667
2109.221	797.58333
2111.884	801.91667
2114.546	869.91667
2117.205	913.91667
2119.863	992.58333
2122.519	1059.25
2125.173	1122.91667
2127.825	1211.58333
2130.475	1237.91667
2133.124	1196.25
2135.771	1152.91667
2138.416	1089.91667
2141.059	1030.91667
2143.7	983.25
2146.339	908.58333
2148.977	864.91667
2151.613	843.91667
2154.247	826.25
2156.879	802.25
2159.51	788.91667
2162.138	772.91667
2164.765	770.91667
2167.39	741.25
2170.013	765.58333
2172.634	750.91667
2175.254	739.58333
2177.872	770.58333
2180.488	722.25
2183.102	732.25
2185.714	717.58333
2188.325	697.58333
2190.934	708.58333
2193.541	698.58333
2196.146	686.91667
2198.75	676.91667
2201.351	671.58333
2203.951	671.91667
2206.549	680.91667
2209.146	664.25
2211.74	656.58333
2214.333	658.91667
2216.924	638.25
2219.514	654.58333
2222.101	638.25
2224.687	661.58333
2227.271	626.58333
2229.853	630.91667
2232.433	623.58333
2235.012	650.25
2237.589	633.91667
2240.164	650.58333
2242.738	633.25
2245.309	618.58333
2247.879	623.58333
2250.448	619.91667
2253.014	599.58333
2255.579	589.91667
2258.142	598.91667
2260.703	566.91667
2263.262	582.25
2265.82	580.91667
2268.376	582.91667
2270.93	567.25
2273.483	571.25
2276.033	568.91667
2278.583	560.91667
2281.13	558.91667
2283.675	544.91667
2286.219	559.25
2288.761	562.25
2291.302	559.91667
2293.841	555.25
2296.377	542.91667
2298.913	542.91667
2301.446	560.91667
2303.978	554.58333
2306.508	538.58333
2309.037	550.25
2311.563	554.91667
2314.088	547.58333
2316.612	525.91667
2319.133	550.25
2321.653	538.25
2324.171	531.91667
2326.688	531.25
2329.202	518.91667
2331.715	535.58333
2334.227	529.91667
2336.736	526.58333
2339.244	511.58333
2341.751	512.91667
2344.255	531.58333
2346.758	508.25
2349.259	507.91667
2351.759	522.91667
2354.257	506.58333
2356.753	506.58333
2359.247	511.25
2361.74	520.58333
2364.231	505.25
2366.721	519.58333
2369.209	510.25
2371.695	502.58333
2374.179	497.58333
2376.662	501.25
2379.143	510.91667
2381.622	495.58333
2384.1	500.58333
2386.576	495.58333
2389.051	509.58333
2391.524	511.91667
2393.995	511.58333
2396.464	498.58333
2398.932	488.58333
2401.398	504.25
2403.863	482.58333
2406.325	482.91667
2408.787	475.25
2411.246	490.91667
2413.704	485.25
2416.16	470.91667
2418.615	481.25
2421.068	488.25
2423.519	482.25
2425.969	480.58333
2428.417	490.58333
2430.863	504.25
2433.308	499.91667
2435.751	481.91667
2438.193	480.25
2440.633	484.58333
2443.071	476.58333
2445.508	457.91667
2447.943	470.91667
2450.376	463.58333
2452.808	474.58333
2455.238	459.91667
2457.667	495.25
2460.093	458.91667
2462.519	456.25
2464.942	460.91667
2467.365	473.25
2469.785	471.25
2472.204	462.58333
2474.621	452.58333
2477.037	477.25
2479.451	443.25
2481.863	456.25
2484.274	445.91667
2486.683	453.58333
2489.091	458.91667
2491.497	462.58333
2493.901	444.91667
2496.304	446.91667
2498.705	454.25
2501.105	445.91667
2503.503	482.58333
2505.899	443.91667
2508.294	457.25
2510.687	436.25
2513.079	433.58333
2515.469	433.91667
2517.858	439.58333
2520.245	450.25
2522.63	443.58333
2525.014	436.91667
2527.396	427.91667
2529.776	436.58333
2532.156	436.58333
2534.533	423.91667
2536.909	432.58333
2539.283	420.91667
2541.656	424.91667
2544.027	458.58333
2546.397	429.25
2548.765	439.91667
2551.131	431.91667
2553.496	427.91667
2555.86	439.91667
2558.221	425.25
2560.582	424.58333
2562.94	414.91667
2565.298	426.58333
2567.653	444.91667
2570.007	416.25
2572.36	426.91667
2574.711	433.58333
2577.06	438.58333
2579.408	422.25
2581.754	420.58333
2584.099	423.25
2586.442	414.25
2588.784	424.25
2591.124	423.25
2593.463	420.25
2595.8	420.91667
2598.135	408.91667
2600.469	416.58333
2602.802	438.25
2605.133	427.25
2607.462	411.91667
2609.79	407.58333
2612.116	418.25
2614.441	415.91667
2616.764	424.91667
2619.086	414.25
2621.406	415.91667
2623.725	423.25
2626.042	425.58333
2628.358	412.25
2630.672	415.91667
2632.985	421.91667
2635.296	418.58333
2637.606	413.25
2639.914	409.58333
2642.22	418.25
2644.525	416.58333
2646.829	419.25
2649.131	430.58333
2651.432	432.25
2653.731	423.25
2656.028	430.58333
2658.324	420.25
2660.619	418.91667
2662.912	431.91667
2665.204	411.58333
2667.494	442.58333
2669.782	419.91667
2672.07	434.91667
2674.355	432.25
2676.639	430.91667
2678.922	423.25
2681.203	431.58333
2683.483	413.91667
2685.761	412.25
2688.038	429.91667
2690.313	442.91667
2692.587	425.58333
2694.859	429.91667
2697.13	435.91667
2699.399	436.25
2701.667	450.58333
2703.933	443.58333
2706.198	439.25
2708.461	447.91667
2710.723	451.25
2712.984	453.58333
2715.243	461.91667
2717.5	454.25
2719.757	479.91667
2722.011	463.25
2724.264	468.91667
2726.516	485.58333
2728.766	468.58333
2731.015	479.25
2733.262	467.25
2735.508	467.91667
2737.753	466.25
2739.996	433.91667
2742.237	445.58333
2744.477	471.58333
2746.716	464.91667
2748.953	444.25
2751.189	455.25
2753.423	448.91667
2755.656	439.58333
2757.887	434.58333
2760.117	438.25
2762.346	441.58333
2764.573	428.91667
2766.798	425.25
2769.022	435.25
2771.245	440.25
2773.467	438.91667
2775.686	441.91667
2777.905	444.25
2780.122	449.91667
2782.337	454.91667
2784.552	450.25
2786.764	462.25
2788.976	463.25
2791.186	464.25
2793.394	470.58333
2795.601	480.25
2797.807	481.25
2800.011	500.91667
2802.214	504.91667
2804.415	507.91667
2806.615	509.91667
2808.814	525.58333
2811.011	533.91667
2813.206	533.58333
2815.401	556.91667
2817.594	552.58333
2819.785	572.58333
2821.975	558.58333
2824.164	570.25
2826.351	595.91667
2828.537	621.25
2830.722	624.25
2832.905	635.58333
2835.086	667.58333
2837.267	702.25
2839.445	738.58333
2841.623	759.91667
2843.799	779.91667
2845.974	836.91667
2848.147	880.58333
2850.319	906.58333
2852.489	939.25
2854.659	933.25
2856.826	962.25
2858.993	987.58333
2861.158	979.58333
2863.321	986.25
2865.483	1005.25
2867.644	1003.25
2869.804	987.91667
2871.962	992.58333
2874.118	986.25
2876.274	984.91667
2878.428	983.25
2880.58	957.91667
2882.731	968.58333
2884.881	967.58333
2887.03	972.91667
2889.177	975.25
2891.322	983.58333
2893.467	990.25
2895.61	994.25
2897.751	1001.25
2899.892	1008.25
2902.03	1019.91667
2904.168	1031.25
2906.304	1020.91667
2908.439	1054.91667
2910.572	1025.58333
2912.704	1040.25
2914.835	1049.58333
2916.965	1042.58333
2919.093	1053.25
2921.219	1014.91667
2923.345	1047.25
2925.469	1006.25
2927.591	996.25
2929.712	952.91667
2931.832	961.91667
2933.951	942.91667
2936.068	921.25
2938.184	882.25
2940.299	853.91667
2942.412	825.58333
2944.524	780.58333
2946.634	773.25
2948.744	714.91667
2950.851	730.58333
2952.958	695.58333
2955.063	674.58333
2957.167	654.25
2959.269	620.58333
2961.371	639.91667
2963.471	593.25
2965.569	600.58333
2967.666	549.25
2969.762	551.91667
2971.857	533.58333
2973.95	520.58333
2976.042	514.25
2978.133	485.25
2980.222	479.91667
2982.31	457.58333
2984.396	444.25
2986.482	440.25
2988.566	444.91667
2990.648	428.25
2992.73	418.58333
2994.81	411.25
2996.889	414.58333
2998.966	404.58333
3001.042	408.58333
3003.117	392.91667
3005.191	388.25
3007.263	398.25
3009.334	380.58333
3011.403	376.58333
3013.472	355.91667
3015.539	366.58333
3017.604	370.58333
3019.669	337.58333
3021.732	348.91667
3023.794	350.25
3025.854	330.25
3027.914	331.25
3029.971	336.25
3032.028	329.91667
3034.083	333.25
3036.137	328.58333
3038.19	311.25
3040.242	298.58333
3042.292	298.25
3044.341	297.25
3046.388	309.91667
3048.435	279.25
3050.48	304.91667
3052.524	287.91667
3054.566	274.58333
3056.607	288.91667
3058.647	278.25
3060.686	264.25
3062.723	259.58333
3064.759	250.25
3066.794	1.58333
3068.828	-2.08333
3070.86	-2.75
