-0.839	425.79167
3.438	467.45833
7.711	132.45833
11.981	54.79167
16.247	48.45833
20.509	41.45833
24.768	44.125
29.024	45.125
33.276	41.125
37.524	53.125
41.769	42.125
46.01	35.45833
50.247	52.79167
54.481	58.45833
58.712	64.125
62.939	50.125
67.162	63.79167
71.382	58.125
75.599	48.125
79.812	63.79167
84.021	84.79167
88.227	59.125
92.429	63.125
96.628	48.125
100.823	67.45833
105.015	77.45833
109.204	74.79167
113.388	75.45833
117.57	72.79167
121.748	87.79167
125.922	82.125
130.093	97.79167
134.261	107.79167
138.425	100.79167
142.585	142.125
146.742	138.79167
150.896	176.125
155.046	210.45833
159.193	330.45833
163.336	570.45833
167.476	1046.79167
171.613	1942.125
175.746	3243.79167
179.875	4773.125
184.002	6239.125
188.124	7152.79167
192.244	7478.125
196.36	7336.45833
200.472	7084.45833
204.581	6835.45833
208.687	6595.45833
212.79	6505.125
216.889	6476.125
220.984	6495.125
225.077	6547.79167
229.165	6530.79167
233.251	6615.125
237.333	6601.125
241.412	6605.45833
245.487	6572.79167
249.559	6465.125
253.628	6438.79167
257.694	6386.45833
261.756	6334.125
265.814	6201.45833
269.87	6047.45833
273.922	5902.45833
277.97	5802.45833
282.016	5717.79167
286.058	5756.45833
290.097	5789.79167
294.132	5826.45833
298.164	5776.79167
302.193	5546.45833
306.219	5088.45833
310.241	4631.79167
314.26	4186.45833
318.276	3802.79167
322.288	3564.79167
326.297	3326.79167
330.303	3169.79167
334.305	3058.125
338.305	2976.45833
342.301	2934.79167
346.294	2878.125
350.283	2843.45833
354.269	2816.125
358.252	2784.45833
362.232	2750.45833
366.209	2750.45833
370.182	2718.125
374.152	2693.45833
378.119	2682.45833
382.083	2655.45833
386.043	2688.79167
390	2638.79167
393.954	2618.79167
397.905	2594.125
401.852	2590.125
405.797	2548.45833
409.738	2503.79167
413.676	2512.45833
417.61	2491.79167
421.542	2472.79167
425.47	2438.45833
429.396	2433.79167
433.318	2407.45833
437.236	2397.45833
441.152	2409.45833
445.065	2354.125
448.974	2353.45833
452.88	2321.125
456.783	2315.125
460.683	2285.45833
464.58	2303.125
468.473	2289.45833
472.364	2301.125
476.251	2302.125
480.135	2324.45833
484.016	2333.45833
487.894	2362.125
491.769	2356.125
495.641	2378.79167
499.509	2371.125
503.375	2387.45833
507.237	2352.45833
511.096	2361.45833
514.952	2380.45833
518.805	2381.45833
522.655	2397.125
526.502	2358.45833
530.346	2356.125
534.187	2373.125
538.024	2394.45833
541.859	2384.45833
545.69	2404.125
549.519	2396.125
553.344	2380.79167
557.166	2314.125
560.985	2299.45833
564.802	2255.79167
568.615	2223.45833
572.425	2206.125
576.232	2164.125
580.036	2175.79167
583.836	2185.79167
587.634	2165.125
591.429	2184.45833
595.221	2223.125
599.01	2244.45833
602.796	2290.125
606.578	2304.45833
610.358	2306.125
614.135	2283.79167
617.909	2284.125
621.679	2277.45833
625.447	2246.45833
629.212	2256.79167
632.973	2244.79167
636.732	2249.45833
640.488	2262.79167
644.241	2217.125
647.991	2210.45833
651.737	2203.79167
655.481	2207.45833
659.222	2235.79167
662.96	2239.79167
666.695	2241.125
670.427	2262.79167
674.156	2268.45833
677.882	2263.125
681.605	2263.45833
685.325	2214.125
689.043	2213.79167
692.757	2221.79167
696.468	2235.125
700.177	2215.45833
703.882	2201.79167
707.585	2209.79167
711.284	2232.45833
714.981	2219.79167
718.675	2220.79167
722.366	2233.45833
726.054	2215.125
729.739	2222.79167
733.421	2222.45833
737.1	2216.45833
740.777	2241.125
744.45	2265.125
748.121	2266.45833
751.789	2329.125
755.453	2317.125
759.115	2342.79167
762.774	2374.79167
766.431	2375.45833
770.084	2414.125
773.734	2446.79167
777.382	2488.125
781.027	2538.79167
784.669	2519.45833
788.308	2549.45833
791.944	2584.79167
795.577	2596.79167
799.208	2617.79167
802.835	2589.79167
806.46	2662.45833
810.082	2655.79167
813.701	2669.79167
817.317	2708.125
820.931	2699.79167
824.542	2681.79167
828.149	2654.79167
831.754	2661.79167
835.357	2639.45833
838.956	2619.125
842.553	2598.79167
846.146	2606.45833
849.737	2602.125
853.326	2610.79167
856.911	2593.79167
860.493	2643.45833
864.073	2630.79167
867.65	2703.79167
871.225	2729.79167
874.796	2730.45833
878.365	2762.125
881.931	2774.125
885.494	2786.79167
889.054	2780.125
892.612	2805.45833
896.166	2776.79167
899.719	2716.45833
903.268	2702.125
906.814	2678.125
910.358	2676.45833
913.899	2652.79167
917.438	2668.45833
920.973	2671.79167
924.506	2702.79167
928.036	2737.79167
931.564	2771.125
935.088	2800.125
938.61	2839.45833
942.129	2846.45833
945.646	2915.125
949.16	3014.45833
952.671	3083.45833
956.179	3104.45833
959.685	3088.79167
963.188	3071.45833
966.688	3015.79167
970.185	2927.45833
973.68	2857.125
977.173	2838.125
980.662	2813.45833
984.149	2817.79167
987.633	2817.79167
991.114	2847.125
994.593	2943.125
998.069	3040.79167
1001.542	3151.45833
1005.013	3082.79167
1008.481	2887.79167
1011.947	2834.45833
1015.409	2815.79167
1018.869	2807.79167
1022.327	2831.45833
1025.782	2814.45833
1029.234	2813.79167
1032.683	2788.45833
1036.13	2696.79167
1039.574	2571.79167
1043.016	2513.79167
1046.455	2483.45833
1049.891	2436.125
1053.325	2426.45833
1056.756	2451.45833
1060.184	2494.79167
1063.61	2471.79167
1067.033	2479.45833
1070.454	2493.125
1073.872	2525.45833
1077.287	2523.79167
1080.7	2537.45833
1084.11	2530.125
1087.517	2528.79167
1090.922	2492.45833
1094.325	2449.45833
1097.724	2434.45833
1101.122	2414.125
1104.516	2429.125
1107.908	2442.45833
1111.298	2461.45833
1114.684	2505.45833
1118.069	2538.125
1121.45	2555.79167
1124.83	2553.79167
1128.206	2584.45833
1131.58	2635.125
1134.951	2715.79167
1138.32	2813.79167
1141.687	2933.125
1145.05	2991.45833
1148.412	3047.79167
1151.77	3008.79167
1155.126	3010.125
1158.48	2993.79167
1161.831	2989.45833
1165.18	3010.45833
1168.525	3069.45833
1171.869	3124.79167
1175.21	3136.79167
1178.548	3185.125
1181.884	3199.125
1185.217	3212.79167
1188.548	3304.79167
1191.877	3371.79167
1195.202	3434.125
1198.526	3482.79167
1201.846	3500.79167
1205.165	3500.45833
1208.48	3489.45833
1211.794	3462.125
1215.104	3487.125
1218.413	3512.45833
1221.719	3523.45833
1225.022	3425.45833
1228.323	3387.79167
1231.621	3386.45833
1234.917	3385.45833
1238.21	3398.79167
1241.501	3366.45833
1244.79	3369.79167
1248.076	3384.45833
1251.359	3400.45833
1254.64	3480.79167
1257.919	3491.45833
1261.195	3544.125
1264.468	3629.125
1267.74	3681.125
1271.008	3697.79167
1274.275	3659.125
1277.538	3650.125
1280.8	3655.125
1284.059	3660.45833
1287.315	3687.45833
1290.569	3696.45833
1293.821	3703.45833
1297.07	3750.125
1300.317	3745.125
1303.562	3756.79167
1306.803	3727.45833
1310.043	3664.79167
1313.28	3635.79167
1316.515	3576.125
1319.747	3550.79167
1322.977	3505.79167
1326.204	3451.79167
1329.429	3412.45833
1332.652	3395.45833
1335.872	3358.45833
1339.09	3311.125
1342.306	3303.79167
1345.519	3299.45833
1348.729	3241.79167
1351.938	3219.79167
1355.144	3206.79167
1358.347	3144.79167
1361.548	3169.125
1364.747	3174.45833
1367.944	3154.125
1371.138	3191.45833
1374.329	3215.125
1377.518	3253.45833
1380.705	3297.125
1383.89	3266.79167
1387.072	3179.45833
1390.252	3063.125
1393.429	2947.125
1396.605	2831.79167
1399.777	2740.79167
1402.948	2712.45833
1406.116	2681.79167
1409.282	2706.45833
1412.445	2689.125
1415.606	2726.125
1418.765	2782.45833
1421.921	2858.79167
1425.075	2938.79167
1428.227	3033.45833
1431.376	3157.125
1434.524	3290.125
1437.668	3403.45833
1440.811	3419.45833
1443.951	3453.79167
1447.089	3474.45833
1450.224	3465.45833
1453.357	3447.45833
1456.488	3406.125
1459.617	3345.79167
1462.743	3304.125
1465.867	3228.79167
1468.989	3188.45833
1472.108	3128.79167
1475.225	3098.45833
1478.34	3038.79167
1481.453	3048.125
1484.563	3026.79167
1487.671	3091.125
1490.776	3142.79167
1493.88	3218.79167
1496.981	3266.125
1500.08	3347.79167
1503.176	3369.79167
1506.271	3429.79167
1509.363	3477.45833
1512.452	3507.79167
1515.54	3565.79167
1518.625	3633.45833
1521.708	3752.79167
1524.789	3947.79167
1527.867	4122.79167
1530.944	4373.79167
1534.018	4602.79167
1537.089	4748.125
1540.159	4764.125
1543.226	4679.45833
1546.291	4537.125
1549.354	4374.79167
1552.415	4238.79167
1555.473	4118.45833
1558.529	4058.125
1561.583	4000.45833
1564.634	4007.125
1567.684	3979.45833
1570.731	3973.45833
1573.776	4023.45833
1576.819	4085.79167
1579.859	4118.125
1582.898	4161.125
1585.934	4160.79167
1588.968	4214.79167
1591.999	4202.125
1595.029	4187.125
1598.056	4238.79167
1601.081	4249.125
1604.104	4218.79167
1607.125	4192.45833
1610.144	4062.45833
1613.16	3975.79167
1616.174	3896.79167
1619.186	3810.125
1622.196	3718.45833
1625.203	3621.45833
1628.209	3554.79167
1631.212	3536.79167
1634.213	3527.125
1637.212	3481.125
1640.209	3422.125
1643.203	3351.125
1646.196	3237.79167
1649.186	3097.79167
1652.174	3019.125
1655.16	2948.79167
1658.144	2829.79167
1661.125	2714.125
1664.105	2599.79167
1667.082	2456.45833
1670.057	2316.45833
1673.03	2163.125
1676.001	2020.79167
1678.97	1892.125
1681.937	1764.45833
1684.901	1672.45833
1687.863	1609.125
1690.824	1535.125
1693.782	1500.125
1696.738	1430.79167
1699.692	1419.79167
1702.643	1373.125
1705.593	1369.45833
1708.54	1342.125
1711.486	1332.125
1714.429	1288.79167
1717.37	1295.45833
1720.309	1274.79167
1723.246	1280.79167
1726.181	1239.45833
1729.113	1237.125
1732.044	1214.125
1734.972	1220.45833
1737.899	1216.45833
1740.823	1202.45833
1743.745	1201.79167
1746.665	1164.79167
1749.583	1133.125
1752.499	1111.125
1755.413	1104.45833
1758.325	1082.79167
1761.235	1077.79167
1764.142	1046.79167
1767.048	1043.79167
1769.951	1044.125
1772.852	1024.79167
1775.752	1036.79167
1778.649	1016.79167
1781.544	1017.79167
1784.437	997.79167
1787.328	1004.79167
1790.217	1006.45833
1793.104	964.79167
1795.989	975.125
1798.872	954.45833
1801.753	982.125
1804.631	979.125
1807.508	971.79167
1810.383	973.125
1813.255	955.125
1816.126	954.125
1818.994	958.79167
1821.861	938.45833
1824.725	940.79167
1827.587	951.125
1830.448	934.45833
1833.306	918.125
1836.162	930.79167
1839.017	914.45833
1841.869	924.45833
1844.719	910.45833
1847.567	900.45833
1850.414	896.79167
1853.258	898.45833
1856.1	918.45833
1858.94	911.79167
1861.778	899.45833
1864.614	896.45833
1867.448	894.45833
1870.28	884.125
1873.111	896.125
1875.939	893.125
1878.765	909.79167
1881.589	886.45833
1884.411	879.45833
1887.231	886.125
1890.049	882.125
1892.865	877.125
1895.68	863.125
1898.492	882.45833
1901.302	851.45833
1904.11	863.79167
1906.916	843.125
1909.721	839.79167
1912.523	858.125
1915.323	829.125
1918.122	839.125
1920.918	846.125
1923.712	833.45833
1926.505	832.45833
1929.295	828.125
1932.084	840.79167
1934.87	844.125
1937.655	820.79167
1940.438	822.45833
1943.218	832.79167
1945.997	829.125
1948.774	847.125
1951.549	830.125
1954.322	834.125
1957.093	816.45833
1959.862	813.125
1962.629	817.45833
1965.394	807.45833
1968.157	798.45833
1970.918	814.125
1973.678	792.45833
1976.435	806.45833
1979.19	795.45833
1981.944	790.125
1984.696	792.79167
1987.445	780.45833
1990.193	795.45833
1992.939	804.125
1995.683	789.79167
1998.425	764.79167
2001.165	797.125
2003.903	775.45833
2006.639	778.79167
2009.374	776.45833
2012.106	778.125
2014.837	767.125
2017.566	776.79167
2020.292	773.45833
2023.017	777.79167
2025.74	766.79167
2028.461	761.45833
2031.18	766.79167
2033.898	752.79167
2036.613	760.125
2039.327	766.45833
2042.038	752.79167
2044.748	746.45833
2047.456	751.45833
2050.162	735.45833
2052.866	736.79167
2055.568	753.125
2058.268	733.45833
2060.967	741.125
2063.663	722.125
2066.358	738.125
2069.051	730.79167
2071.742	738.79167
2074.431	732.125
2077.118	733.79167
2079.804	719.45833
2082.487	729.45833
2085.169	746.45833
2087.849	748.45833
2090.527	734.125
2093.203	738.79167
2095.877	744.125
2098.55	737.125
2101.22	756.125
2103.889	760.125
2106.556	752.125
2109.221	793.125
2111.884	800.45833
2114.546	871.125
2117.205	913.125
2119.863	985.79167
2122.519	1049.45833
2125.173	1131.45833
2127.825	1214.125
2130.475	1223.79167
2133.124	1189.125
2135.771	1130.125
2138.416	1107.79167
2141.059	1005.45833
2143.7	986.79167
2146.339	911.45833
2148.977	859.45833
2151.613	846.79167
2154.247	816.45833
2156.879	804.79167
2159.51	787.45833
2162.138	770.45833
2164.765	766.45833
2167.39	752.125
2170.013	764.125
2172.634	761.125
2175.254	750.45833
2177.872	770.125
2180.488	736.125
2183.102	732.125
2185.714	717.125
2188.325	702.125
2190.934	708.125
2193.541	711.125
2196.146	690.125
2198.75	678.79167
2201.351	679.45833
2203.951	661.79167
2206.549	668.45833
2209.146	661.79167
2211.74	655.79167
2214.333	671.79167
2216.924	638.79167
2219.514	657.45833
2222.101	641.45833
2224.687	661.45833
2227.271	634.79167
2229.853	633.125
2232.433	625.45833
2235.012	649.79167
2237.589	650.79167
2240.164	640.45833
2242.738	636.125
2245.309	614.45833
2247.879	628.125
2250.448	639.45833
2253.014	606.45833
2255.579	592.79167
2258.142	593.79167
2260.703	589.45833
2263.262	592.45833
2265.82	585.125
2268.376	584.79167
2270.93	572.45833
2273.483	573.79167
2276.033	574.125
2278.583	562.125
2281.13	565.45833
2283.675	563.45833
2286.219	569.79167
2288.761	565.45833
2291.302	573.125
2293.841	567.79167
2296.377	533.79167
2298.913	558.125
2301.446	557.79167
2303.978	552.45833
2306.508	546.79167
2309.037	546.125
2311.563	542.45833
2314.088	554.45833
2316.612	533.45833
2319.133	544.45833
2321.653	545.125
2324.171	525.125
2326.688	533.79167
2329.202	529.79167
2331.715	536.125
2334.227	529.79167
2336.736	517.45833
2339.244	521.45833
2341.751	517.45833
2344.255	528.125
2346.758	518.45833
2349.259	511.125
2351.759	510.125
2354.257	503.45833
2356.753	503.125
2359.247	505.125
2361.74	520.125
2364.231	508.45833
2366.721	514.125
2369.209	497.45833
2371.695	503.45833
2374.179	499.125
2376.662	500.45833
2379.143	517.79167
2381.622	510.125
2384.1	506.125
2386.576	491.79167
2389.051	516.125
2391.524	519.45833
2393.995	503.45833
2396.464	495.125
2398.932	488.45833
2401.398	498.45833
2403.863	482.79167
2406.325	489.79167
2408.787	471.125
2411.246	487.79167
2413.704	483.45833
2416.16	482.125
2418.615	491.45833
2421.068	489.125
2423.519	479.79167
2425.969	471.79167
2428.417	485.45833
2430.863	504.45833
2433.308	492.125
2435.751	488.125
2438.193	485.45833
2440.633	488.79167
2443.071	482.79167
2445.508	471.45833
2447.943	466.125
2450.376	468.125
2452.808	472.125
2455.238	456.79167
2457.667	487.79167
2460.093	466.45833
2462.519	458.45833
2464.942	459.125
2467.365	464.79167
2469.785	470.79167
2472.204	463.79167
2474.621	462.45833
2477.037	472.79167
2479.451	465.45833
2481.863	446.45833
2484.274	455.125
2486.683	458.125
2489.091	469.79167
2491.497	459.125
2493.901	451.79167
2496.304	460.79167
2498.705	450.125
2501.105	447.45833
2503.503	470.79167
2505.899	447.79167
2508.294	464.79167
2510.687	441.45833
2513.079	450.125
2515.469	433.125
2517.858	438.45833
2520.245	454.79167
2522.63	443.79167
2525.014	423.79167
2527.396	438.45833
2529.776	428.45833
2532.156	444.125
2534.533	428.45833
2536.909	436.125
2539.283	420.45833
2541.656	432.79167
2544.027	448.79167
2546.397	434.79167
2548.765	438.125
2551.131	431.79167
2553.496	428.79167
2555.86	437.45833
2558.221	428.45833
2560.582	420.45833
2562.94	414.79167
2565.298	433.79167
2567.653	446.125
2570.007	419.45833
2572.36	425.125
2574.711	425.79167
2577.06	438.125
2579.408	422.125
2581.754	422.45833
2584.099	427.125
2586.442	420.79167
2588.784	426.125
2591.124	428.125
2593.463	421.45833
2595.8	421.45833
2598.135	405.45833
2600.469	418.45833
2602.802	428.125
2605.133	422.79167
2607.462	402.79167
2609.79	416.79167
2612.116	421.45833
2614.441	421.45833
2616.764	420.45833
2619.086	415.79167
2621.406	413.45833
2623.725	425.125
2626.042	420.45833
2628.358	413.125
2630.672	410.45833
2632.985	438.45833
2635.296	422.45833
2637.606	422.45833
2639.914	410.125
2642.22	425.79167
2644.525	418.125
2646.829	421.79167
2649.131	426.125
2651.432	430.125
2653.731	420.79167
2656.028	422.79167
2658.324	424.125
2660.619	404.125
2662.912	433.125
2665.204	417.79167
2667.494	436.125
2669.782	419.79167
2672.07	431.79167
2674.355	435.45833
2676.639	434.125
2678.922	419.79167
2681.203	430.79167
2683.483	413.125
2685.761	411.125
2688.038	433.79167
2690.313	441.79167
2692.587	434.79167
2694.859	423.45833
2697.13	437.125
2699.399	435.79167
2701.667	442.45833
2703.933	445.45833
2706.198	452.79167
2708.461	458.45833
2710.723	456.45833
2712.984	456.45833
2715.243	459.79167
2717.5	457.79167
2719.757	475.79167
2722.011	455.125
2724.264	471.125
2726.516	484.79167
2728.766	466.125
2731.015	473.45833
2733.262	469.45833
2735.508	464.125
2737.753	460.45833
2739.996	450.125
2742.237	446.45833
2744.477	460.125
2746.716	460.45833
2748.953	454.125
2751.189	452.125
2753.423	441.125
2755.656	426.125
2757.887	430.79167
2760.117	442.125
2762.346	434.79167
2764.573	427.79167
2766.798	430.45833
2769.022	431.45833
2771.245	432.45833
2773.467	432.125
2775.686	438.125
2777.905	445.79167
2780.122	453.45833
2782.337	457.45833
2784.552	445.125
2786.764	461.125
2788.976	460.79167
2791.186	471.79167
2793.394	475.79167
2795.601	483.79167
2797.807	489.125
2800.011	492.45833
2802.214	505.79167
2804.415	497.45833
2806.615	492.45833
2808.814	525.45833
2811.011	525.79167
2813.206	522.79167
2815.401	550.79167
2817.594	548.45833
2819.785	572.125
2821.975	553.45833
2824.164	582.45833
2826.351	592.125
2828.537	610.79167
2830.722	635.125
2832.905	637.79167
2835.086	668.45833
2837.267	707.45833
2839.445	735.79167
2841.623	741.45833
2843.799	791.125
2845.974	831.79167
2848.147	877.45833
2850.319	900.79167
2852.489	938.45833
2854.659	947.125
2856.826	967.45833
2858.993	981.79167
2861.158	960.45833
2863.321	974.45833
2865.483	993.79167
2867.644	991.125
2869.804	975.125
2871.962	987.79167
2874.118	983.79167
2876.274	979.79167
2878.428	972.45833
2880.58	970.125
2882.731	959.45833
2884.881	970.79167
2887.03	970.45833
2889.177	963.79167
2891.322	979.125
2893.467	984.125
2895.61	981.79167
2897.751	1012.125
2899.892	1007.125
2902.03	1028.125
2904.168	1022.45833
2906.304	1034.45833
2908.439	1044.79167
2910.572	1022.45833
2912.704	1046.79167
2914.835	1048.79167
2916.965	1039.45833
2919.093	1053.45833
2921.219	1007.79167
2923.345	1036.79167
2925.469	1005.45833
2927.591	1003.45833
2929.712	960.79167
2931.832	951.45833
2933.951	933.79167
2936.068	903.125
2938.184	887.45833
2940.299	848.45833
2942.412	835.125
2944.524	792.125
2946.634	777.125
2948.744	720.125
2950.851	729.45833
2952.958	684.125
2955.063	682.45833
2957.167	650.45833
2959.269	627.125
2961.371	633.79167
2963.471	598.45833
2965.569	591.79167
2967.666	561.125
2969.762	549.45833
2971.857	525.125
2973.95	518.45833
2976.042	510.45833
2978.133	491.79167
2980.222	483.125
2982.31	459.125
2984.396	439.79167
2986.482	440.45833
2988.566	446.45833
2990.648	421.45833
2992.73	423.79167
2994.81	414.79167
2996.889	418.45833
2998.966	404.79167
3001.042	410.79167
3003.117	392.79167
3005.191	401.125
3007.263	380.45833
3009.334	382.45833
3011.403	380.125
3013.472	363.125
3015.539	365.79167
3017.604	378.125
3019.669	340.79167
3021.732	343.79167
3023.794	348.45833
3025.854	330.45833
3027.914	329.79167
3029.971	346.45833
3032.028	326.125
3034.083	341.79167
3036.137	325.125
3038.19	309.125
3040.242	300.125
3042.292	298.125
3044.341	291.79167
3046.388	309.79167
3048.435	276.79167
3050.48	309.45833
3052.524	294.79167
3054.566	274.45833
3056.607	289.125
3058.647	276.125
3060.686	259.45833
3062.723	259.125
3064.759	252.45833
3066.794	0.125
3068.828	-1.20833
3070.86	-2.54167
