-0.839	341.04167
3.438	370.375
7.711	105.375
11.981	50.70833
16.247	45.70833
20.509	42.375
24.768	41.375
29.024	44.04167
33.276	43.70833
37.524	51.375
41.769	42.04167
46.01	41.04167
50.247	51.375
54.481	60.375
58.712	65.04167
62.939	48.375
67.162	58.04167
71.382	52.70833
75.599	47.04167
79.812	62.70833
84.021	80.70833
88.227	62.04167
92.429	62.375
96.628	51.375
100.823	69.70833
105.015	73.04167
109.204	74.70833
113.388	78.04167
117.57	70.04167
121.748	88.70833
125.922	79.375
130.093	99.04167
134.261	111.04167
138.425	103.375
142.585	136.70833
146.742	142.375
150.896	164.375
155.046	203.04167
159.193	331.70833
163.336	558.375
167.476	1015.70833
171.613	1886.04167
175.746	3149.70833
179.875	4643.375
184.002	6053.375
188.124	7025.70833
192.244	7352.04167
196.36	7259.04167
200.472	7031.375
204.581	6862.375
208.687	6689.375
212.79	6630.375
216.889	6657.70833
220.984	6752.04167
225.077	6783.70833
229.165	6843.04167
233.251	6897.04167
237.333	6916.70833
241.412	6887.04167
245.487	6844.70833
249.559	6772.375
253.628	6715.04167
257.694	6620.04167
261.756	6574.70833
265.814	6425.375
269.87	6290.04167
273.922	6150.04167
277.97	6117.70833
282.016	6139.70833
286.058	6159.375
290.097	6248.375
294.132	6305.70833
298.164	6183.70833
302.193	5883.375
306.219	5452.70833
310.241	4951.04167
314.26	4508.70833
318.276	4124.04167
322.288	3840.70833
326.297	3598.70833
330.303	3424.70833
334.305	3337.375
338.305	3242.04167
342.301	3177.375
346.294	3157.375
350.283	3081.04167
354.269	3073.04167
358.252	3039.70833
362.232	3027.375
366.209	3007.375
370.182	2960.04167
374.152	2922.04167
378.119	2944.375
382.083	2929.04167
386.043	2966.375
390	2882.375
393.954	2866.04167
397.905	2836.375
401.852	2815.375
405.797	2789.04167
409.738	2754.70833
413.676	2754.375
417.61	2729.375
421.542	2675.70833
425.47	2662.375
429.396	2629.04167
433.318	2621.375
437.236	2616.70833
441.152	2641.70833
445.065	2575.70833
448.974	2572.375
452.88	2556.375
456.783	2530.375
460.683	2518.70833
464.58	2530.70833
468.473	2528.70833
472.364	2537.70833
476.251	2537.375
480.135	2551.04167
484.016	2567.04167
487.894	2581.70833
491.769	2600.375
495.641	2597.04167
499.509	2592.04167
503.375	2610.04167
507.237	2576.04167
511.096	2568.70833
514.952	2580.70833
518.805	2591.375
522.655	2568.70833
526.502	2533.70833
530.346	2536.70833
534.187	2552.375
538.024	2566.04167
541.859	2565.70833
545.69	2587.70833
549.519	2561.375
553.344	2532.70833
557.166	2507.04167
560.985	2476.70833
564.802	2448.70833
568.615	2402.04167
572.425	2388.375
576.232	2373.375
580.036	2380.70833
583.836	2371.70833
587.634	2400.375
591.429	2387.04167
595.221	2431.375
599.01	2432.04167
602.796	2477.70833
606.578	2512.70833
610.358	2513.04167
614.135	2480.375
617.909	2498.375
621.679	2468.70833
625.447	2465.70833
629.212	2446.70833
632.973	2472.04167
636.732	2466.375
640.488	2463.375
644.241	2431.04167
647.991	2439.375
651.737	2429.04167
655.481	2392.375
659.222	2382.04167
662.96	2385.70833
666.695	2420.70833
670.427	2409.70833
674.156	2443.04167
677.882	2450.70833
681.605	2457.04167
685.325	2411.70833
689.043	2434.375
692.757	2428.70833
696.468	2414.70833
700.177	2441.04167
703.882	2430.375
707.585	2445.375
711.284	2437.04167
714.981	2471.375
718.675	2455.70833
722.366	2472.04167
726.054	2467.04167
729.739	2455.70833
733.421	2458.375
737.1	2437.375
740.777	2483.04167
744.45	2494.04167
748.121	2511.04167
751.789	2577.04167
755.453	2543.04167
759.115	2559.375
762.774	2580.375
766.431	2618.04167
770.084	2640.375
773.734	2666.04167
777.382	2728.04167
781.027	2785.375
784.669	2767.375
788.308	2768.375
791.944	2838.375
795.577	2844.70833
799.208	2869.04167
802.835	2875.04167
806.46	2882.04167
810.082	2889.70833
813.701	2902.375
817.317	2945.70833
820.931	2927.04167
824.542	2940.70833
828.149	2916.04167
831.754	2901.04167
835.357	2879.375
838.956	2890.04167
842.553	2872.70833
846.146	2897.375
849.737	2878.375
853.326	2897.70833
856.911	2909.04167
860.493	2965.70833
864.073	2995.375
867.65	3005.04167
871.225	3062.70833
874.796	3074.70833
878.365	3064.04167
881.931	3079.70833
885.494	3112.375
889.054	3112.04167
892.612	3128.70833
896.166	3081.375
899.719	3054.375
903.268	3016.375
906.814	2988.375
910.358	3001.375
913.899	2974.375
917.438	2986.70833
920.973	2967.04167
924.506	2999.375
928.036	3029.04167
931.564	3047.70833
935.088	3090.70833
938.61	3111.70833
942.129	3143.70833
945.646	3198.375
949.16	3253.375
952.671	3328.04167
956.179	3356.04167
959.685	3283.70833
963.188	3240.375
966.688	3192.04167
970.185	3130.375
973.68	3079.04167
977.173	3055.375
980.662	3050.70833
984.149	3078.70833
987.633	3088.70833
991.114	3142.70833
994.593	3243.04167
998.069	3337.04167
1001.542	3457.04167
1005.013	3361.70833
1008.481	3146.04167
1011.947	3107.04167
1015.409	3121.375
1018.869	3087.70833
1022.327	3099.70833
1025.782	3073.375
1029.234	3094.04167
1032.683	3035.375
1036.13	2930.70833
1039.574	2841.375
1043.016	2760.70833
1046.455	2705.375
1049.891	2689.375
1053.325	2669.04167
1056.756	2718.375
1060.184	2730.04167
1063.61	2705.375
1067.033	2745.375
1070.454	2729.70833
1073.872	2780.375
1077.287	2760.70833
1080.7	2775.04167
1084.11	2781.70833
1087.517	2768.70833
1090.922	2750.04167
1094.325	2719.70833
1097.724	2687.70833
1101.122	2693.04167
1104.516	2657.70833
1107.908	2686.70833
1111.298	2738.375
1114.684	2762.375
1118.069	2772.04167
1121.45	2813.70833
1124.83	2819.375
1128.206	2836.04167
1131.58	2899.375
1134.951	2955.70833
1138.32	3044.70833
1141.687	3151.70833
1145.05	3221.70833
1148.412	3272.375
1151.77	3268.375
1155.126	3229.70833
1158.48	3275.375
1161.831	3281.04167
1165.18	3329.70833
1168.525	3374.375
1171.869	3407.375
1175.21	3413.375
1178.548	3465.04167
1181.884	3509.375
1185.217	3536.04167
1188.548	3584.70833
1191.877	3620.04167
1195.202	3709.04167
1198.526	3732.70833
1201.846	3759.04167
1205.165	3755.04167
1208.48	3749.70833
1211.794	3736.375
1215.104	3732.04167
1218.413	3735.375
1221.719	3750.375
1225.022	3696.04167
1228.323	3667.70833
1231.621	3701.70833
1234.917	3670.04167
1238.21	3696.04167
1241.501	3701.04167
1244.79	3711.04167
1248.076	3707.375
1251.359	3742.04167
1254.64	3825.04167
1257.919	3836.70833
1261.195	3914.375
1264.468	3967.04167
1267.74	3999.70833
1271.008	3991.04167
1274.275	3981.375
1277.538	3938.04167
1280.8	3926.375
1284.059	3936.375
1287.315	3967.04167
1290.569	3968.70833
1293.821	4011.375
1297.07	4024.04167
1300.317	4046.70833
1303.562	4008.70833
1306.803	3976.375
1310.043	3924.375
1313.28	3864.375
1316.515	3800.70833
1319.747	3765.375
1322.977	3703.375
1326.204	3654.70833
1329.429	3612.04167
1332.652	3588.70833
1335.872	3562.375
1339.09	3524.70833
1342.306	3541.70833
1345.519	3545.04167
1348.729	3504.70833
1351.938	3491.04167
1355.144	3436.375
1358.347	3395.375
1361.548	3429.70833
1364.747	3454.375
1367.944	3398.375
1371.138	3424.04167
1374.329	3469.375
1377.518	3481.375
1380.705	3521.375
1383.89	3504.70833
1387.072	3386.70833
1390.252	3284.375
1393.429	3182.04167
1396.605	3115.375
1399.777	3030.375
1402.948	3014.70833
1406.116	2988.04167
1409.282	2981.04167
1412.445	2979.04167
1415.606	3031.04167
1418.765	3091.375
1421.921	3152.04167
1425.075	3237.04167
1428.227	3308.04167
1431.376	3468.04167
1434.524	3523.375
1437.668	3625.70833
1440.811	3635.70833
1443.951	3664.04167
1447.089	3659.04167
1450.224	3662.04167
1453.357	3632.375
1456.488	3637.375
1459.617	3567.70833
1462.743	3551.375
1465.867	3440.04167
1468.989	3414.375
1472.108	3342.375
1475.225	3291.375
1478.34	3266.375
1481.453	3274.375
1484.563	3274.04167
1487.671	3317.70833
1490.776	3385.375
1493.88	3464.04167
1496.981	3525.70833
1500.08	3625.70833
1503.176	3658.375
1506.271	3701.04167
1509.363	3743.70833
1512.452	3780.70833
1515.54	3873.70833
1518.625	3959.04167
1521.708	4103.04167
1524.789	4293.04167
1527.867	4504.70833
1530.944	4786.04167
1534.018	5066.04167
1537.089	5229.04167
1540.159	5288.375
1543.226	5145.70833
1546.291	5030.375
1549.354	4845.375
1552.415	4713.70833
1555.473	4536.04167
1558.529	4440.04167
1561.583	4375.70833
1564.634	4353.04167
1567.684	4335.375
1570.731	4312.70833
1573.776	4339.375
1576.819	4345.70833
1579.859	4381.04167
1582.898	4443.04167
1585.934	4426.04167
1588.968	4466.70833
1591.999	4412.04167
1595.029	4422.375
1598.056	4430.375
1601.081	4470.70833
1604.104	4418.375
1607.125	4401.70833
1610.144	4307.04167
1613.16	4176.04167
1616.174	4097.375
1619.186	3967.04167
1622.196	3819.375
1625.203	3766.375
1628.209	3663.04167
1631.212	3603.70833
1634.213	3562.70833
1637.212	3519.70833
1640.209	3445.70833
1643.203	3340.375
1646.196	3289.70833
1649.186	3178.375
1652.174	3084.70833
1655.16	2997.70833
1658.144	2894.70833
1661.125	2778.70833
1664.105	2658.375
1667.082	2580.375
1670.057	2413.375
1673.03	2282.04167
1676.001	2129.04167
1678.97	2014.70833
1681.937	1895.04167
1684.901	1835.70833
1687.863	1748.04167
1690.824	1672.70833
1693.782	1667.375
1696.738	1592.375
1699.692	1567.375
1702.643	1523.04167
1705.593	1514.375
1708.54	1496.375
1711.486	1493.375
1714.429	1462.375
1717.37	1436.04167
1720.309	1432.70833
1723.246	1420.70833
1726.181	1386.375
1729.113	1393.70833
1732.044	1382.04167
1734.972	1355.70833
1737.899	1349.375
1740.823	1348.375
1743.745	1344.70833
1746.665	1288.375
1749.583	1255.375
1752.499	1247.375
1755.413	1236.375
1758.325	1209.70833
1761.235	1212.375
1764.142	1180.70833
1767.048	1167.375
1769.951	1181.375
1772.852	1165.70833
1775.752	1147.04167
1778.649	1135.70833
1781.544	1144.70833
1784.437	1126.375
1787.328	1119.04167
1790.217	1114.375
1793.104	1093.375
1795.989	1087.70833
1798.872	1081.375
1801.753	1111.375
1804.631	1085.70833
1807.508	1100.04167
1810.383	1079.375
1813.255	1083.375
1816.126	1073.04167
1818.994	1076.04167
1821.861	1069.70833
1824.725	1053.04167
1827.587	1054.04167
1830.448	1041.04167
1833.306	1024.375
1836.162	1028.70833
1839.017	1036.70833
1841.869	1042.04167
1844.719	1044.70833
1847.567	1011.70833
1850.414	1001.375
1853.258	1015.375
1856.1	1019.375
1858.94	1038.04167
1861.778	1015.375
1864.614	995.04167
1867.448	1013.70833
1870.28	992.375
1873.111	1012.375
1875.939	1007.375
1878.765	1039.70833
1881.589	996.375
1884.411	1001.70833
1887.231	1000.375
1890.049	998.70833
1892.865	997.04167
1895.68	985.04167
1898.492	976.04167
1901.302	969.70833
1904.11	970.04167
1906.916	955.70833
1909.721	952.375
1912.523	976.70833
1915.323	955.375
1918.122	946.375
1920.918	944.375
1923.712	948.70833
1926.505	960.70833
1929.295	937.70833
1932.084	943.375
1934.87	936.04167
1937.655	933.70833
1940.438	912.04167
1943.218	932.375
1945.997	943.04167
1948.774	949.70833
1951.549	935.04167
1954.322	934.04167
1957.093	925.04167
1959.862	919.375
1962.629	922.04167
1965.394	911.04167
1968.157	891.04167
1970.918	912.70833
1973.678	907.70833
1976.435	916.04167
1979.19	898.04167
1981.944	893.70833
1984.696	880.70833
1987.445	889.04167
1990.193	884.04167
1992.939	897.375
1995.683	894.70833
1998.425	881.375
2001.165	900.70833
2003.903	875.375
2006.639	876.375
2009.374	875.70833
2012.106	884.375
2014.837	856.04167
2017.566	877.70833
2020.292	885.70833
2023.017	873.04167
2025.74	861.375
2028.461	863.375
2031.18	866.70833
2033.898	856.375
2036.613	863.04167
2039.327	861.375
2042.038	851.70833
2044.748	859.04167
2047.456	854.375
2050.162	840.70833
2052.866	833.375
2055.568	846.04167
2058.268	840.04167
2060.967	849.375
2063.663	825.375
2066.358	843.375
2069.051	819.375
2071.742	836.70833
2074.431	848.375
2077.118	843.375
2079.804	839.375
2082.487	849.70833
2085.169	857.04167
2087.849	869.04167
2090.527	858.04167
2093.203	858.04167
2095.877	866.04167
2098.55	875.04167
2101.22	897.70833
2103.889	905.375
2106.556	936.04167
2109.221	994.375
2111.884	1024.04167
2114.546	1135.375
2117.205	1232.04167
2119.863	1359.70833
2122.519	1487.04167
2125.173	1593.70833
2127.825	1667.375
2130.475	1675.04167
2133.124	1610.04167
2135.771	1520.375
2138.416	1461.04167
2141.059	1353.375
2143.7	1277.375
2146.339	1183.04167
2148.977	1108.375
2151.613	1088.04167
2154.247	1044.04167
2156.879	993.70833
2159.51	969.04167
2162.138	946.04167
2164.765	935.70833
2167.39	914.04167
2170.013	919.70833
2172.634	903.04167
2175.254	871.375
2177.872	909.375
2180.488	854.70833
2183.102	862.70833
2185.714	842.04167
2188.325	825.375
2190.934	821.70833
2193.541	812.70833
2196.146	806.70833
2198.75	799.04167
2201.351	788.04167
2203.951	777.04167
2206.549	780.70833
2209.146	766.70833
2211.74	756.04167
2214.333	776.70833
2216.924	741.04167
2219.514	756.04167
2222.101	729.04167
2224.687	743.375
2227.271	738.375
2229.853	719.70833
2232.433	711.70833
2235.012	724.70833
2237.589	725.04167
2240.164	720.70833
2242.738	706.04167
2245.309	705.375
2247.879	711.04167
2250.448	708.70833
2253.014	702.375
2255.579	676.04167
2258.142	683.375
2260.703	660.375
2263.262	658.70833
2265.82	663.375
2268.376	665.04167
2270.93	650.70833
2273.483	654.375
2276.033	657.70833
2278.583	638.04167
2281.13	642.70833
2283.675	621.04167
2286.219	639.70833
2288.761	637.70833
2291.302	647.375
2293.841	641.70833
2296.377	620.375
2298.913	623.375
2301.446	631.375
2303.978	621.04167
2306.508	614.70833
2309.037	628.375
2311.563	614.04167
2314.088	629.375
2316.612	601.375
2319.133	612.375
2321.653	605.70833
2324.171	601.04167
2326.688	605.04167
2329.202	598.70833
2331.715	593.04167
2334.227	597.375
2336.736	588.04167
2339.244	592.375
2341.751	583.375
2344.255	593.375
2346.758	586.375
2349.259	573.375
2351.759	576.70833
2354.257	576.375
2356.753	580.70833
2359.247	570.70833
2361.74	575.375
2364.231	569.375
2366.721	572.70833
2369.209	559.70833
2371.695	566.375
2374.179	569.375
2376.662	554.375
2379.143	580.04167
2381.622	567.70833
2384.1	575.04167
2386.576	551.375
2389.051	570.375
2391.524	569.70833
2393.995	559.04167
2396.464	555.375
2398.932	550.04167
2401.398	552.70833
2403.863	544.70833
2406.325	552.04167
2408.787	539.70833
2411.246	545.04167
2413.704	540.375
2416.16	539.375
2418.615	535.04167
2421.068	549.70833
2423.519	540.375
2425.969	537.04167
2428.417	545.375
2430.863	558.70833
2433.308	546.70833
2435.751	539.70833
2438.193	537.04167
2440.633	547.375
2443.071	537.04167
2445.508	519.70833
2447.943	526.70833
2450.376	517.375
2452.808	521.04167
2455.238	518.375
2457.667	559.375
2460.093	514.70833
2462.519	506.70833
2464.942	512.04167
2467.365	525.70833
2469.785	527.375
2472.204	515.375
2474.621	503.70833
2477.037	531.70833
2479.451	498.04167
2481.863	503.375
2484.274	491.04167
2486.683	504.70833
2489.091	513.70833
2491.497	514.375
2493.901	499.04167
2496.304	504.375
2498.705	503.70833
2501.105	490.70833
2503.503	526.04167
2505.899	493.375
2508.294	519.04167
2510.687	493.70833
2513.079	489.70833
2515.469	486.375
2517.858	488.70833
2520.245	510.04167
2522.63	480.70833
2525.014	478.375
2527.396	479.375
2529.776	478.04167
2532.156	482.04167
2534.533	470.70833
2536.909	477.04167
2539.283	467.04167
2541.656	469.04167
2544.027	496.04167
2546.397	483.375
2548.765	479.375
2551.131	475.70833
2553.496	474.70833
2555.86	476.04167
2558.221	472.375
2560.582	471.375
2562.94	464.375
2565.298	464.70833
2567.653	487.70833
2570.007	458.70833
2572.36	462.375
2574.711	462.70833
2577.06	479.70833
2579.408	470.70833
2581.754	465.04167
2584.099	466.70833
2586.442	458.70833
2588.784	456.375
2591.124	460.70833
2593.463	467.375
2595.8	464.70833
2598.135	434.70833
2600.469	459.375
2602.802	465.375
2605.133	470.04167
2607.462	454.04167
2609.79	454.375
2612.116	456.375
2614.441	455.70833
2616.764	469.375
2619.086	454.04167
2621.406	451.04167
2623.725	461.375
2626.042	457.70833
2628.358	444.375
2630.672	448.70833
2632.985	460.04167
2635.296	463.70833
2637.606	455.70833
2639.914	444.04167
2642.22	450.375
2644.525	457.70833
2646.829	458.04167
2649.131	471.70833
2651.432	472.04167
2653.731	454.375
2656.028	463.70833
2658.324	464.375
2660.619	463.70833
2662.912	467.70833
2665.204	454.375
2667.494	464.70833
2669.782	451.04167
2672.07	463.70833
2674.355	470.375
2676.639	462.04167
2678.922	456.70833
2681.203	470.70833
2683.483	443.70833
2685.761	455.04167
2688.038	460.70833
2690.313	477.04167
2692.587	465.375
2694.859	467.375
2697.13	464.70833
2699.399	471.375
2701.667	480.70833
2703.933	480.04167
2706.198	490.375
2708.461	486.375
2710.723	495.375
2712.984	499.70833
2715.243	492.04167
2717.5	492.70833
2719.757	496.375
2722.011	489.04167
2724.264	504.375
2726.516	515.375
2728.766	503.70833
2731.015	497.375
2733.262	505.04167
2735.508	490.04167
2737.753	496.375
2739.996	479.04167
2742.237	471.70833
2744.477	490.70833
2746.716	488.04167
2748.953	489.70833
2751.189	489.375
2753.423	473.04167
2755.656	481.04167
2757.887	470.04167
2760.117	470.70833
2762.346	470.04167
2764.573	474.04167
2766.798	472.375
2769.022	471.70833
2771.245	481.375
2773.467	464.375
2775.686	488.375
2777.905	486.04167
2780.122	493.375
2782.337	490.375
2784.552	495.04167
2786.764	511.70833
2788.976	509.375
2791.186	518.375
2793.394	525.375
2795.601	536.04167
2797.807	545.375
2800.011	558.04167
2802.214	562.375
2804.415	568.375
2806.615	579.70833
2808.814	587.375
2811.011	591.375
2813.206	582.70833
2815.401	609.375
2817.594	622.04167
2819.785	642.375
2821.975	626.375
2824.164	639.375
2826.351	652.70833
2828.537	672.375
2830.722	686.70833
2832.905	684.70833
2835.086	708.375
2837.267	742.70833
2839.445	768.70833
2841.623	781.70833
2843.799	823.70833
2845.974	862.375
2848.147	886.04167
2850.319	919.375
2852.489	930.375
2854.659	948.04167
2856.826	969.70833
2858.993	983.70833
2861.158	978.375
2863.321	973.04167
2865.483	999.70833
2867.644	988.70833
2869.804	984.70833
2871.962	990.375
2874.118	978.04167
2876.274	972.375
2878.428	960.04167
2880.58	969.375
2882.731	943.04167
2884.881	959.375
2887.03	956.04167
2889.177	954.70833
2891.322	967.375
2893.467	965.70833
2895.61	949.70833
2897.751	980.04167
2899.892	981.375
2902.03	973.70833
2904.168	972.04167
2906.304	975.04167
2908.439	1010.04167
2910.572	989.70833
2912.704	1005.70833
2914.835	992.375
2916.965	991.70833
2919.093	1001.375
2921.219	958.04167
2923.345	969.04167
2925.469	937.04167
2927.591	939.375
2929.712	909.70833
2931.832	900.70833
2933.951	873.04167
2936.068	853.70833
2938.184	823.375
2940.299	796.375
2942.412	785.375
2944.524	733.70833
2946.634	735.375
2948.744	665.70833
2950.851	694.04167
2952.958	638.70833
2955.063	631.04167
2957.167	624.04167
2959.269	596.04167
2961.371	608.04167
2963.471	556.375
2965.569	559.375
2967.666	531.375
2969.762	516.375
2971.857	509.375
2973.95	482.04167
2976.042	484.70833
2978.133	471.04167
2980.222	454.04167
2982.31	430.70833
2984.396	417.70833
2986.482	416.70833
2988.566	414.04167
2990.648	395.375
2992.73	400.70833
2994.81	386.04167
2996.889	388.04167
2998.966	379.70833
3001.042	397.375
3003.117	370.70833
3005.191	380.04167
3007.263	365.375
3009.334	362.375
3011.403	357.375
3013.472	338.375
3015.539	342.375
3017.604	359.70833
3019.669	320.70833
3021.732	321.375
3023.794	327.375
3025.854	308.70833
3027.914	302.04167
3029.971	317.375
3032.028	306.04167
3034.083	304.375
3036.137	298.375
3038.19	293.375
3040.242	284.70833
3042.292	277.70833
3044.341	279.375
3046.388	292.70833
3048.435	260.375
3050.48	274.70833
3052.524	271.04167
3054.566	247.04167
3056.607	266.04167
3058.647	255.375
3060.686	240.375
3062.723	235.375
3064.759	228.04167
3066.794	-0.29167
3068.828	-1.625
3070.86	-3.29167
