-0.839	401.375
3.438	421.70833
7.711	127.375
11.981	55.375
16.247	45.375
20.509	43.375
24.768	44.70833
29.024	49.70833
33.276	43.04167
37.524	52.04167
41.769	40.70833
46.01	37.04167
50.247	50.04167
54.481	62.375
58.712	67.70833
62.939	49.70833
67.162	62.70833
71.382	58.70833
75.599	51.04167
79.812	65.04167
84.021	83.70833
88.227	58.04167
92.429	64.70833
96.628	48.70833
100.823	66.70833
105.015	79.04167
109.204	77.70833
113.388	75.70833
117.57	73.70833
121.748	86.70833
125.922	82.04167
130.093	99.375
134.261	109.375
138.425	97.375
142.585	141.70833
146.742	139.375
150.896	172.04167
155.046	208.04167
159.193	324.04167
163.336	570.375
167.476	1030.375
171.613	1889.375
175.746	3130.375
179.875	4642.04167
184.002	6067.375
188.124	7011.04167
192.244	7298.375
196.36	7199.375
200.472	6943.70833
204.581	6720.70833
208.687	6520.04167
212.79	6370.70833
216.889	6344.70833
220.984	6385.70833
225.077	6368.70833
229.165	6389.70833
233.251	6373.375
237.333	6360.04167
241.412	6317.70833
245.487	6262.04167
249.559	6183.375
253.628	6135.70833
257.694	6114.04167
261.756	6040.375
265.814	5943.04167
269.87	5774.375
273.922	5633.04167
277.97	5557.04167
282.016	5538.375
286.058	5526.04167
290.097	5658.04167
294.132	5721.04167
298.164	5641.70833
302.193	5378.04167
306.219	4989.70833
310.241	4559.375
314.26	4168.04167
318.276	3825.375
322.288	3594.04167
326.297	3423.375
330.303	3270.375
334.305	3172.04167
338.305	3097.375
342.301	3053.70833
346.294	3043.375
350.283	3007.375
354.269	2955.375
358.252	2943.375
362.232	2901.375
366.209	2864.70833
370.182	2846.70833
374.152	2825.375
378.119	2806.04167
382.083	2784.375
386.043	2818.70833
390	2736.375
393.954	2743.375
397.905	2710.04167
401.852	2736.04167
405.797	2685.375
409.738	2665.70833
413.676	2659.375
417.61	2654.375
421.542	2629.70833
425.47	2630.70833
429.396	2594.375
433.318	2567.375
437.236	2564.04167
441.152	2568.375
445.065	2511.375
448.974	2511.375
452.88	2496.375
456.783	2467.375
460.683	2465.70833
464.58	2467.70833
468.473	2453.70833
472.364	2480.375
476.251	2492.375
480.135	2515.375
484.016	2531.375
487.894	2521.04167
491.769	2547.375
495.641	2543.04167
499.509	2557.04167
503.375	2549.70833
507.237	2574.04167
511.096	2571.70833
514.952	2687.04167
518.805	2804.375
522.655	2858.04167
526.502	2644.375
530.346	2570.70833
534.187	2565.04167
538.024	2564.375
541.859	2558.70833
545.69	2586.70833
549.519	2548.70833
553.344	2552.375
557.166	2501.70833
560.985	2454.04167
564.802	2463.375
568.615	2414.70833
572.425	2375.04167
576.232	2366.04167
580.036	2357.375
583.836	2365.375
587.634	2349.04167
591.429	2359.70833
595.221	2398.04167
599.01	2421.375
602.796	2460.04167
606.578	2468.70833
610.358	2479.04167
614.135	2460.70833
617.909	2449.70833
621.679	2448.04167
625.447	2434.375
629.212	2417.70833
632.973	2426.375
636.732	2429.70833
640.488	2431.375
644.241	2397.375
647.991	2400.04167
651.737	2426.04167
655.481	2389.04167
659.222	2407.04167
662.96	2381.375
666.695	2401.04167
670.427	2457.04167
674.156	2434.04167
677.882	2431.70833
681.605	2414.375
685.325	2399.375
689.043	2412.04167
692.757	2367.375
696.468	2376.04167
700.177	2385.04167
703.882	2378.375
707.585	2375.375
711.284	2379.375
714.981	2380.04167
718.675	2390.375
722.366	2403.70833
726.054	2381.70833
729.739	2396.70833
733.421	2409.70833
737.1	2406.04167
740.777	2425.375
744.45	2428.04167
748.121	2448.04167
751.789	2491.70833
755.453	2483.70833
759.115	2497.04167
762.774	2519.04167
766.431	2544.04167
770.084	2579.04167
773.734	2604.70833
777.382	2647.375
781.027	2669.375
784.669	2679.70833
788.308	2694.375
791.944	2720.04167
795.577	2746.375
799.208	2770.04167
802.835	2769.70833
806.46	2801.04167
810.082	2818.70833
813.701	2813.04167
817.317	2874.375
820.931	2855.70833
824.542	2865.04167
828.149	2851.70833
831.754	2799.375
835.357	2812.70833
838.956	2819.04167
842.553	2811.70833
846.146	2787.70833
849.737	2797.04167
853.326	2789.375
856.911	2807.70833
860.493	2861.70833
864.073	2864.70833
867.65	2925.04167
871.225	2952.375
874.796	2956.04167
878.365	2965.375
881.931	2976.375
885.494	3008.70833
889.054	2994.375
892.612	3020.04167
896.166	2978.70833
899.719	2945.70833
903.268	2917.04167
906.814	2902.375
910.358	2864.04167
913.899	2898.70833
917.438	2896.70833
920.973	2857.04167
924.506	2912.375
928.036	2936.04167
931.564	2975.375
935.088	3011.375
938.61	3006.04167
942.129	3065.375
945.646	3129.04167
949.16	3196.70833
952.671	3262.375
956.179	3294.70833
959.685	3233.375
963.188	3202.04167
966.688	3147.70833
970.185	3071.375
973.68	3004.70833
977.173	2970.70833
980.662	2940.70833
984.149	2940.70833
987.633	2924.04167
991.114	2993.04167
994.593	3068.375
998.069	3161.375
1001.542	3274.04167
1005.013	3229.375
1008.481	3034.375
1011.947	2975.70833
1015.409	2953.04167
1018.869	2989.375
1022.327	2970.70833
1025.782	2934.70833
1029.234	2955.04167
1032.683	2890.70833
1036.13	2788.04167
1039.574	2684.375
1043.016	2637.375
1046.455	2569.70833
1049.891	2552.375
1053.325	2574.375
1056.756	2580.04167
1060.184	2600.375
1063.61	2623.375
1067.033	2626.04167
1070.454	2626.70833
1073.872	2680.375
1077.287	2671.70833
1080.7	2672.375
1084.11	2693.375
1087.517	2636.375
1090.922	2633.70833
1094.325	2595.70833
1097.724	2572.375
1101.122	2554.04167
1104.516	2560.375
1107.908	2583.70833
1111.298	2627.375
1114.684	2677.70833
1118.069	2695.04167
1121.45	2744.375
1124.83	2738.375
1128.206	2789.70833
1131.58	2855.70833
1134.951	2943.375
1138.32	3056.375
1141.687	3188.375
1145.05	3266.70833
1148.412	3286.04167
1151.77	3278.70833
1155.126	3261.70833
1158.48	3266.70833
1161.831	3289.375
1165.18	3321.375
1168.525	3341.375
1171.869	3388.375
1175.21	3400.70833
1178.548	3392.04167
1181.884	3453.04167
1185.217	3420.70833
1188.548	3473.04167
1191.877	3547.375
1195.202	3598.04167
1198.526	3661.70833
1201.846	3710.375
1205.165	3695.04167
1208.48	3684.375
1211.794	3670.04167
1215.104	3680.70833
1218.413	3677.375
1221.719	3669.70833
1225.022	3602.04167
1228.323	3573.375
1231.621	3546.04167
1234.917	3535.375
1238.21	3551.04167
1241.501	3555.375
1244.79	3535.04167
1248.076	3536.375
1251.359	3587.375
1254.64	3639.70833
1257.919	3671.70833
1261.195	3775.04167
1264.468	3820.04167
1267.74	3882.04167
1271.008	3915.04167
1274.275	3881.70833
1277.538	3838.375
1280.8	3812.375
1284.059	3838.04167
1287.315	3878.04167
1290.569	3893.04167
1293.821	3902.04167
1297.07	3903.70833
1300.317	3918.375
1303.562	3884.70833
1306.803	3878.70833
1310.043	3853.04167
1313.28	3768.04167
1316.515	3747.375
1319.747	3709.70833
1322.977	3653.04167
1326.204	3637.04167
1329.429	3570.70833
1332.652	3556.04167
1335.872	3538.04167
1339.09	3514.375
1342.306	3512.375
1345.519	3488.04167
1348.729	3441.375
1351.938	3417.70833
1355.144	3360.70833
1358.347	3337.04167
1361.548	3329.375
1364.747	3316.375
1367.944	3316.70833
1371.138	3355.375
1374.329	3387.70833
1377.518	3430.04167
1380.705	3433.70833
1383.89	3426.70833
1387.072	3292.04167
1390.252	3206.375
1393.429	3071.04167
1396.605	2956.375
1399.777	2896.70833
1402.948	2875.70833
1406.116	2834.04167
1409.282	2855.70833
1412.445	2844.04167
1415.606	2883.375
1418.765	2939.70833
1421.921	2999.375
1425.075	3064.70833
1428.227	3163.70833
1431.376	3317.04167
1434.524	3426.04167
1437.668	3495.70833
1440.811	3547.70833
1443.951	3560.04167
1447.089	3576.04167
1450.224	3559.70833
1453.357	3548.375
1456.488	3528.70833
1459.617	3469.375
1462.743	3444.70833
1465.867	3380.375
1468.989	3346.70833
1472.108	3313.375
1475.225	3276.375
1478.34	3251.70833
1481.453	3230.04167
1484.563	3266.375
1487.671	3319.375
1490.776	3403.375
1493.88	3446.375
1496.981	3510.04167
1500.08	3597.04167
1503.176	3629.70833
1506.271	3697.70833
1509.363	3730.70833
1512.452	3779.375
1515.54	3805.70833
1518.625	3882.04167
1521.708	3975.04167
1524.789	4133.70833
1527.867	4324.375
1530.944	4543.70833
1534.018	4759.04167
1537.089	4926.70833
1540.159	4944.70833
1543.226	4870.04167
1546.291	4778.04167
1549.354	4643.70833
1552.415	4507.70833
1555.473	4440.375
1558.529	4360.04167
1561.583	4303.375
1564.634	4283.04167
1567.684	4299.04167
1570.731	4282.70833
1573.776	4353.70833
1576.819	4395.375
1579.859	4413.375
1582.898	4505.375
1585.934	4509.70833
1588.968	4486.04167
1591.999	4474.70833
1595.029	4464.04167
1598.056	4462.04167
1601.081	4469.70833
1604.104	4425.375
1607.125	4393.375
1610.144	4293.70833
1613.16	4203.375
1616.174	4074.04167
1619.186	4007.375
1622.196	3854.04167
1625.203	3776.70833
1628.209	3684.375
1631.212	3633.375
1634.213	3627.04167
1637.212	3549.375
1640.209	3498.375
1643.203	3368.375
1646.196	3273.375
1649.186	3122.70833
1652.174	3049.70833
1655.16	2942.375
1658.144	2837.70833
1661.125	2695.04167
1664.105	2575.04167
1667.082	2460.70833
1670.057	2333.375
1673.03	2179.04167
1676.001	2048.70833
1678.97	1931.70833
1681.937	1848.70833
1684.901	1741.375
1687.863	1683.04167
1690.824	1627.70833
1693.782	1609.04167
1696.738	1543.375
1699.692	1503.04167
1702.643	1481.375
1705.593	1448.04167
1708.54	1447.04167
1711.486	1438.375
1714.429	1403.375
1717.37	1408.375
1720.309	1362.04167
1723.246	1381.375
1726.181	1334.70833
1729.113	1356.70833
1732.044	1325.04167
1734.972	1322.70833
1737.899	1312.70833
1740.823	1299.375
1743.745	1326.375
1746.665	1255.04167
1749.583	1237.375
1752.499	1232.70833
1755.413	1215.375
1758.325	1180.04167
1761.235	1185.70833
1764.142	1156.70833
1767.048	1143.375
1769.951	1154.375
1772.852	1149.375
1775.752	1133.375
1778.649	1125.04167
1781.544	1131.70833
1784.437	1109.375
1787.328	1109.375
1790.217	1103.04167
1793.104	1085.70833
1795.989	1075.70833
1798.872	1057.375
1801.753	1086.70833
1804.631	1081.375
1807.508	1090.70833
1810.383	1075.375
1813.255	1078.04167
1816.126	1077.375
1818.994	1059.70833
1821.861	1059.04167
1824.725	1046.375
1827.587	1055.70833
1830.448	1064.04167
1833.306	1029.375
1836.162	1047.375
1839.017	1032.70833
1841.869	1024.375
1844.719	1018.375
1847.567	1019.70833
1850.414	1001.70833
1853.258	1012.375
1856.1	1015.04167
1858.94	1031.04167
1861.778	1010.70833
1864.614	1015.375
1867.448	1012.04167
1870.28	998.04167
1873.111	1015.70833
1875.939	1007.375
1878.765	1026.375
1881.589	999.375
1884.411	1002.375
1887.231	1006.04167
1890.049	998.375
1892.865	1003.04167
1895.68	984.70833
1898.492	997.375
1901.302	979.70833
1904.11	960.04167
1906.916	973.04167
1909.721	972.70833
1912.523	974.70833
1915.323	947.70833
1918.122	952.70833
1920.918	958.04167
1923.712	940.04167
1926.505	972.375
1929.295	952.04167
1932.084	952.375
1934.87	961.04167
1937.655	939.04167
1940.438	932.04167
1943.218	950.375
1945.997	953.04167
1948.774	968.375
1951.549	960.04167
1954.322	961.70833
1957.093	934.70833
1959.862	938.375
1962.629	934.70833
1965.394	942.04167
1968.157	928.70833
1970.918	938.70833
1973.678	924.04167
1976.435	936.70833
1979.19	916.04167
1981.944	912.04167
1984.696	916.70833
1987.445	898.04167
1990.193	909.375
1992.939	922.04167
1995.683	898.70833
1998.425	880.04167
2001.165	934.375
2003.903	907.04167
2006.639	905.375
2009.374	909.04167
2012.106	913.70833
2014.837	885.04167
2017.566	906.70833
2020.292	892.375
2023.017	912.04167
2025.74	892.04167
2028.461	910.04167
2031.18	898.70833
2033.898	885.04167
2036.613	902.70833
2039.327	904.375
2042.038	870.04167
2044.748	879.70833
2047.456	884.375
2050.162	872.375
2052.866	886.04167
2055.568	876.04167
2058.268	875.04167
2060.967	881.70833
2063.663	867.375
2066.358	870.375
2069.051	861.04167
2071.742	863.375
2074.431	874.375
2077.118	865.375
2079.804	860.70833
2082.487	856.375
2085.169	875.70833
2087.849	902.70833
2090.527	860.70833
2093.203	892.70833
2095.877	885.04167
2098.55	896.375
2101.22	905.375
2103.889	905.04167
2106.556	914.04167
2109.221	941.70833
2111.884	962.04167
2114.546	1040.04167
2117.205	1083.04167
2119.863	1157.70833
2122.519	1216.70833
2125.173	1268.04167
2127.825	1351.04167
2130.475	1358.70833
2133.124	1303.04167
2135.771	1251.70833
2138.416	1236.70833
2141.059	1149.375
2143.7	1111.375
2146.339	1053.375
2148.977	1001.04167
2151.613	1006.04167
2154.247	962.70833
2156.879	965.04167
2159.51	925.04167
2162.138	923.375
2164.765	920.375
2167.39	906.375
2170.013	921.04167
2172.634	900.375
2175.254	891.04167
2177.872	919.70833
2180.488	880.375
2183.102	891.70833
2185.714	874.70833
2188.325	846.375
2190.934	861.04167
2193.541	856.70833
2196.146	848.375
2198.75	841.04167
2201.351	834.70833
2203.951	804.375
2206.549	837.70833
2209.146	830.04167
2211.74	837.70833
2214.333	844.04167
2216.924	805.04167
2219.514	811.70833
2222.101	809.375
2224.687	822.375
2227.271	803.375
2229.853	792.375
2232.433	789.375
2235.012	807.04167
2237.589	807.04167
2240.164	805.375
2242.738	799.70833
2245.309	792.04167
2247.879	792.70833
2250.448	813.375
2253.014	770.04167
2255.579	750.70833
2258.142	763.375
2260.703	745.04167
2263.262	757.70833
2265.82	746.375
2268.376	761.04167
2270.93	758.70833
2273.483	744.04167
2276.033	761.70833
2278.583	741.70833
2281.13	735.375
2283.675	738.04167
2286.219	738.375
2288.761	745.375
2291.302	750.70833
2293.841	743.375
2296.377	722.04167
2298.913	737.375
2301.446	740.375
2303.978	727.04167
2306.508	726.70833
2309.037	734.375
2311.563	717.04167
2314.088	739.70833
2316.612	720.70833
2319.133	732.375
2321.653	716.375
2324.171	722.375
2326.688	722.375
2329.202	719.04167
2331.715	726.04167
2334.227	731.04167
2336.736	708.04167
2339.244	706.70833
2341.751	697.04167
2344.255	719.04167
2346.758	729.70833
2349.259	711.04167
2351.759	698.04167
2354.257	708.70833
2356.753	704.04167
2359.247	712.04167
2361.74	717.04167
2364.231	717.375
2366.721	719.04167
2369.209	704.04167
2371.695	717.70833
2374.179	711.04167
2376.662	693.70833
2379.143	723.375
2381.622	707.375
2384.1	715.70833
2386.576	706.375
2389.051	723.70833
2391.524	725.04167
2393.995	725.04167
2396.464	714.375
2398.932	704.375
2401.398	716.375
2403.863	705.70833
2406.325	713.375
2408.787	704.70833
2411.246	711.04167
2413.704	713.70833
2416.16	709.04167
2418.615	715.04167
2421.068	719.375
2423.519	721.04167
2425.969	700.375
2428.417	730.70833
2430.863	729.04167
2433.308	720.70833
2435.751	723.04167
2438.193	712.375
2440.633	723.70833
2443.071	720.04167
2445.508	701.70833
2447.943	701.375
2450.376	710.70833
2452.808	721.375
2455.238	710.375
2457.667	738.375
2460.093	713.375
2462.519	699.04167
2464.942	701.375
2467.365	712.70833
2469.785	716.70833
2472.204	714.375
2474.621	704.70833
2477.037	731.70833
2479.451	701.70833
2481.863	704.04167
2484.274	700.04167
2486.683	717.04167
2489.091	728.375
2491.497	716.04167
2493.901	714.375
2496.304	718.04167
2498.705	724.375
2501.105	725.04167
2503.503	748.04167
2505.899	701.70833
2508.294	732.70833
2510.687	708.04167
2513.079	712.70833
2515.469	709.04167
2517.858	697.04167
2520.245	733.04167
2522.63	713.70833
2525.014	717.70833
2527.396	714.04167
2529.776	710.04167
2532.156	718.70833
2534.533	704.04167
2536.909	724.04167
2539.283	716.375
2541.656	714.04167
2544.027	743.375
2546.397	719.70833
2548.765	720.04167
2551.131	725.70833
2553.496	717.70833
2555.86	727.04167
2558.221	741.04167
2560.582	736.70833
2562.94	710.04167
2565.298	722.375
2567.653	757.375
2570.007	719.04167
2572.36	734.04167
2574.711	726.04167
2577.06	751.04167
2579.408	730.70833
2581.754	728.04167
2584.099	738.70833
2586.442	740.04167
2588.784	730.04167
2591.124	744.70833
2593.463	732.70833
2595.8	733.375
2598.135	729.70833
2600.469	725.375
2602.802	753.375
2605.133	754.375
2607.462	728.70833
2609.79	735.375
2612.116	744.04167
2614.441	746.70833
2616.764	743.375
2619.086	757.04167
2621.406	749.04167
2623.725	764.70833
2626.042	767.04167
2628.358	762.04167
2630.672	758.04167
2632.985	774.04167
2635.296	766.70833
2637.606	770.70833
2639.914	755.04167
2642.22	779.375
2644.525	773.70833
2646.829	778.70833
2649.131	799.70833
2651.432	780.04167
2653.731	777.375
2656.028	798.04167
2658.324	791.375
2660.619	787.70833
2662.912	795.375
2665.204	788.375
2667.494	798.70833
2669.782	790.04167
2672.07	797.70833
2674.355	807.04167
2676.639	801.04167
2678.922	801.70833
2681.203	803.70833
2683.483	784.375
2685.761	799.04167
2688.038	810.04167
2690.313	826.04167
2692.587	826.375
2694.859	809.04167
2697.13	813.70833
2699.399	818.375
2701.667	831.04167
2703.933	826.375
2706.198	836.04167
2708.461	858.04167
2710.723	843.375
2712.984	850.04167
2715.243	860.04167
2717.5	859.04167
2719.757	873.70833
2722.011	869.70833
2724.264	870.375
2726.516	891.375
2728.766	883.04167
2731.015	887.70833
2733.262	886.70833
2735.508	885.375
2737.753	881.375
2739.996	883.04167
2742.237	873.375
2744.477	885.375
2746.716	874.375
2748.953	864.375
2751.189	882.70833
2753.423	868.04167
2755.656	867.70833
2757.887	861.70833
2760.117	858.04167
2762.346	848.375
2764.573	864.04167
2766.798	854.70833
2769.022	871.04167
2771.245	872.04167
2773.467	872.375
2775.686	881.375
2777.905	873.70833
2780.122	887.375
2782.337	909.04167
2784.552	886.04167
2786.764	906.70833
2788.976	911.04167
2791.186	926.70833
2793.394	933.70833
2795.601	931.04167
2797.807	949.375
2800.011	956.375
2802.214	972.04167
2804.415	975.70833
2806.615	980.70833
2808.814	999.04167
2811.011	989.04167
2813.206	990.70833
2815.401	1012.375
2817.594	1010.04167
2819.785	1029.04167
2821.975	1025.04167
2824.164	1031.04167
2826.351	1067.375
2828.537	1080.04167
2830.722	1095.70833
2832.905	1106.375
2835.086	1134.70833
2837.267	1173.70833
2839.445	1193.04167
2841.623	1217.375
2843.799	1252.375
2845.974	1284.04167
2848.147	1324.375
2850.319	1352.70833
2852.489	1389.375
2854.659	1390.375
2856.826	1426.375
2858.993	1432.04167
2861.158	1429.04167
2863.321	1437.04167
2865.483	1457.70833
2867.644	1451.70833
2869.804	1444.375
2871.962	1428.70833
2874.118	1439.375
2876.274	1446.70833
2878.428	1414.70833
2880.58	1432.04167
2882.731	1409.70833
2884.881	1410.70833
2887.03	1415.375
2889.177	1401.375
2891.322	1438.375
2893.467	1421.375
2895.61	1435.375
2897.751	1446.375
2899.892	1435.375
2902.03	1458.04167
2904.168	1462.375
2906.304	1458.70833
2908.439	1491.70833
2910.572	1464.70833
2912.704	1490.04167
2914.835	1505.70833
2916.965	1508.70833
2919.093	1509.375
2921.219	1475.375
2923.345	1493.04167
2925.469	1459.04167
2927.591	1448.375
2929.712	1407.04167
2931.832	1409.70833
2933.951	1398.375
2936.068	1362.04167
2938.184	1346.70833
2940.299	1313.375
2942.412	1285.70833
2944.524	1253.375
2946.634	1241.375
2948.744	1181.70833
2950.851	1222.375
2952.958	1176.70833
2955.063	1153.04167
2957.167	1142.04167
2959.269	1127.375
2961.371	1134.70833
2963.471	1096.70833
2965.569	1106.375
2967.666	1069.04167
2969.762	1059.04167
2971.857	1021.375
2973.95	1019.04167
2976.042	1021.04167
2978.133	1003.375
2980.222	979.70833
2982.31	966.375
2984.396	943.70833
2986.482	938.04167
2988.566	942.70833
2990.648	919.04167
2992.73	919.375
2994.81	903.04167
2996.889	915.375
2998.966	910.70833
3001.042	908.70833
3003.117	907.04167
3005.191	915.375
3007.263	895.375
3009.334	890.04167
3011.403	884.04167
3013.472	870.70833
3015.539	863.70833
3017.604	860.04167
3019.669	835.375
3021.732	833.04167
3023.794	844.375
3025.854	813.04167
3027.914	820.375
3029.971	846.04167
3032.028	818.375
3034.083	818.375
3036.137	816.375
3038.19	781.375
3040.242	768.375
3042.292	757.04167
3044.341	747.04167
3046.388	770.70833
3048.435	724.375
3050.48	740.70833
3052.524	727.375
3054.566	717.375
3056.607	724.04167
3058.647	704.70833
3060.686	680.70833
3062.723	668.375
3064.759	642.70833
3066.794	0.375
3068.828	0.04167
3070.86	-3.625
