-0.839	392.5
3.438	428.83333
7.711	116.5
11.981	51.16667
16.247	44.83333
20.509	43.5
24.768	42.16667
29.024	50.16667
33.276	38.83333
37.524	49.16667
41.769	42.16667
46.01	36.83333
50.247	54.5
54.481	55.83333
58.712	65.5
62.939	50.5
67.162	62.83333
71.382	58.83333
75.599	45.83333
79.812	64.83333
84.021	81.83333
88.227	64.5
92.429	62.5
96.628	51.16667
100.823	70.5
105.015	78.16667
109.204	80.83333
113.388	81.5
117.57	74.5
121.748	87.83333
125.922	84.16667
130.093	103.16667
134.261	106.5
138.425	102.16667
142.585	143.83333
146.742	138.5
150.896	168.5
155.046	211.16667
159.193	334.83333
163.336	565.16667
167.476	1026.83333
171.613	1918.5
175.746	3223.16667
179.875	4773.83333
184.002	6214.5
188.124	7211.5
192.244	7510.16667
196.36	7411.83333
200.472	7194.16667
204.581	6932.83333
208.687	6729.5
212.79	6603.83333
216.889	6592.83333
220.984	6582.83333
225.077	6598.83333
229.165	6634.83333
233.251	6627.83333
237.333	6596.16667
241.412	6531.83333
245.487	6514.5
249.559	6437.83333
253.628	6370.5
257.694	6352.16667
261.756	6308.16667
265.814	6153.16667
269.87	6031.5
273.922	5900.83333
277.97	5826.16667
282.016	5777.16667
286.058	5797.83333
290.097	5867.16667
294.132	5918.5
298.164	5870.5
302.193	5599.5
306.219	5235.16667
310.241	4760.83333
314.26	4395.16667
318.276	4047.83333
322.288	3815.16667
326.297	3613.16667
330.303	3467.16667
334.305	3385.5
338.305	3310.16667
342.301	3254.5
346.294	3240.83333
350.283	3174.16667
354.269	3180.5
358.252	3135.16667
362.232	3119.5
366.209	3088.5
370.182	3039.16667
374.152	3035.83333
378.119	3025.16667
382.083	3020.5
386.043	3034.5
390	2993.5
393.954	2980.16667
397.905	2957.16667
401.852	2958.16667
405.797	2934.5
409.738	2914.5
413.676	2908.16667
417.61	2905.5
421.542	2874.5
425.47	2840.5
429.396	2834.16667
433.318	2826.83333
437.236	2797.5
441.152	2800.16667
445.065	2748.5
448.974	2765.83333
452.88	2745.83333
456.783	2709.16667
460.683	2693.16667
464.58	2709.16667
468.473	2701.83333
472.364	2711.5
476.251	2716.16667
480.135	2744.16667
484.016	2759.16667
487.894	2785.83333
491.769	2797.16667
495.641	2797.83333
499.509	2801.16667
503.375	2799.83333
507.237	2813.5
511.096	2811.16667
514.952	2921.83333
518.805	3036.83333
522.655	3061.16667
526.502	2905.16667
530.346	2825.83333
534.187	2773.83333
538.024	2774.16667
541.859	2767.16667
545.69	2809.16667
549.519	2819.16667
553.344	2767.83333
557.166	2720.83333
560.985	2698.83333
564.802	2664.5
568.615	2643.5
572.425	2606.5
576.232	2586.16667
580.036	2571.16667
583.836	2595.5
587.634	2577.5
591.429	2572.83333
595.221	2626.5
599.01	2661.5
602.796	2692.83333
606.578	2714.83333
610.358	2704.83333
614.135	2698.16667
617.909	2692.16667
621.679	2680.16667
625.447	2658.16667
629.212	2644.5
632.973	2664.16667
636.732	2653.16667
640.488	2634.5
644.241	2622.83333
647.991	2626.16667
651.737	2644.16667
655.481	2627.16667
659.222	2618.16667
662.96	2618.83333
666.695	2637.83333
670.427	2638.83333
674.156	2664.5
677.882	2669.83333
681.605	2636.16667
685.325	2601.83333
689.043	2616.83333
692.757	2621.83333
696.468	2580.83333
700.177	2595.83333
703.882	2584.16667
707.585	2604.16667
711.284	2608.16667
714.981	2611.5
718.675	2616.5
722.366	2610.16667
726.054	2601.5
729.739	2611.83333
733.421	2604.5
737.1	2607.5
740.777	2649.83333
744.45	2657.16667
748.121	2670.83333
751.789	2712.16667
755.453	2712.83333
759.115	2738.5
762.774	2736.5
766.431	2757.83333
770.084	2804.83333
773.734	2813.83333
777.382	2852.16667
781.027	2861.5
784.669	2891.5
788.308	2883.5
791.944	2921.16667
795.577	2941.83333
799.208	2973.83333
802.835	2997.5
806.46	3019.5
810.082	3039.5
813.701	3044.16667
817.317	3093.83333
820.931	3064.16667
824.542	3064.83333
828.149	3036.5
831.754	3006.5
835.357	3006.16667
838.956	2996.16667
842.553	2967.16667
846.146	2950.16667
849.737	2948.5
853.326	2932.83333
856.911	2964.16667
860.493	3018.5
864.073	3055.16667
867.65	3060.5
871.225	3139.83333
874.796	3107.83333
878.365	3111.83333
881.931	3131.16667
885.494	3181.5
889.054	3169.16667
892.612	3160.5
896.166	3108.16667
899.719	3084.83333
903.268	3078.16667
906.814	3075.16667
910.358	3040.16667
913.899	3035.16667
917.438	3046.16667
920.973	3044.83333
924.506	3052.5
928.036	3093.83333
931.564	3149.5
935.088	3177.83333
938.61	3179.5
942.129	3210.16667
945.646	3299.5
949.16	3380.5
952.671	3414.83333
956.179	3452.16667
959.685	3438.16667
963.188	3395.16667
966.688	3348.16667
970.185	3253.16667
973.68	3191.16667
977.173	3153.16667
980.662	3105.83333
984.149	3121.83333
987.633	3109.83333
991.114	3157.83333
994.593	3254.83333
998.069	3373.5
1001.542	3464.5
1005.013	3383.83333
1008.481	3196.16667
1011.947	3171.83333
1015.409	3107.5
1018.869	3177.5
1022.327	3119.16667
1025.782	3120.5
1029.234	3121.83333
1032.683	3086.83333
1036.13	2959.5
1039.574	2862.5
1043.016	2770.16667
1046.455	2737.5
1049.891	2702.16667
1053.325	2721.83333
1056.756	2729.5
1060.184	2751.16667
1063.61	2786.16667
1067.033	2786.5
1070.454	2789.83333
1073.872	2833.83333
1077.287	2833.83333
1080.7	2884.16667
1084.11	2840.16667
1087.517	2816.16667
1090.922	2797.16667
1094.325	2747.83333
1097.724	2724.83333
1101.122	2723.5
1104.516	2731.16667
1107.908	2717.16667
1111.298	2773.16667
1114.684	2809.16667
1118.069	2845.16667
1121.45	2874.83333
1124.83	2869.5
1128.206	2906.83333
1131.58	2971.83333
1134.951	3072.16667
1138.32	3165.83333
1141.687	3275.16667
1145.05	3371.16667
1148.412	3397.16667
1151.77	3385.83333
1155.126	3350.83333
1158.48	3411.16667
1161.831	3377.16667
1165.18	3422.5
1168.525	3447.16667
1171.869	3515.83333
1175.21	3504.16667
1178.548	3527.16667
1181.884	3533.83333
1185.217	3568.16667
1188.548	3617.16667
1191.877	3648.83333
1195.202	3756.83333
1198.526	3786.5
1201.846	3800.5
1205.165	3785.16667
1208.48	3796.16667
1211.794	3798.5
1215.104	3793.5
1218.413	3812.83333
1221.719	3793.16667
1225.022	3752.5
1228.323	3681.16667
1231.621	3679.5
1234.917	3658.5
1238.21	3701.83333
1241.501	3687.5
1244.79	3670.83333
1248.076	3660.16667
1251.359	3716.5
1254.64	3783.83333
1257.919	3827.5
1261.195	3861.5
1264.468	3970.16667
1267.74	4031.83333
1271.008	4025.16667
1274.275	3996.5
1277.538	3932.83333
1280.8	3961.83333
1284.059	3945.83333
1287.315	3999.5
1290.569	4008.5
1293.821	4020.16667
1297.07	4046.83333
1300.317	4054.5
1303.562	3992.83333
1306.803	3981.5
1310.043	3936.83333
1313.28	3914.16667
1316.515	3883.83333
1319.747	3842.16667
1322.977	3816.5
1326.204	3762.16667
1329.429	3727.83333
1332.652	3696.16667
1335.872	3699.83333
1339.09	3674.5
1342.306	3655.83333
1345.519	3626.5
1348.729	3587.5
1351.938	3585.16667
1355.144	3544.5
1358.347	3512.16667
1361.548	3499.5
1364.747	3481.83333
1367.944	3478.16667
1371.138	3492.83333
1374.329	3543.16667
1377.518	3561.5
1380.705	3586.5
1383.89	3554.5
1387.072	3452.16667
1390.252	3344.5
1393.429	3229.5
1396.605	3108.5
1399.777	3029.5
1402.948	2993.83333
1406.116	2977.16667
1409.282	3001.83333
1412.445	2981.83333
1415.606	3006.16667
1418.765	3061.5
1421.921	3108.16667
1425.075	3193.83333
1428.227	3319.5
1431.376	3437.16667
1434.524	3552.83333
1437.668	3627.5
1440.811	3671.5
1443.951	3693.83333
1447.089	3711.83333
1450.224	3691.5
1453.357	3675.83333
1456.488	3651.83333
1459.617	3599.16667
1462.743	3553.16667
1465.867	3468.83333
1468.989	3447.83333
1472.108	3406.83333
1475.225	3330.83333
1478.34	3330.83333
1481.453	3335.16667
1484.563	3349.83333
1487.671	3404.16667
1490.776	3472.16667
1493.88	3538.83333
1496.981	3600.83333
1500.08	3651.83333
1503.176	3691.5
1506.271	3754.83333
1509.363	3788.83333
1512.452	3842.83333
1515.54	3900.16667
1518.625	3969.5
1521.708	4091.5
1524.789	4223.83333
1527.867	4406.5
1530.944	4644.5
1534.018	4845.16667
1537.089	5001.83333
1540.159	5009.83333
1543.226	4964.5
1546.291	4782.83333
1549.354	4687.16667
1552.415	4596.5
1555.473	4478.83333
1558.529	4404.5
1561.583	4380.83333
1564.634	4329.83333
1567.684	4383.5
1570.731	4359.83333
1573.776	4393.16667
1576.819	4423.16667
1579.859	4488.5
1582.898	4532.5
1585.934	4550.5
1588.968	4562.83333
1591.999	4535.16667
1595.029	4537.5
1598.056	4549.5
1601.081	4544.5
1604.104	4515.5
1607.125	4468.16667
1610.144	4344.16667
1613.16	4300.5
1616.174	4198.16667
1619.186	4074.5
1622.196	4002.16667
1625.203	3914.83333
1628.209	3831.83333
1631.212	3809.16667
1634.213	3774.83333
1637.212	3759.83333
1640.209	3682.16667
1643.203	3603.16667
1646.196	3455.83333
1649.186	3297.83333
1652.174	3206.5
1655.16	3094.5
1658.144	3017.5
1661.125	2857.83333
1664.105	2721.83333
1667.082	2596.83333
1670.057	2460.16667
1673.03	2289.83333
1676.001	2176.83333
1678.97	2040.83333
1681.937	1960.16667
1684.901	1841.16667
1687.863	1791.16667
1690.824	1723.5
1693.782	1693.5
1696.738	1624.5
1699.692	1608.16667
1702.643	1574.83333
1705.593	1573.83333
1708.54	1540.83333
1711.486	1545.16667
1714.429	1490.16667
1717.37	1483.83333
1720.309	1454.5
1723.246	1470.83333
1726.181	1436.83333
1729.113	1433.5
1732.044	1422.83333
1734.972	1411.16667
1737.899	1412.16667
1740.823	1397.5
1743.745	1398.83333
1746.665	1353.5
1749.583	1336.16667
1752.499	1318.16667
1755.413	1313.83333
1758.325	1290.83333
1761.235	1282.16667
1764.142	1249.16667
1767.048	1239.5
1769.951	1232.83333
1772.852	1224.5
1775.752	1226.5
1778.649	1211.83333
1781.544	1212.16667
1784.437	1197.83333
1787.328	1210.16667
1790.217	1191.16667
1793.104	1169.5
1795.989	1175.83333
1798.872	1160.16667
1801.753	1181.5
1804.631	1166.5
1807.508	1188.5
1810.383	1161.83333
1813.255	1149.83333
1816.126	1151.16667
1818.994	1154.5
1821.861	1157.5
1824.725	1129.83333
1827.587	1134.83333
1830.448	1133.16667
1833.306	1099.5
1836.162	1124.83333
1839.017	1115.5
1841.869	1101.16667
1844.719	1107.16667
1847.567	1083.83333
1850.414	1086.83333
1853.258	1087.16667
1856.1	1110.5
1858.94	1111.5
1861.778	1093.16667
1864.614	1072.5
1867.448	1094.5
1870.28	1083.5
1873.111	1092.16667
1875.939	1093.83333
1878.765	1106.5
1881.589	1089.5
1884.411	1076.16667
1887.231	1096.5
1890.049	1070.83333
1892.865	1072.5
1895.68	1051.16667
1898.492	1063.16667
1901.302	1048.83333
1904.11	1050.5
1906.916	1042.16667
1909.721	1027.83333
1912.523	1047.83333
1915.323	1020.16667
1918.122	1035.83333
1920.918	1035.16667
1923.712	1030.5
1926.505	1042.83333
1929.295	1011.83333
1932.084	1019.16667
1934.87	1024.83333
1937.655	1005.5
1940.438	1010.16667
1943.218	1023.83333
1945.997	1022.5
1948.774	1024.5
1951.549	1032.5
1954.322	1012.16667
1957.093	1021.5
1959.862	997.5
1962.629	1011.83333
1965.394	1001.5
1968.157	986.83333
1970.918	1002.16667
1973.678	988.83333
1976.435	984.83333
1979.19	986.83333
1981.944	976.5
1984.696	966.5
1987.445	975.16667
1990.193	965.83333
1992.939	981.83333
1995.683	976.5
1998.425	958.5
2001.165	985.83333
2003.903	970.16667
2006.639	961.16667
2009.374	962.5
2012.106	963.83333
2014.837	949.16667
2017.566	971.5
2020.292	962.83333
2023.017	964.16667
2025.74	952.16667
2028.461	952.83333
2031.18	957.16667
2033.898	940.5
2036.613	952.83333
2039.327	948.83333
2042.038	932.5
2044.748	934.83333
2047.456	935.5
2050.162	919.83333
2052.866	925.5
2055.568	923.5
2058.268	922.5
2060.967	938.5
2063.663	909.5
2066.358	925.5
2069.051	912.83333
2071.742	922.83333
2074.431	930.16667
2077.118	929.83333
2079.804	907.5
2082.487	920.16667
2085.169	942.16667
2087.849	943.83333
2090.527	917.5
2093.203	931.83333
2095.877	951.16667
2098.55	938.16667
2101.22	949.5
2103.889	960.5
2106.556	961.16667
2109.221	997.16667
2111.884	1011.16667
2114.546	1072.5
2117.205	1106.16667
2119.863	1205.83333
2122.519	1265.83333
2125.173	1335.83333
2127.825	1405.5
2130.475	1393.83333
2133.124	1360.5
2135.771	1298.83333
2138.416	1269.16667
2141.059	1190.83333
2143.7	1159.16667
2146.339	1104.5
2148.977	1046.5
2151.613	1046.16667
2154.247	1005.83333
2156.879	988.16667
2159.51	965.5
2162.138	948.5
2164.765	956.5
2167.39	935.16667
2170.013	977.83333
2172.634	939.16667
2175.254	935.16667
2177.872	966.83333
2180.488	914.16667
2183.102	924.5
2185.714	906.5
2188.325	884.5
2190.934	890.83333
2193.541	890.83333
2196.146	883.83333
2198.75	875.83333
2201.351	874.16667
2203.951	859.83333
2206.549	871.16667
2209.146	854.83333
2211.74	860.83333
2214.333	855.16667
2216.924	840.16667
2219.514	843.16667
2222.101	831.83333
2224.687	853.83333
2227.271	813.83333
2229.853	826.83333
2232.433	823.83333
2235.012	830.5
2237.589	834.5
2240.164	841.5
2242.738	826.83333
2245.309	811.5
2247.879	835.83333
2250.448	822.5
2253.014	791.5
2255.579	796.16667
2258.142	785.83333
2260.703	775.16667
2263.262	782.16667
2265.82	783.16667
2268.376	786.83333
2270.93	768.16667
2273.483	767.83333
2276.033	772.16667
2278.583	767.83333
2281.13	759.5
2283.675	762.5
2286.219	773.5
2288.761	760.83333
2291.302	771.5
2293.841	771.5
2296.377	746.16667
2298.913	759.83333
2301.446	768.83333
2303.978	757.16667
2306.508	755.83333
2309.037	751.16667
2311.563	751.16667
2314.088	758.16667
2316.612	737.5
2319.133	740.83333
2321.653	750.16667
2324.171	734.16667
2326.688	739.16667
2329.202	734.16667
2331.715	746.83333
2334.227	743.5
2336.736	727.83333
2339.244	726.83333
2341.751	721.16667
2344.255	737.16667
2346.758	726.83333
2349.259	720.5
2351.759	741.16667
2354.257	722.16667
2356.753	734.16667
2359.247	722.5
2361.74	735.5
2364.231	727.83333
2366.721	724.83333
2369.209	728.16667
2371.695	718.5
2374.179	715.83333
2376.662	720.5
2379.143	736.5
2381.622	716.16667
2384.1	723.16667
2386.576	723.83333
2389.051	736.16667
2391.524	746.83333
2393.995	734.5
2396.464	710.5
2398.932	709.83333
2401.398	721.83333
2403.863	714.16667
2406.325	711.83333
2408.787	722.16667
2411.246	717.5
2413.704	716.16667
2416.16	709.83333
2418.615	718.83333
2421.068	725.5
2423.519	718.83333
2425.969	714.83333
2428.417	721.5
2430.863	736.83333
2433.308	733.5
2435.751	728.83333
2438.193	719.16667
2440.633	729.83333
2443.071	716.83333
2445.508	710.5
2447.943	713.5
2450.376	710.83333
2452.808	725.83333
2455.238	702.83333
2457.667	738.16667
2460.093	704.83333
2462.519	694.16667
2464.942	707.5
2467.365	725.5
2469.785	713.83333
2472.204	712.16667
2474.621	706.5
2477.037	732.83333
2479.451	712.5
2481.863	705.5
2484.274	709.83333
2486.683	719.16667
2489.091	715.16667
2491.497	717.16667
2493.901	719.5
2496.304	709.16667
2498.705	720.16667
2501.105	714.83333
2503.503	735.16667
2505.899	713.16667
2508.294	736.5
2510.687	705.16667
2513.079	716.16667
2515.469	706.5
2517.858	711.16667
2520.245	724.16667
2522.63	713.16667
2525.014	711.83333
2527.396	699.83333
2529.776	704.16667
2532.156	714.5
2534.533	701.5
2536.909	710.83333
2539.283	698.83333
2541.656	716.5
2544.027	726.83333
2546.397	722.83333
2548.765	715.16667
2551.131	715.5
2553.496	712.5
2555.86	713.5
2558.221	713.5
2560.582	715.5
2562.94	708.5
2565.298	724.83333
2567.653	736.5
2570.007	703.16667
2572.36	730.5
2574.711	719.5
2577.06	735.5
2579.408	720.16667
2581.754	722.83333
2584.099	711.83333
2586.442	719.83333
2588.784	729.16667
2591.124	732.83333
2593.463	727.5
2595.8	718.16667
2598.135	707.16667
2600.469	718.16667
2602.802	739.16667
2605.133	748.83333
2607.462	727.5
2609.79	722.83333
2612.116	730.5
2614.441	725.5
2616.764	747.5
2619.086	728.83333
2621.406	724.16667
2623.725	746.83333
2626.042	739.16667
2628.358	734.16667
2630.672	733.16667
2632.985	744.5
2635.296	744.5
2637.606	743.5
2639.914	739.5
2642.22	758.5
2644.525	747.83333
2646.829	757.16667
2649.131	773.83333
2651.432	761.83333
2653.731	774.83333
2656.028	775.5
2658.324	773.83333
2660.619	760.5
2662.912	779.5
2665.204	762.16667
2667.494	774.5
2669.782	760.5
2672.07	785.5
2674.355	790.83333
2676.639	771.5
2678.922	775.83333
2681.203	774.5
2683.483	767.5
2685.761	768.83333
2688.038	776.5
2690.313	799.83333
2692.587	782.83333
2694.859	783.16667
2697.13	800.83333
2699.399	809.5
2701.667	811.5
2703.933	814.83333
2706.198	814.83333
2708.461	823.83333
2710.723	834.83333
2712.984	827.5
2715.243	838.16667
2717.5	830.5
2719.757	839.16667
2722.011	847.5
2724.264	854.5
2726.516	877.83333
2728.766	848.16667
2731.015	855.16667
2733.262	864.16667
2735.508	852.5
2737.753	853.16667
2739.996	849.16667
2742.237	837.83333
2744.477	849.5
2746.716	853.5
2748.953	842.5
2751.189	844.16667
2753.423	827.5
2755.656	823.16667
2757.887	819.5
2760.117	837.16667
2762.346	821.5
2764.573	822.5
2766.798	827.5
2769.022	831.5
2771.245	830.83333
2773.467	837.5
2775.686	843.5
2777.905	846.5
2780.122	853.5
2782.337	854.5
2784.552	860.16667
2786.764	864.83333
2788.976	879.16667
2791.186	888.5
2793.394	885.16667
2795.601	907.16667
2797.807	915.5
2800.011	908.5
2802.214	927.83333
2804.415	931.5
2806.615	931.16667
2808.814	958.16667
2811.011	953.5
2813.206	937.5
2815.401	981.16667
2817.594	994.5
2819.785	989.83333
2821.975	982.5
2824.164	1003.16667
2826.351	1014.83333
2828.537	1033.83333
2830.722	1056.16667
2832.905	1046.83333
2835.086	1096.16667
2837.267	1129.16667
2839.445	1154.83333
2841.623	1170.16667
2843.799	1200.16667
2845.974	1257.5
2848.147	1293.16667
2850.319	1304.5
2852.489	1352.83333
2854.659	1361.83333
2856.826	1376.16667
2858.993	1400.5
2861.158	1381.16667
2863.321	1386.16667
2865.483	1394.16667
2867.644	1409.83333
2869.804	1404.5
2871.962	1393.83333
2874.118	1416.5
2876.274	1389.83333
2878.428	1390.5
2880.58	1375.16667
2882.731	1371.16667
2884.881	1380.83333
2887.03	1376.83333
2889.177	1365.16667
2891.322	1398.16667
2893.467	1389.16667
2895.61	1381.83333
2897.751	1416.5
2899.892	1385.5
2902.03	1413.5
2904.168	1438.83333
2906.304	1431.5
2908.439	1464.83333
2910.572	1430.16667
2912.704	1454.16667
2914.835	1445.5
2916.965	1452.83333
2919.093	1479.16667
2921.219	1440.5
2923.345	1456.83333
2925.469	1426.5
2927.591	1418.83333
2929.712	1378.83333
2931.832	1371.5
2933.951	1347.5
2936.068	1322.83333
2938.184	1295.83333
2940.299	1276.83333
2942.412	1227.16667
2944.524	1210.83333
2946.634	1188.83333
2948.744	1152.5
2950.851	1173.16667
2952.958	1121.5
2955.063	1112.16667
2957.167	1100.5
2959.269	1076.5
2961.371	1088.83333
2963.471	1051.83333
2965.569	1054.16667
2967.666	1020.83333
2969.762	1011.16667
2971.857	979.5
2973.95	975.16667
2976.042	964.16667
2978.133	936.5
2980.222	927.5
2982.31	910.16667
2984.396	877.83333
2986.482	891.5
2988.566	887.5
2990.648	867.83333
2992.73	882.83333
2994.81	861.5
2996.889	858.16667
2998.966	858.16667
3001.042	870.16667
3003.117	869.5
3005.191	851.16667
3007.263	852.16667
3009.334	838.83333
3011.403	833.5
3013.472	809.16667
3015.539	816.16667
3017.604	817.83333
3019.669	778.5
3021.732	789.16667
3023.794	793.16667
3025.854	771.83333
3027.914	783.5
3029.971	779.16667
3032.028	772.5
3034.083	776.16667
3036.137	762.16667
3038.19	730.83333
3040.242	715.5
3042.292	712.5
3044.341	702.16667
3046.388	713.5
3048.435	685.5
3050.48	709.16667
3052.524	695.83333
3054.566	669.83333
3056.607	685.83333
3058.647	667.5
3060.686	630.83333
3062.723	625.16667
3064.759	592.5
3066.794	-0.5
3068.828	0.5
3070.86	-3.16667
