-0.839	400.95833
3.438	429.95833
7.711	125.29167
11.981	56.625
16.247	48.29167
20.509	45.95833
24.768	42.95833
29.024	48.625
33.276	44.95833
37.524	51.29167
41.769	42.29167
46.01	39.95833
50.247	47.95833
54.481	66.29167
58.712	66.625
62.939	53.625
67.162	60.625
71.382	62.95833
75.599	50.95833
79.812	66.29167
84.021	83.95833
88.227	60.625
92.429	64.625
96.628	51.95833
100.823	70.95833
105.015	78.95833
109.204	81.95833
113.388	79.29167
117.57	74.95833
121.748	91.29167
125.922	85.95833
130.093	109.95833
134.261	110.625
138.425	108.29167
142.585	154.95833
146.742	154.625
150.896	181.625
155.046	218.95833
159.193	355.625
163.336	622.95833
167.476	1141.625
171.613	2130.625
175.746	3563.625
179.875	5294.29167
184.002	6930.95833
188.124	7988.95833
192.244	8376.29167
196.36	8324.625
200.472	8068.625
204.581	7853.95833
208.687	7644.95833
212.79	7552.29167
216.889	7582.95833
220.984	7638.625
225.077	7692.625
229.165	7800.625
233.251	7881.95833
237.333	7891.29167
241.412	7877.29167
245.487	7846.95833
249.559	7766.29167
253.628	7712.625
257.694	7658.29167
261.756	7587.625
265.814	7459.95833
269.87	7327.95833
273.922	7150.95833
277.97	7041.625
282.016	7045.95833
286.058	7079.625
290.097	7219.29167
294.132	7271.29167
298.164	7164.625
302.193	6869.29167
306.219	6345.625
310.241	5782.95833
314.26	5210.29167
318.276	4757.29167
322.288	4450.625
326.297	4165.29167
330.303	3964.29167
334.305	3813.625
338.305	3746.29167
342.301	3706.95833
346.294	3622.95833
350.283	3602.95833
354.269	3555.95833
358.252	3527.29167
362.232	3512.29167
366.209	3456.625
370.182	3428.29167
374.152	3410.29167
378.119	3407.625
382.083	3393.95833
386.043	3404.95833
390	3368.95833
393.954	3343.95833
397.905	3316.29167
401.852	3310.29167
405.797	3250.29167
409.738	3211.625
413.676	3233.95833
417.61	3193.625
421.542	3163.29167
425.47	3121.95833
429.396	3104.95833
433.318	3078.29167
437.236	3077.95833
441.152	3081.625
445.065	3023.95833
448.974	3022.625
452.88	2998.625
456.783	2966.625
460.683	2964.95833
464.58	2962.95833
468.473	2974.95833
472.364	2979.29167
476.251	2974.29167
480.135	3004.95833
484.016	3042.625
487.894	3075.625
491.769	3073.95833
495.641	3071.625
499.509	3081.95833
503.375	3051.625
507.237	3030.29167
511.096	3032.29167
514.952	3036.95833
518.805	3043.29167
522.655	3073.625
526.502	2998.29167
530.346	3005.625
534.187	3045.95833
538.024	3051.625
541.859	3062.29167
545.69	3063.95833
549.519	3035.29167
553.344	3031.95833
557.166	2979.29167
560.985	2960.29167
564.802	2917.625
568.615	2841.625
572.425	2827.95833
576.232	2818.29167
580.036	2807.625
583.836	2823.95833
587.634	2810.625
591.429	2811.625
595.221	2861.95833
599.01	2877.29167
602.796	2938.29167
606.578	2947.29167
610.358	2956.625
614.135	2918.95833
617.909	2969.29167
621.679	2915.29167
625.447	2912.29167
629.212	2919.625
632.973	2932.95833
636.732	2909.625
640.488	2910.625
644.241	2897.29167
647.991	2894.625
651.737	2901.95833
655.481	2844.95833
659.222	2884.29167
662.96	2869.625
666.695	2874.95833
670.427	2890.625
674.156	2899.625
677.882	2906.95833
681.605	2897.29167
685.325	2892.625
689.043	2905.95833
692.757	2872.625
696.468	2894.29167
700.177	2891.625
703.882	2877.625
707.585	2882.95833
711.284	2884.95833
714.981	2893.29167
718.675	2897.95833
722.366	2907.29167
726.054	2892.625
729.739	2893.625
733.421	2863.625
737.1	2881.625
740.777	2905.29167
744.45	2958.625
748.121	2940.29167
751.789	3009.625
755.453	3016.95833
759.115	3017.29167
762.774	3042.29167
766.431	3072.625
770.084	3091.29167
773.734	3151.625
777.382	3209.95833
781.027	3209.29167
784.669	3243.29167
788.308	3249.95833
791.944	3275.29167
795.577	3306.29167
799.208	3347.625
802.835	3350.95833
806.46	3377.29167
810.082	3416.95833
813.701	3434.95833
817.317	3426.29167
820.931	3432.95833
824.542	3442.95833
828.149	3402.29167
831.754	3367.29167
835.357	3374.625
838.956	3369.625
842.553	3335.29167
846.146	3323.95833
849.737	3318.29167
853.326	3329.625
856.911	3325.625
860.493	3393.95833
864.073	3406.95833
867.65	3485.625
871.225	3508.625
874.796	3512.95833
878.365	3516.625
881.931	3547.95833
885.494	3579.29167
889.054	3540.625
892.612	3537.95833
896.166	3526.625
899.719	3470.29167
903.268	3464.625
906.814	3450.29167
910.358	3447.95833
913.899	3411.95833
917.438	3420.625
920.973	3433.29167
924.506	3450.625
928.036	3489.625
931.564	3525.625
935.088	3574.625
938.61	3580.95833
942.129	3609.29167
945.646	3690.29167
949.16	3787.95833
952.671	3887.625
956.179	3941.625
959.685	3836.29167
963.188	3817.29167
966.688	3738.29167
970.185	3660.625
973.68	3591.95833
977.173	3555.29167
980.662	3519.29167
984.149	3543.625
987.633	3542.95833
991.114	3599.95833
994.593	3705.625
998.069	3827.95833
1001.542	3935.95833
1005.013	3866.625
1008.481	3648.29167
1011.947	3594.625
1015.409	3572.95833
1018.869	3599.625
1022.327	3589.29167
1025.782	3566.95833
1029.234	3584.29167
1032.683	3542.29167
1036.13	3415.625
1039.574	3294.95833
1043.016	3213.95833
1046.455	3166.95833
1049.891	3142.625
1053.325	3140.625
1056.756	3137.95833
1060.184	3175.95833
1063.61	3191.29167
1067.033	3223.29167
1070.454	3169.29167
1073.872	3245.625
1077.287	3227.95833
1080.7	3240.95833
1084.11	3251.95833
1087.517	3214.625
1090.922	3192.95833
1094.325	3179.95833
1097.724	3127.29167
1101.122	3133.29167
1104.516	3109.625
1107.908	3123.625
1111.298	3164.29167
1114.684	3213.625
1118.069	3248.625
1121.45	3273.95833
1124.83	3253.29167
1128.206	3325.95833
1131.58	3341.29167
1134.951	3439.625
1138.32	3553.29167
1141.687	3716.95833
1145.05	3774.95833
1148.412	3814.95833
1151.77	3777.625
1155.126	3778.29167
1158.48	3774.95833
1161.831	3792.95833
1165.18	3797.625
1168.525	3885.29167
1171.869	3913.95833
1175.21	3936.29167
1178.548	3972.29167
1181.884	4022.95833
1185.217	4050.625
1188.548	4107.95833
1191.877	4196.29167
1195.202	4278.625
1198.526	4329.625
1201.846	4363.29167
1205.165	4352.29167
1208.48	4344.95833
1211.794	4333.29167
1215.104	4340.625
1218.413	4346.29167
1221.719	4357.29167
1225.022	4311.95833
1228.323	4265.625
1231.621	4265.625
1234.917	4286.29167
1238.21	4276.95833
1241.501	4285.95833
1244.79	4272.625
1248.076	4263.95833
1251.359	4330.29167
1254.64	4400.29167
1257.919	4407.95833
1261.195	4464.29167
1264.468	4583.29167
1267.74	4631.625
1271.008	4615.625
1274.275	4628.29167
1277.538	4584.95833
1280.8	4566.625
1284.059	4583.625
1287.315	4616.29167
1290.569	4645.625
1293.821	4656.95833
1297.07	4682.95833
1300.317	4691.625
1303.562	4679.29167
1306.803	4621.95833
1310.043	4586.95833
1313.28	4512.95833
1316.515	4467.625
1319.747	4421.29167
1322.977	4360.29167
1326.204	4323.625
1329.429	4272.625
1332.652	4210.29167
1335.872	4206.625
1339.09	4184.95833
1342.306	4181.95833
1345.519	4139.625
1348.729	4129.95833
1351.938	4095.29167
1355.144	4036.95833
1358.347	4033.625
1361.548	4022.29167
1364.747	4033.625
1367.944	4014.29167
1371.138	4009.625
1374.329	4071.95833
1377.518	4137.29167
1380.705	4170.29167
1383.89	4115.625
1387.072	4037.95833
1390.252	3865.625
1393.429	3749.95833
1396.605	3628.95833
1399.777	3535.95833
1402.948	3518.29167
1406.116	3471.625
1409.282	3490.29167
1412.445	3509.625
1415.606	3555.625
1418.765	3585.95833
1421.921	3665.95833
1425.075	3746.95833
1428.227	3895.95833
1431.376	4039.625
1434.524	4173.95833
1437.668	4278.29167
1440.811	4317.95833
1443.951	4358.29167
1447.089	4355.29167
1450.224	4299.95833
1453.357	4307.29167
1456.488	4264.625
1459.617	4197.95833
1462.743	4161.625
1465.867	4041.625
1468.989	4017.625
1472.108	3942.95833
1475.225	3861.625
1478.34	3821.625
1481.453	3809.625
1484.563	3813.625
1487.671	3866.29167
1490.776	3919.625
1493.88	4007.625
1496.981	4082.29167
1500.08	4177.625
1503.176	4196.29167
1506.271	4325.95833
1509.363	4362.625
1512.452	4418.95833
1515.54	4529.625
1518.625	4586.29167
1521.708	4772.95833
1524.789	4992.625
1527.867	5219.95833
1530.944	5586.95833
1534.018	5858.625
1537.089	6041.29167
1540.159	6054.29167
1543.226	5912.625
1546.291	5721.29167
1549.354	5552.29167
1552.415	5359.625
1555.473	5241.625
1558.529	5124.625
1561.583	5060.625
1564.634	5002.95833
1567.684	5002.95833
1570.731	4989.95833
1573.776	5036.625
1576.819	5048.29167
1579.859	5061.95833
1582.898	5173.95833
1585.934	5184.95833
1588.968	5221.625
1591.999	5193.625
1595.029	5191.625
1598.056	5227.95833
1601.081	5223.29167
1604.104	5216.29167
1607.125	5180.625
1610.144	5057.95833
1613.16	4931.625
1616.174	4851.625
1619.186	4723.95833
1622.196	4584.95833
1625.203	4484.95833
1628.209	4447.625
1631.212	4378.29167
1634.213	4346.29167
1637.212	4309.29167
1640.209	4209.625
1643.203	4121.29167
1646.196	3996.625
1649.186	3844.95833
1652.174	3762.95833
1655.16	3640.95833
1658.144	3511.95833
1661.125	3365.95833
1664.105	3199.625
1667.082	3074.29167
1670.057	2889.95833
1673.03	2725.625
1676.001	2540.29167
1678.97	2397.29167
1681.937	2260.95833
1684.901	2129.95833
1687.863	2092.95833
1690.824	1978.95833
1693.782	1946.95833
1696.738	1874.29167
1699.692	1841.625
1702.643	1804.95833
1705.593	1760.95833
1708.54	1741.29167
1711.486	1740.29167
1714.429	1719.625
1717.37	1690.29167
1720.309	1651.29167
1723.246	1679.29167
1726.181	1631.95833
1729.113	1615.95833
1732.044	1595.29167
1734.972	1601.95833
1737.899	1591.625
1740.823	1584.625
1743.745	1569.29167
1746.665	1527.29167
1749.583	1510.95833
1752.499	1487.625
1755.413	1456.29167
1758.325	1435.625
1761.235	1416.625
1764.142	1386.29167
1767.048	1397.625
1769.951	1369.625
1772.852	1357.625
1775.752	1352.29167
1778.649	1358.625
1781.544	1354.95833
1784.437	1306.95833
1787.328	1328.625
1790.217	1328.95833
1793.104	1299.29167
1795.989	1291.29167
1798.872	1278.29167
1801.753	1303.625
1804.631	1303.625
1807.508	1299.29167
1810.383	1286.625
1813.255	1285.29167
1816.126	1278.625
1818.994	1258.95833
1821.861	1251.625
1824.725	1248.625
1827.587	1249.625
1830.448	1242.95833
1833.306	1212.95833
1836.162	1232.625
1839.017	1212.625
1841.869	1212.95833
1844.719	1208.625
1847.567	1207.29167
1850.414	1191.95833
1853.258	1183.625
1856.1	1207.29167
1858.94	1210.29167
1861.778	1195.625
1864.614	1179.29167
1867.448	1199.95833
1870.28	1182.95833
1873.111	1199.95833
1875.939	1183.29167
1878.765	1208.625
1881.589	1188.625
1884.411	1184.95833
1887.231	1191.29167
1890.049	1174.625
1892.865	1165.29167
1895.68	1151.29167
1898.492	1163.29167
1901.302	1141.95833
1904.11	1131.625
1906.916	1136.625
1909.721	1130.95833
1912.523	1153.29167
1915.323	1121.29167
1918.122	1132.95833
1920.918	1140.625
1923.712	1106.625
1926.505	1113.95833
1929.295	1098.95833
1932.084	1117.29167
1934.87	1122.29167
1937.655	1102.625
1940.438	1097.95833
1943.218	1107.95833
1945.997	1105.29167
1948.774	1110.625
1951.549	1108.29167
1954.322	1088.95833
1957.093	1105.29167
1959.862	1081.625
1962.629	1090.29167
1965.394	1091.625
1968.157	1084.95833
1970.918	1084.95833
1973.678	1068.29167
1976.435	1076.29167
1979.19	1052.95833
1981.944	1059.95833
1984.696	1050.625
1987.445	1040.29167
1990.193	1043.625
1992.939	1064.95833
1995.683	1057.29167
1998.425	1020.625
2001.165	1056.29167
2003.903	1030.29167
2006.639	1040.625
2009.374	1043.625
2012.106	1038.95833
2014.837	1021.625
2017.566	1055.95833
2020.292	1029.29167
2023.017	1026.29167
2025.74	1025.29167
2028.461	1001.29167
2031.18	1024.29167
2033.898	1008.625
2036.613	1032.625
2039.327	1021.95833
2042.038	991.625
2044.748	1012.29167
2047.456	1000.625
2050.162	984.625
2052.866	993.625
2055.568	1001.625
2058.268	985.625
2060.967	988.95833
2063.663	973.95833
2066.358	982.625
2069.051	982.29167
2071.742	978.95833
2074.431	983.29167
2077.118	982.29167
2079.804	972.625
2082.487	988.95833
2085.169	994.625
2087.849	999.95833
2090.527	989.95833
2093.203	1002.29167
2095.877	1016.95833
2098.55	1000.29167
2101.22	1023.625
2103.889	1039.625
2106.556	1050.29167
2109.221	1077.29167
2111.884	1132.29167
2114.546	1219.625
2117.205	1300.29167
2119.863	1417.29167
2122.519	1518.95833
2125.173	1626.29167
2127.825	1721.95833
2130.475	1730.625
2133.124	1684.625
2135.771	1603.29167
2138.416	1542.625
2141.059	1428.29167
2143.7	1382.625
2146.339	1268.625
2148.977	1207.625
2151.613	1169.625
2154.247	1141.625
2156.879	1103.29167
2159.51	1079.95833
2162.138	1069.29167
2164.765	1066.625
2167.39	1029.95833
2170.013	1046.29167
2172.634	1028.29167
2175.254	1014.625
2177.872	1030.95833
2180.488	989.625
2183.102	992.95833
2185.714	964.29167
2188.325	942.29167
2190.934	955.625
2193.541	942.29167
2196.146	930.625
2198.75	921.625
2201.351	923.95833
2203.951	887.95833
2206.549	922.29167
2209.146	895.95833
2211.74	873.29167
2214.333	888.625
2216.924	861.29167
2219.514	871.95833
2222.101	857.29167
2224.687	876.95833
2227.271	856.29167
2229.853	858.29167
2232.433	844.625
2235.012	865.95833
2237.589	845.29167
2240.164	852.95833
2242.738	835.95833
2245.309	825.29167
2247.879	839.29167
2250.448	828.625
2253.014	799.29167
2255.579	798.95833
2258.142	798.625
2260.703	786.95833
2263.262	779.29167
2265.82	776.29167
2268.376	767.29167
2270.93	761.95833
2273.483	753.29167
2276.033	762.625
2278.583	751.29167
2281.13	749.625
2283.675	734.625
2286.219	753.625
2288.761	745.29167
2291.302	749.625
2293.841	752.29167
2296.377	715.95833
2298.913	727.29167
2301.446	735.625
2303.978	727.29167
2306.508	733.29167
2309.037	711.95833
2311.563	723.625
2314.088	734.29167
2316.612	707.625
2319.133	716.625
2321.653	712.95833
2324.171	702.95833
2326.688	704.95833
2329.202	709.95833
2331.715	812.625
2334.227	716.29167
2336.736	694.29167
2339.244	695.95833
2341.751	692.95833
2344.255	685.625
2346.758	684.95833
2349.259	678.95833
2351.759	674.95833
2354.257	667.625
2356.753	667.95833
2359.247	670.625
2361.74	673.625
2364.231	655.29167
2366.721	680.29167
2369.209	660.625
2371.695	659.95833
2374.179	666.29167
2376.662	659.29167
2379.143	670.95833
2381.622	659.29167
2384.1	661.625
2386.576	654.95833
2389.051	667.29167
2391.524	657.625
2393.995	667.625
2396.464	652.625
2398.932	635.29167
2401.398	644.29167
2403.863	648.29167
2406.325	630.95833
2408.787	633.95833
2411.246	639.625
2413.704	637.95833
2416.16	628.95833
2418.615	637.29167
2421.068	634.29167
2423.519	627.95833
2425.969	629.95833
2428.417	625.625
2430.863	638.625
2433.308	647.95833
2435.751	627.29167
2438.193	621.29167
2440.633	625.95833
2443.071	616.95833
2445.508	610.625
2447.943	618.29167
2450.376	584.95833
2452.808	606.625
2455.238	602.29167
2457.667	627.95833
2460.093	613.625
2462.519	591.95833
2464.942	598.95833
2467.365	599.95833
2469.785	599.625
2472.204	587.95833
2474.621	588.29167
2477.037	621.625
2479.451	587.95833
2481.863	586.29167
2484.274	585.29167
2486.683	592.29167
2489.091	587.95833
2491.497	574.625
2493.901	587.29167
2496.304	575.95833
2498.705	585.625
2501.105	570.29167
2503.503	609.625
2505.899	564.95833
2508.294	603.29167
2510.687	574.625
2513.079	569.95833
2515.469	566.95833
2517.858	567.29167
2520.245	590.29167
2522.63	563.29167
2525.014	561.29167
2527.396	559.29167
2529.776	557.29167
2532.156	567.29167
2534.533	554.95833
2536.909	557.95833
2539.283	538.625
2541.656	540.29167
2544.027	573.95833
2546.397	557.29167
2548.765	555.625
2551.131	551.95833
2553.496	550.29167
2555.86	555.625
2558.221	546.29167
2560.582	550.95833
2562.94	532.95833
2565.298	548.95833
2567.653	563.29167
2570.007	516.95833
2572.36	546.29167
2574.711	534.29167
2577.06	559.625
2579.408	541.625
2581.754	541.625
2584.099	536.625
2586.442	536.95833
2588.784	542.95833
2591.124	542.29167
2593.463	535.29167
2595.8	527.95833
2598.135	524.95833
2600.469	523.29167
2602.802	549.29167
2605.133	542.95833
2607.462	524.625
2609.79	523.29167
2612.116	531.625
2614.441	531.625
2616.764	538.29167
2619.086	532.625
2621.406	521.625
2623.725	533.625
2626.042	520.29167
2628.358	532.29167
2630.672	517.29167
2632.985	535.625
2635.296	536.95833
2637.606	524.625
2639.914	520.29167
2642.22	528.625
2644.525	533.29167
2646.829	529.95833
2649.131	552.95833
2651.432	547.95833
2653.731	524.29167
2656.028	546.95833
2658.324	532.95833
2660.619	520.29167
2662.912	542.29167
2665.204	517.29167
2667.494	543.29167
2669.782	525.95833
2672.07	542.29167
2674.355	546.625
2676.639	534.625
2678.922	530.95833
2681.203	533.95833
2683.483	526.95833
2685.761	516.625
2688.038	541.29167
2690.313	548.95833
2692.587	534.625
2694.859	535.29167
2697.13	547.625
2699.399	539.29167
2701.667	556.29167
2703.933	561.625
2706.198	559.95833
2708.461	572.29167
2710.723	575.625
2712.984	565.95833
2715.243	578.29167
2717.5	580.95833
2719.757	592.95833
2722.011	566.95833
2724.264	586.29167
2726.516	597.625
2728.766	575.29167
2731.015	591.95833
2733.262	583.95833
2735.508	584.29167
2737.753	579.625
2739.996	562.95833
2742.237	559.95833
2744.477	570.95833
2746.716	569.625
2748.953	557.29167
2751.189	549.625
2753.423	545.95833
2755.656	546.625
2757.887	544.95833
2760.117	553.29167
2762.346	540.625
2764.573	534.95833
2766.798	539.29167
2769.022	546.625
2771.245	547.95833
2773.467	550.95833
2775.686	560.95833
2777.905	560.29167
2780.122	565.95833
2782.337	572.95833
2784.552	560.95833
2786.764	573.29167
2788.976	575.29167
2791.186	593.95833
2793.394	595.625
2795.601	618.95833
2797.807	624.95833
2800.011	625.29167
2802.214	636.29167
2804.415	648.95833
2806.615	652.625
2808.814	667.625
2811.011	674.625
2813.206	667.29167
2815.401	691.625
2817.594	696.95833
2819.785	731.29167
2821.975	711.95833
2824.164	734.29167
2826.351	755.29167
2828.537	781.95833
2830.722	794.29167
2832.905	802.95833
2835.086	843.625
2837.267	885.625
2839.445	919.625
2841.623	947.625
2843.799	987.95833
2845.974	1036.95833
2848.147	1088.29167
2850.319	1121.95833
2852.489	1155.625
2854.659	1166.95833
2856.826	1187.95833
2858.993	1214.29167
2861.158	1201.625
2863.321	1182.625
2865.483	1234.625
2867.644	1212.95833
2869.804	1212.625
2871.962	1190.95833
2874.118	1206.95833
2876.274	1197.95833
2878.428	1197.29167
2880.58	1184.29167
2882.731	1174.625
2884.881	1173.625
2887.03	1187.95833
2889.177	1176.625
2891.322	1186.29167
2893.467	1191.625
2895.61	1188.29167
2897.751	1222.625
2899.892	1212.29167
2902.03	1209.29167
2904.168	1230.95833
2906.304	1223.95833
2908.439	1246.95833
2910.572	1239.29167
2912.704	1241.625
2914.835	1258.625
2916.965	1232.95833
2919.093	1251.625
2921.219	1200.625
2923.345	1234.29167
2925.469	1200.625
2927.591	1180.625
2929.712	1140.29167
2931.832	1117.625
2933.951	1103.95833
2936.068	1073.29167
2938.184	1040.625
2940.299	1004.625
2942.412	970.29167
2944.524	926.625
2946.634	893.95833
2948.744	845.95833
2950.851	855.625
2952.958	799.29167
2955.063	781.95833
2957.167	759.625
2959.269	716.95833
2961.371	722.29167
2963.471	677.95833
2965.569	691.625
2967.666	657.29167
2969.762	629.95833
2971.857	615.29167
2973.95	585.29167
2976.042	573.95833
2978.133	558.29167
2980.222	545.95833
2982.31	526.625
2984.396	502.625
2986.482	495.625
2988.566	496.625
2990.648	475.625
2992.73	467.625
2994.81	450.625
2996.889	461.29167
2998.966	450.29167
3001.042	444.625
3003.117	442.29167
3005.191	433.29167
3007.263	428.29167
3009.334	423.625
3011.403	417.95833
3013.472	397.95833
3015.539	396.625
3017.604	411.625
3019.669	372.95833
3021.732	378.29167
3023.794	378.95833
3025.854	369.29167
3027.914	360.29167
3029.971	362.95833
3032.028	350.29167
3034.083	358.625
3036.137	353.625
3038.19	342.95833
3040.242	326.95833
3042.292	319.625
3044.341	310.29167
3046.388	334.95833
3048.435	304.625
3050.48	321.95833
3052.524	312.95833
3054.566	297.625
3056.607	310.29167
3058.647	299.95833
3060.686	280.625
3062.723	275.95833
3064.759	271.625
3066.794	1.95833
3068.828	-2.04167
3070.86	-2.375
