-0.839	392.20833
3.438	423.20833
7.711	118.875
11.981	55.20833
16.247	43.20833
20.509	42.54167
24.768	46.20833
29.024	44.20833
33.276	46.20833
37.524	49.20833
41.769	42.54167
46.01	36.20833
50.247	52.20833
54.481	61.20833
58.712	62.54167
62.939	50.875
67.162	65.20833
71.382	56.54167
75.599	45.875
79.812	64.875
84.021	81.54167
88.227	60.54167
92.429	64.20833
96.628	49.20833
100.823	63.875
105.015	77.875
109.204	76.20833
113.388	76.20833
117.57	75.54167
121.748	91.20833
125.922	78.20833
130.093	98.54167
134.261	106.875
138.425	99.20833
142.585	140.875
146.742	138.20833
150.896	168.20833
155.046	206.20833
159.193	321.20833
163.336	561.875
167.476	1033.54167
171.613	1890.875
175.746	3134.54167
179.875	4686.54167
184.002	6093.875
188.124	6994.875
192.244	7308.875
196.36	7159.54167
200.472	6952.875
204.581	6727.54167
208.687	6476.875
212.79	6371.54167
216.889	6361.20833
220.984	6329.20833
225.077	6387.20833
229.165	6361.875
233.251	6351.54167
237.333	6355.54167
241.412	6296.875
245.487	6237.54167
249.559	6144.54167
253.628	6123.875
257.694	6040.875
261.756	6026.875
265.814	5929.54167
269.87	5766.875
273.922	5624.20833
277.97	5563.20833
282.016	5516.875
286.058	5529.54167
290.097	5628.20833
294.132	5677.54167
298.164	5616.54167
302.193	5377.20833
306.219	4943.875
310.241	4542.875
314.26	4155.54167
318.276	3821.20833
322.288	3580.54167
326.297	3398.20833
330.303	3259.875
334.305	3172.20833
338.305	3100.875
342.301	3040.20833
346.294	3022.20833
350.283	2980.20833
354.269	2935.875
358.252	2911.54167
362.232	2888.20833
366.209	2861.875
370.182	2847.875
374.152	2797.20833
378.119	2785.20833
382.083	2760.54167
386.043	2803.54167
390	2741.875
393.954	2703.54167
397.905	2710.20833
401.852	2708.54167
405.797	2681.54167
409.738	2633.54167
413.676	2624.54167
417.61	2643.54167
421.542	2622.875
425.47	2599.54167
429.396	2568.20833
433.318	2544.875
437.236	2537.20833
441.152	2547.54167
445.065	2499.20833
448.974	2513.875
452.88	2491.54167
456.783	2467.875
460.683	2436.875
464.58	2445.54167
468.473	2453.875
472.364	2449.54167
476.251	2466.875
480.135	2485.54167
484.016	2518.20833
487.894	2517.20833
491.769	2520.20833
495.641	2550.875
499.509	2537.54167
503.375	2536.54167
507.237	2510.20833
511.096	2556.54167
514.952	2664.20833
518.805	2807.20833
522.655	2832.20833
526.502	2643.20833
530.346	2552.875
534.187	2528.54167
538.024	2545.875
541.859	2548.20833
545.69	2572.875
549.519	2543.875
553.344	2519.875
557.166	2492.54167
560.985	2462.875
564.802	2422.875
568.615	2382.20833
572.425	2352.875
576.232	2326.875
580.036	2332.20833
583.836	2342.54167
587.634	2344.20833
591.429	2346.20833
595.221	2384.54167
599.01	2417.875
602.796	2428.875
606.578	2476.54167
610.358	2458.54167
614.135	2458.20833
617.909	2434.54167
621.679	2419.20833
625.447	2416.20833
629.212	2393.20833
632.973	2400.20833
636.732	2416.54167
640.488	2399.54167
644.241	2385.875
647.991	2397.54167
651.737	2390.54167
655.481	2362.54167
659.222	2347.54167
662.96	2383.54167
666.695	2390.875
670.427	2419.20833
674.156	2414.875
677.882	2422.20833
681.605	2406.54167
685.325	2381.875
689.043	2376.875
692.757	2370.54167
696.468	2362.875
700.177	2392.54167
703.882	2342.20833
707.585	2353.54167
711.284	2366.54167
714.981	2362.54167
718.675	2375.875
722.366	2387.54167
726.054	2358.20833
729.739	2354.54167
733.421	2373.20833
737.1	2358.20833
740.777	2405.875
744.45	2422.54167
748.121	2459.20833
751.789	2493.54167
755.453	2478.54167
759.115	2478.875
762.774	2495.875
766.431	2531.875
770.084	2561.20833
773.734	2581.20833
777.382	2632.20833
781.027	2646.875
784.669	2661.875
788.308	2671.875
791.944	2701.875
795.577	2752.20833
799.208	2749.875
802.835	2765.875
806.46	2782.54167
810.082	2785.54167
813.701	2824.54167
817.317	2845.54167
820.931	2831.54167
824.542	2828.54167
828.149	2807.20833
831.754	2798.875
835.357	2798.54167
838.956	2797.875
842.553	2789.54167
846.146	2799.20833
849.737	2769.54167
853.326	2779.54167
856.911	2794.54167
860.493	2851.54167
864.073	2844.20833
867.65	2878.20833
871.225	2921.54167
874.796	2929.875
878.365	2953.875
881.931	2954.54167
885.494	2996.20833
889.054	2959.54167
892.612	2979.20833
896.166	2960.875
899.719	2939.20833
903.268	2891.20833
906.814	2875.875
910.358	2868.875
913.899	2844.875
917.438	2859.54167
920.973	2843.875
924.506	2909.54167
928.036	2935.875
931.564	2984.54167
935.088	3005.54167
938.61	2995.54167
942.129	3054.20833
945.646	3120.54167
949.16	3190.875
952.671	3250.875
956.179	3257.875
959.685	3232.54167
963.188	3186.54167
966.688	3137.20833
970.185	3054.20833
973.68	2978.20833
977.173	2952.875
980.662	2891.875
984.149	2901.875
987.633	2921.54167
991.114	2962.875
994.593	3063.54167
998.069	3165.54167
1001.542	3259.54167
1005.013	3187.875
1008.481	3018.20833
1011.947	2964.54167
1015.409	2963.875
1018.869	2939.875
1022.327	2942.20833
1025.782	2912.20833
1029.234	2924.54167
1032.683	2902.20833
1036.13	2788.20833
1039.574	2651.54167
1043.016	2601.875
1046.455	2548.875
1049.891	2538.54167
1053.325	2546.20833
1056.756	2554.875
1060.184	2585.20833
1063.61	2603.875
1067.033	2618.54167
1070.454	2615.54167
1073.872	2643.875
1077.287	2637.54167
1080.7	2672.20833
1084.11	2650.20833
1087.517	2637.54167
1090.922	2629.54167
1094.325	2574.875
1097.724	2553.54167
1101.122	2561.54167
1104.516	2562.20833
1107.908	2562.20833
1111.298	2606.875
1114.684	2645.20833
1118.069	2692.20833
1121.45	2739.54167
1124.83	2719.54167
1128.206	2772.20833
1131.58	2843.20833
1134.951	2931.54167
1138.32	3030.54167
1141.687	3175.20833
1145.05	3237.54167
1148.412	3275.54167
1151.77	3256.54167
1155.126	3279.20833
1158.48	3242.54167
1161.831	3290.54167
1165.18	3296.875
1168.525	3350.54167
1171.869	3391.20833
1175.21	3384.54167
1178.548	3413.54167
1181.884	3408.54167
1185.217	3428.20833
1188.548	3480.20833
1191.877	3508.54167
1195.202	3620.54167
1198.526	3659.54167
1201.846	3656.54167
1205.165	3682.54167
1208.48	3679.54167
1211.794	3652.20833
1215.104	3655.54167
1218.413	3670.20833
1221.719	3648.20833
1225.022	3606.54167
1228.323	3537.54167
1231.621	3537.20833
1234.917	3520.54167
1238.21	3550.20833
1241.501	3543.20833
1244.79	3483.875
1248.076	3539.54167
1251.359	3578.875
1254.64	3628.20833
1257.919	3648.20833
1261.195	3738.875
1264.468	3794.875
1267.74	3856.875
1271.008	3871.20833
1274.275	3862.20833
1277.538	3827.54167
1280.8	3808.54167
1284.059	3798.875
1287.315	3850.20833
1290.569	3886.875
1293.821	3877.875
1297.07	3918.54167
1300.317	3916.20833
1303.562	3882.20833
1306.803	3864.20833
1310.043	3827.875
1313.28	3783.875
1316.515	3741.20833
1319.747	3701.54167
1322.977	3679.875
1326.204	3627.875
1329.429	3562.20833
1332.652	3546.20833
1335.872	3544.54167
1339.09	3503.54167
1342.306	3495.54167
1345.519	3464.20833
1348.729	3418.54167
1351.938	3427.875
1355.144	3363.875
1358.347	3340.54167
1361.548	3319.875
1364.747	3339.54167
1367.944	3310.54167
1371.138	3345.20833
1374.329	3374.20833
1377.518	3415.875
1380.705	3439.54167
1383.89	3408.54167
1387.072	3297.20833
1390.252	3155.20833
1393.429	3067.875
1396.605	2966.20833
1399.777	2885.20833
1402.948	2862.54167
1406.116	2823.875
1409.282	2847.875
1412.445	2837.20833
1415.606	2886.20833
1418.765	2922.875
1421.921	2957.875
1425.075	3062.20833
1428.227	3168.875
1431.376	3283.54167
1434.524	3418.875
1437.668	3509.54167
1440.811	3530.20833
1443.951	3548.54167
1447.089	3565.54167
1450.224	3565.20833
1453.357	3515.875
1456.488	3504.875
1459.617	3484.20833
1462.743	3461.875
1465.867	3368.875
1468.989	3354.875
1472.108	3302.20833
1475.225	3268.20833
1478.34	3238.20833
1481.453	3247.20833
1484.563	3266.20833
1487.671	3328.20833
1490.776	3353.54167
1493.88	3431.875
1496.981	3517.875
1500.08	3568.54167
1503.176	3627.20833
1506.271	3685.54167
1509.363	3718.20833
1512.452	3761.875
1515.54	3822.54167
1518.625	3883.20833
1521.708	3997.875
1524.789	4142.875
1527.867	4313.20833
1530.944	4531.20833
1534.018	4744.875
1537.089	4899.875
1540.159	4926.20833
1543.226	4883.54167
1546.291	4748.20833
1549.354	4638.20833
1552.415	4526.875
1555.473	4431.54167
1558.529	4352.20833
1561.583	4294.875
1564.634	4282.54167
1567.684	4283.20833
1570.731	4310.875
1573.776	4333.54167
1576.819	4385.54167
1579.859	4416.875
1582.898	4470.20833
1585.934	4485.20833
1588.968	4496.875
1591.999	4466.875
1595.029	4468.54167
1598.056	4493.20833
1601.081	4454.54167
1604.104	4438.54167
1607.125	4379.875
1610.144	4290.875
1613.16	4167.54167
1616.174	4072.54167
1619.186	3981.54167
1622.196	3865.875
1625.203	3746.20833
1628.209	3687.54167
1631.212	3626.54167
1634.213	3588.54167
1637.212	3551.20833
1640.209	3455.875
1643.203	3384.20833
1646.196	3254.20833
1649.186	3108.54167
1652.174	3046.875
1655.16	2921.875
1658.144	2815.20833
1661.125	2687.54167
1664.105	2539.20833
1667.082	2441.20833
1670.057	2290.20833
1673.03	2177.20833
1676.001	2049.875
1678.97	1927.54167
1681.937	1818.20833
1684.901	1732.875
1687.863	1692.875
1690.824	1617.54167
1693.782	1599.54167
1696.738	1532.54167
1699.692	1500.54167
1702.643	1472.875
1705.593	1447.54167
1708.54	1431.54167
1711.486	1435.54167
1714.429	1388.54167
1717.37	1396.20833
1720.309	1353.875
1723.246	1359.20833
1726.181	1325.54167
1729.113	1332.875
1732.044	1317.54167
1734.972	1313.20833
1737.899	1311.875
1740.823	1296.875
1743.745	1292.875
1746.665	1263.875
1749.583	1238.875
1752.499	1225.875
1755.413	1205.20833
1758.325	1169.20833
1761.235	1179.20833
1764.142	1148.54167
1767.048	1143.875
1769.951	1135.20833
1772.852	1131.20833
1775.752	1125.54167
1778.649	1117.20833
1781.544	1122.875
1784.437	1086.875
1787.328	1105.20833
1790.217	1098.875
1793.104	1072.54167
1795.989	1066.54167
1798.872	1073.20833
1801.753	1091.875
1804.631	1082.20833
1807.508	1084.20833
1810.383	1079.54167
1813.255	1077.875
1816.126	1068.54167
1818.994	1068.54167
1821.861	1057.875
1824.725	1045.875
1827.587	1057.54167
1830.448	1040.20833
1833.306	1013.20833
1836.162	1025.20833
1839.017	1020.875
1841.869	1012.875
1844.719	1023.54167
1847.567	989.875
1850.414	1011.20833
1853.258	1009.875
1856.1	1009.54167
1858.94	1028.54167
1861.778	1012.875
1864.614	1002.875
1867.448	992.54167
1870.28	986.875
1873.111	1016.20833
1875.939	993.20833
1878.765	1029.875
1881.589	989.54167
1884.411	989.20833
1887.231	1005.20833
1890.049	984.54167
1892.865	980.875
1895.68	971.20833
1898.492	981.54167
1901.302	971.875
1904.11	968.875
1906.916	964.20833
1909.721	963.875
1912.523	969.875
1915.323	928.54167
1918.122	963.875
1920.918	970.54167
1923.712	938.20833
1926.505	960.875
1929.295	939.54167
1932.084	947.875
1934.87	964.54167
1937.655	939.875
1940.438	930.20833
1943.218	938.875
1945.997	956.54167
1948.774	957.54167
1951.549	962.875
1954.322	938.54167
1957.093	937.875
1959.862	930.54167
1962.629	926.20833
1965.394	924.54167
1968.157	909.875
1970.918	926.20833
1973.678	904.875
1976.435	910.20833
1979.19	907.54167
1981.944	910.875
1984.696	894.875
1987.445	889.54167
1990.193	906.20833
1992.939	922.54167
1995.683	897.20833
1998.425	882.54167
2001.165	922.54167
2003.903	890.20833
2006.639	899.875
2009.374	890.20833
2012.106	902.54167
2014.837	870.54167
2017.566	885.875
2020.292	899.875
2023.017	887.875
2025.74	890.54167
2028.461	877.20833
2031.18	890.54167
2033.898	878.54167
2036.613	900.875
2039.327	886.875
2042.038	863.20833
2044.748	869.54167
2047.456	871.875
2050.162	858.20833
2052.866	879.54167
2055.568	881.54167
2058.268	865.20833
2060.967	870.54167
2063.663	863.20833
2066.358	864.875
2069.051	871.875
2071.742	872.875
2074.431	864.20833
2077.118	872.54167
2079.804	850.20833
2082.487	862.20833
2085.169	870.875
2087.849	876.875
2090.527	873.875
2093.203	888.20833
2095.877	883.20833
2098.55	886.54167
2101.22	904.54167
2103.889	908.54167
2106.556	908.54167
2109.221	945.54167
2111.884	961.875
2114.546	1034.54167
2117.205	1091.875
2119.863	1163.54167
2122.519	1224.875
2125.173	1288.54167
2127.825	1352.20833
2130.475	1354.54167
2133.124	1321.875
2135.771	1264.875
2138.416	1227.54167
2141.059	1138.20833
2143.7	1111.875
2146.339	1041.875
2148.977	1024.875
2151.613	989.875
2154.247	962.20833
2156.879	958.20833
2159.51	940.20833
2162.138	916.875
2164.765	930.54167
2167.39	902.20833
2170.013	919.20833
2172.634	900.20833
2175.254	889.875
2177.872	905.20833
2180.488	874.54167
2183.102	889.875
2185.714	857.875
2188.325	842.20833
2190.934	855.875
2193.541	856.20833
2196.146	846.875
2198.75	829.20833
2201.351	839.20833
2203.951	813.20833
2206.549	840.54167
2209.146	830.54167
2211.74	804.20833
2214.333	830.20833
2216.924	806.875
2219.514	809.54167
2222.101	803.20833
2224.687	816.875
2227.271	798.54167
2229.853	796.875
2232.433	784.20833
2235.012	803.875
2237.589	808.875
2240.164	805.875
2242.738	786.875
2245.309	786.875
2247.879	791.20833
2250.448	788.875
2253.014	771.20833
2255.579	759.54167
2258.142	775.875
2260.703	748.54167
2263.262	754.20833
2265.82	748.20833
2268.376	758.54167
2270.93	740.875
2273.483	747.875
2276.033	737.20833
2278.583	745.20833
2281.13	741.20833
2283.675	725.875
2286.219	734.54167
2288.761	738.20833
2291.302	746.54167
2293.841	727.875
2296.377	715.20833
2298.913	729.54167
2301.446	751.20833
2303.978	729.875
2306.508	727.20833
2309.037	739.875
2311.563	729.54167
2314.088	730.20833
2316.612	713.54167
2319.133	724.875
2321.653	732.20833
2324.171	727.54167
2326.688	726.875
2329.202	723.20833
2331.715	735.20833
2334.227	715.875
2336.736	711.875
2339.244	704.54167
2341.751	711.54167
2344.255	723.875
2346.758	711.54167
2349.259	715.875
2351.759	714.54167
2354.257	714.20833
2356.753	709.875
2359.247	708.875
2361.74	708.875
2364.231	701.54167
2366.721	716.875
2369.209	703.54167
2371.695	708.20833
2374.179	712.54167
2376.662	700.54167
2379.143	732.54167
2381.622	712.875
2384.1	726.875
2386.576	704.875
2389.051	728.54167
2391.524	730.54167
2393.995	722.20833
2396.464	704.54167
2398.932	695.20833
2401.398	717.20833
2403.863	708.20833
2406.325	708.54167
2408.787	699.20833
2411.246	707.20833
2413.704	706.875
2416.16	714.54167
2418.615	711.875
2421.068	723.20833
2423.519	711.875
2425.969	718.20833
2428.417	709.875
2430.863	732.20833
2433.308	723.54167
2435.751	718.875
2438.193	712.20833
2440.633	731.54167
2443.071	718.20833
2445.508	697.20833
2447.943	702.875
2450.376	710.875
2452.808	720.54167
2455.238	704.54167
2457.667	746.20833
2460.093	710.54167
2462.519	701.54167
2464.942	704.54167
2467.365	728.54167
2469.785	716.54167
2472.204	727.20833
2474.621	708.875
2477.037	734.875
2479.451	703.54167
2481.863	702.54167
2484.274	702.875
2486.683	710.875
2489.091	729.54167
2491.497	718.20833
2493.901	713.54167
2496.304	722.54167
2498.705	715.20833
2501.105	713.54167
2503.503	742.54167
2505.899	722.54167
2508.294	731.875
2510.687	716.875
2513.079	720.875
2515.469	699.54167
2517.858	714.20833
2520.245	723.20833
2522.63	713.20833
2525.014	710.54167
2527.396	705.20833
2529.776	715.54167
2532.156	726.875
2534.533	715.875
2536.909	711.20833
2539.283	714.54167
2541.656	716.54167
2544.027	739.875
2546.397	719.54167
2548.765	731.875
2551.131	717.54167
2553.496	727.54167
2555.86	743.875
2558.221	729.54167
2560.582	730.20833
2562.94	723.54167
2565.298	726.54167
2567.653	751.875
2570.007	713.875
2572.36	743.20833
2574.711	724.875
2577.06	752.875
2579.408	732.875
2581.754	741.20833
2584.099	740.20833
2586.442	740.20833
2588.784	740.20833
2591.124	749.54167
2593.463	742.54167
2595.8	739.54167
2598.135	730.875
2600.469	750.54167
2602.802	760.20833
2605.133	755.20833
2607.462	740.875
2609.79	741.875
2612.116	754.875
2614.441	749.875
2616.764	745.20833
2619.086	751.54167
2621.406	751.875
2623.725	775.54167
2626.042	774.875
2628.358	768.875
2630.672	758.20833
2632.985	774.54167
2635.296	777.20833
2637.606	770.20833
2639.914	757.875
2642.22	769.54167
2644.525	768.875
2646.829	788.875
2649.131	791.54167
2651.432	791.20833
2653.731	781.20833
2656.028	815.20833
2658.324	801.875
2660.619	796.875
2662.912	807.20833
2665.204	795.20833
2667.494	808.20833
2669.782	799.54167
2672.07	814.20833
2674.355	819.875
2676.639	803.20833
2678.922	805.54167
2681.203	819.54167
2683.483	799.54167
2685.761	806.20833
2688.038	817.54167
2690.313	828.20833
2692.587	817.54167
2694.859	819.20833
2697.13	827.875
2699.399	833.875
2701.667	840.20833
2703.933	837.20833
2706.198	847.54167
2708.461	853.875
2710.723	848.875
2712.984	866.20833
2715.243	868.875
2717.5	865.20833
2719.757	880.20833
2722.011	884.54167
2724.264	884.875
2726.516	905.875
2728.766	889.20833
2731.015	892.54167
2733.262	897.54167
2735.508	896.875
2737.753	890.54167
2739.996	885.875
2742.237	876.875
2744.477	886.875
2746.716	878.20833
2748.953	875.875
2751.189	884.54167
2753.423	863.875
2755.656	873.54167
2757.887	858.54167
2760.117	881.54167
2762.346	867.54167
2764.573	869.54167
2766.798	877.20833
2769.022	879.20833
2771.245	871.54167
2773.467	883.875
2775.686	887.875
2777.905	886.875
2780.122	902.20833
2782.337	912.20833
2784.552	896.54167
2786.764	909.54167
2788.976	922.54167
2791.186	922.20833
2793.394	929.54167
2795.601	951.20833
2797.807	947.54167
2800.011	954.875
2802.214	979.20833
2804.415	995.875
2806.615	994.875
2808.814	994.20833
2811.011	995.20833
2813.206	995.20833
2815.401	1021.20833
2817.594	1024.54167
2819.785	1051.20833
2821.975	1022.20833
2824.164	1040.20833
2826.351	1068.875
2828.537	1089.875
2830.722	1113.875
2832.905	1103.20833
2835.086	1136.875
2837.267	1172.54167
2839.445	1198.20833
2841.623	1218.54167
2843.799	1238.54167
2845.974	1296.54167
2848.147	1347.20833
2850.319	1343.20833
2852.489	1403.20833
2854.659	1388.20833
2856.826	1422.875
2858.993	1451.20833
2861.158	1417.54167
2863.321	1430.20833
2865.483	1459.54167
2867.644	1467.20833
2869.804	1443.54167
2871.962	1440.20833
2874.118	1449.54167
2876.274	1447.20833
2878.428	1439.875
2880.58	1436.875
2882.731	1417.54167
2884.881	1425.20833
2887.03	1428.54167
2889.177	1422.54167
2891.322	1427.875
2893.467	1421.54167
2895.61	1422.54167
2897.751	1458.54167
2899.892	1444.875
2902.03	1487.875
2904.168	1471.20833
2906.304	1482.54167
2908.439	1515.20833
2910.572	1472.54167
2912.704	1505.875
2914.835	1503.20833
2916.965	1509.54167
2919.093	1516.20833
2921.219	1480.20833
2923.345	1489.875
2925.469	1476.54167
2927.591	1465.54167
2929.712	1424.875
2931.832	1418.20833
2933.951	1388.875
2936.068	1383.54167
2938.184	1347.54167
2940.299	1321.20833
2942.412	1307.875
2944.524	1261.20833
2946.634	1241.875
2948.744	1189.875
2950.851	1221.54167
2952.958	1185.54167
2955.063	1164.875
2957.167	1149.875
2959.269	1128.20833
2961.371	1143.875
2963.471	1099.54167
2965.569	1126.875
2967.666	1083.54167
2969.762	1062.54167
2971.857	1041.875
2973.95	1028.20833
2976.042	1019.20833
2978.133	994.875
2980.222	991.20833
2982.31	951.875
2984.396	947.54167
2986.482	938.20833
2988.566	950.54167
2990.648	925.875
2992.73	920.54167
2994.81	917.20833
2996.889	927.20833
2998.966	924.875
3001.042	915.20833
3003.117	905.20833
3005.191	907.54167
3007.263	911.54167
3009.334	901.54167
3011.403	892.20833
3013.472	866.875
3015.539	873.875
3017.604	876.20833
3019.669	827.875
3021.732	848.20833
3023.794	838.54167
3025.854	830.54167
3027.914	825.875
3029.971	832.54167
3032.028	831.54167
3034.083	831.875
3036.137	819.54167
3038.19	787.54167
3040.242	780.875
3042.292	757.20833
3044.341	763.54167
3046.388	765.20833
3048.435	735.875
3050.48	744.875
3052.524	745.54167
3054.566	710.54167
3056.607	727.20833
3058.647	718.875
3060.686	693.20833
3062.723	671.875
3064.759	641.54167
3066.794	1.54167
3068.828	-0.79167
3070.86	-2.79167
