-0.839	437.20833
3.438	477.875
7.711	135.20833
11.981	53.875
16.247	46.54167
20.509	46.54167
24.768	44.875
29.024	48.20833
33.276	43.20833
37.524	50.54167
41.769	40.20833
46.01	37.875
50.247	50.875
54.481	62.54167
58.712	66.20833
62.939	49.54167
67.162	57.54167
71.382	60.875
75.599	49.875
79.812	64.875
84.021	80.20833
88.227	57.54167
92.429	60.875
96.628	49.875
100.823	66.875
105.015	78.875
109.204	75.875
113.388	79.20833
117.57	72.875
121.748	91.875
125.922	83.54167
130.093	98.875
134.261	105.20833
138.425	99.20833
142.585	143.875
146.742	137.54167
150.896	169.54167
155.046	204.54167
159.193	334.875
163.336	567.875
167.476	1047.54167
171.613	1933.54167
175.746	3195.875
179.875	4777.54167
184.002	6227.20833
188.124	7193.875
192.244	7473.875
196.36	7343.875
200.472	7094.875
204.581	6899.54167
208.687	6636.54167
212.79	6528.20833
216.889	6526.54167
220.984	6541.54167
225.077	6584.20833
229.165	6645.875
233.251	6676.875
237.333	6673.54167
241.412	6648.875
245.487	6634.54167
249.559	6573.54167
253.628	6484.54167
257.694	6438.875
261.756	6409.20833
265.814	6268.20833
269.87	6136.20833
273.922	5961.875
277.97	5854.54167
282.016	5772.20833
286.058	5765.875
290.097	5829.20833
294.132	5869.875
298.164	5816.54167
302.193	5573.20833
306.219	5185.54167
310.241	4693.54167
314.26	4235.875
318.276	3863.54167
322.288	3589.54167
326.297	3367.54167
330.303	3231.54167
334.305	3111.54167
338.305	3030.54167
342.301	2992.54167
346.294	2959.54167
350.283	2911.54167
354.269	2876.20833
358.252	2863.875
362.232	2807.20833
366.209	2792.20833
370.182	2766.875
374.152	2755.54167
378.119	2754.875
382.083	2741.875
386.043	2742.875
390	2717.20833
393.954	2693.20833
397.905	2674.54167
401.852	2657.20833
405.797	2615.875
409.738	2586.20833
413.676	2563.54167
417.61	2559.875
421.542	2527.875
425.47	2527.54167
429.396	2499.875
433.318	2482.20833
437.236	2462.54167
441.152	2479.875
445.065	2414.54167
448.974	2419.20833
452.88	2400.875
456.783	2369.54167
460.683	2360.54167
464.58	2364.875
468.473	2371.875
472.364	2374.20833
476.251	2387.875
480.135	2388.20833
484.016	2414.54167
487.894	2445.875
491.769	2454.54167
495.641	2428.54167
499.509	2444.54167
503.375	2450.875
507.237	2421.875
511.096	2434.20833
514.952	2440.54167
518.805	2458.875
522.655	2450.20833
526.502	2420.20833
530.346	2419.20833
534.187	2458.875
538.024	2446.54167
541.859	2431.20833
545.69	2463.875
549.519	2455.20833
553.344	2413.875
557.166	2371.54167
560.985	2349.54167
564.802	2335.20833
568.615	2271.54167
572.425	2259.54167
576.232	2242.54167
580.036	2223.20833
583.836	2235.54167
587.634	2238.20833
591.429	2236.875
595.221	2285.54167
599.01	2333.54167
602.796	2346.20833
606.578	2377.875
610.358	2358.875
614.135	2348.875
617.909	2344.875
621.679	2330.875
625.447	2307.20833
629.212	2300.875
632.973	2320.54167
636.732	2322.54167
640.488	2323.20833
644.241	2280.54167
647.991	2294.875
651.737	2320.875
655.481	2289.875
659.222	2308.875
662.96	2297.54167
666.695	2319.875
670.427	2318.20833
674.156	2335.54167
677.882	2334.20833
681.605	2322.20833
685.325	2286.875
689.043	2280.20833
692.757	2286.875
696.468	2294.54167
700.177	2302.54167
703.882	2278.20833
707.585	2278.875
711.284	2283.20833
714.981	2273.54167
718.675	2287.20833
722.366	2320.875
726.054	2282.20833
729.739	2292.875
733.421	2296.54167
737.1	2283.54167
740.777	2312.54167
744.45	2334.54167
748.121	2328.54167
751.789	2405.20833
755.453	2393.54167
759.115	2412.875
762.774	2428.20833
766.431	2425.20833
770.084	2471.54167
773.734	2503.54167
777.382	2546.20833
781.027	2579.875
784.669	2585.54167
788.308	2604.875
791.944	2625.875
795.577	2627.875
799.208	2661.20833
802.835	2678.875
806.46	2698.20833
810.082	2716.875
813.701	2748.54167
817.317	2775.54167
820.931	2754.875
824.542	2761.20833
828.149	2727.875
831.754	2705.54167
835.357	2672.875
838.956	2649.20833
842.553	2661.54167
846.146	2643.20833
849.737	2631.20833
853.326	2646.875
856.911	2620.20833
860.493	2694.54167
864.073	2705.54167
867.65	2748.875
871.225	2777.875
874.796	2785.54167
878.365	2805.54167
881.931	2817.875
885.494	2839.20833
889.054	2815.875
892.612	2826.875
896.166	2809.54167
899.719	2759.875
903.268	2756.20833
906.814	2731.20833
910.358	2724.875
913.899	2695.54167
917.438	2715.875
920.973	2709.20833
924.506	2754.875
928.036	2805.54167
931.564	2834.20833
935.088	2877.875
938.61	2880.20833
942.129	2887.875
945.646	2968.875
949.16	3045.54167
952.671	3093.54167
956.179	3151.875
959.685	3128.20833
963.188	3135.875
966.688	3067.54167
970.185	2994.875
973.68	2918.875
977.173	2874.54167
980.662	2855.20833
984.149	2875.20833
987.633	2859.54167
991.114	2909.54167
994.593	2996.20833
998.069	3124.54167
1001.542	3215.54167
1005.013	3133.20833
1008.481	2945.875
1011.947	2866.875
1015.409	2875.54167
1018.869	2864.20833
1022.327	2876.54167
1025.782	2869.875
1029.234	2866.20833
1032.683	2847.875
1036.13	2739.20833
1039.574	2642.875
1043.016	2576.54167
1046.455	2506.20833
1049.891	2475.875
1053.325	2494.54167
1056.756	2504.20833
1060.184	2509.875
1063.61	2533.875
1067.033	2545.20833
1070.454	2542.20833
1073.872	2597.875
1077.287	2595.20833
1080.7	2586.54167
1084.11	2577.54167
1087.517	2568.20833
1090.922	2543.20833
1094.325	2511.875
1097.724	2488.54167
1101.122	2471.20833
1104.516	2483.54167
1107.908	2493.875
1111.298	2529.54167
1114.684	2564.875
1118.069	2568.875
1121.45	2614.875
1124.83	2592.20833
1128.206	2614.875
1131.58	2690.54167
1134.951	2752.54167
1138.32	2841.54167
1141.687	2958.875
1145.05	3044.875
1148.412	3055.20833
1151.77	3048.20833
1155.126	3018.875
1158.48	3008.20833
1161.831	3052.20833
1165.18	3036.20833
1168.525	3083.54167
1171.869	3124.54167
1175.21	3146.54167
1178.548	3164.20833
1181.884	3224.20833
1185.217	3240.20833
1188.548	3283.54167
1191.877	3370.54167
1195.202	3447.875
1198.526	3492.875
1201.846	3528.20833
1205.165	3534.20833
1208.48	3508.54167
1211.794	3498.54167
1215.104	3530.20833
1218.413	3537.54167
1221.719	3515.54167
1225.022	3472.54167
1228.323	3424.54167
1231.621	3425.875
1234.917	3391.54167
1238.21	3451.20833
1241.501	3408.875
1244.79	3382.54167
1248.076	3396.54167
1251.359	3429.54167
1254.64	3489.54167
1257.919	3517.54167
1261.195	3581.875
1264.468	3670.54167
1267.74	3726.20833
1271.008	3720.20833
1274.275	3722.875
1277.538	3667.875
1280.8	3665.20833
1284.059	3675.875
1287.315	3698.875
1290.569	3735.20833
1293.821	3735.20833
1297.07	3740.20833
1300.317	3800.875
1303.562	3749.54167
1306.803	3738.54167
1310.043	3693.54167
1313.28	3667.20833
1316.515	3629.54167
1319.747	3596.875
1322.977	3548.20833
1326.204	3506.54167
1329.429	3462.875
1332.652	3427.20833
1335.872	3407.875
1339.09	3373.20833
1342.306	3370.875
1345.519	3341.20833
1348.729	3314.20833
1351.938	3300.20833
1355.144	3278.54167
1358.347	3226.875
1361.548	3221.20833
1364.747	3251.875
1367.944	3225.20833
1371.138	3229.875
1374.329	3246.875
1377.518	3306.54167
1380.705	3353.54167
1383.89	3356.54167
1387.072	3222.875
1390.252	3096.20833
1393.429	2984.54167
1396.605	2878.20833
1399.777	2775.875
1402.948	2753.20833
1406.116	2753.20833
1409.282	2752.54167
1412.445	2763.20833
1415.606	2779.20833
1418.765	2823.875
1421.921	2885.54167
1425.075	2974.875
1428.227	3079.875
1431.376	3229.20833
1434.524	3353.54167
1437.668	3448.20833
1440.811	3474.54167
1443.951	3482.20833
1447.089	3493.54167
1450.224	3512.875
1453.357	3478.875
1456.488	3446.875
1459.617	3398.54167
1462.743	3332.54167
1465.867	3274.54167
1468.989	3237.20833
1472.108	3180.20833
1475.225	3117.875
1478.34	3072.54167
1481.453	3066.875
1484.563	3072.20833
1487.671	3117.875
1490.776	3183.875
1493.88	3230.54167
1496.981	3318.20833
1500.08	3371.54167
1503.176	3408.54167
1506.271	3440.20833
1509.363	3488.54167
1512.452	3537.20833
1515.54	3579.20833
1518.625	3666.20833
1521.708	3796.875
1524.789	3960.875
1527.867	4169.875
1530.944	4417.54167
1534.018	4625.20833
1537.089	4781.875
1540.159	4772.54167
1543.226	4655.875
1546.291	4507.54167
1549.354	4381.54167
1552.415	4243.54167
1555.473	4128.54167
1558.529	4064.54167
1561.583	4012.20833
1564.634	3989.875
1567.684	3990.54167
1570.731	3999.20833
1573.776	4041.20833
1576.819	4083.20833
1579.859	4134.875
1582.898	4163.20833
1585.934	4187.54167
1588.968	4213.875
1591.999	4204.20833
1595.029	4187.54167
1598.056	4224.54167
1601.081	4195.20833
1604.104	4200.54167
1607.125	4145.20833
1610.144	4079.875
1613.16	4000.54167
1616.174	3928.20833
1619.186	3831.875
1622.196	3737.54167
1625.203	3668.20833
1628.209	3601.20833
1631.212	3609.875
1634.213	3579.20833
1637.212	3575.875
1640.209	3535.54167
1643.203	3443.54167
1646.196	3336.20833
1649.186	3215.875
1652.174	3125.20833
1655.16	3033.875
1658.144	2930.20833
1661.125	2779.875
1664.105	2664.54167
1667.082	2525.54167
1670.057	2382.54167
1673.03	2224.20833
1676.001	2073.20833
1678.97	1939.20833
1681.937	1811.54167
1684.901	1705.54167
1687.863	1643.54167
1690.824	1570.20833
1693.782	1541.20833
1696.738	1468.20833
1699.692	1453.875
1702.643	1409.54167
1705.593	1393.875
1708.54	1377.54167
1711.486	1381.875
1714.429	1358.20833
1717.37	1332.54167
1720.309	1300.54167
1723.246	1309.875
1726.181	1269.54167
1729.113	1271.54167
1732.044	1243.875
1734.972	1243.20833
1737.899	1240.54167
1740.823	1227.54167
1743.745	1228.54167
1746.665	1191.54167
1749.583	1178.875
1752.499	1158.20833
1755.413	1136.20833
1758.325	1104.875
1761.235	1124.20833
1764.142	1082.54167
1767.048	1070.20833
1769.951	1070.20833
1772.852	1071.54167
1775.752	1062.20833
1778.649	1051.875
1781.544	1060.875
1784.437	1020.20833
1787.328	1043.20833
1790.217	1028.875
1793.104	995.54167
1795.989	992.54167
1798.872	984.54167
1801.753	1012.54167
1804.631	1006.54167
1807.508	1009.20833
1810.383	1004.20833
1813.255	994.20833
1816.126	989.875
1818.994	973.54167
1821.861	985.875
1824.725	981.20833
1827.587	972.20833
1830.448	964.54167
1833.306	942.54167
1836.162	955.54167
1839.017	940.20833
1841.869	946.54167
1844.719	936.54167
1847.567	924.20833
1850.414	916.875
1853.258	933.20833
1856.1	933.54167
1858.94	946.875
1861.778	932.54167
1864.614	915.54167
1867.448	921.875
1870.28	916.875
1873.111	946.54167
1875.939	920.54167
1878.765	931.875
1881.589	915.20833
1884.411	903.875
1887.231	927.54167
1890.049	903.20833
1892.865	899.20833
1895.68	892.875
1898.492	913.875
1901.302	885.875
1904.11	891.20833
1906.916	874.875
1909.721	876.875
1912.523	880.875
1915.323	870.875
1918.122	868.20833
1920.918	877.875
1923.712	850.54167
1926.505	861.54167
1929.295	854.54167
1932.084	873.54167
1934.87	865.54167
1937.655	849.875
1940.438	853.875
1943.218	858.54167
1945.997	852.875
1948.774	870.54167
1951.549	853.875
1954.322	841.54167
1957.093	862.20833
1959.862	844.875
1962.629	848.20833
1965.394	820.20833
1968.157	818.20833
1970.918	821.54167
1973.678	832.20833
1976.435	825.875
1979.19	823.875
1981.944	830.875
1984.696	808.54167
1987.445	813.54167
1990.193	806.875
1992.939	815.875
1995.683	816.20833
1998.425	800.20833
2001.165	818.54167
2003.903	805.20833
2006.639	800.20833
2009.374	792.54167
2012.106	794.54167
2014.837	782.54167
2017.566	798.20833
2020.292	798.20833
2023.017	801.54167
2025.74	780.54167
2028.461	781.54167
2031.18	793.54167
2033.898	768.875
2036.613	785.875
2039.327	787.20833
2042.038	770.20833
2044.748	772.875
2047.456	772.875
2050.162	768.875
2052.866	771.54167
2055.568	773.875
2058.268	755.54167
2060.967	768.54167
2063.663	745.875
2066.358	751.20833
2069.051	750.54167
2071.742	754.875
2074.431	750.54167
2077.118	743.54167
2079.804	736.875
2082.487	745.20833
2085.169	756.20833
2087.849	784.875
2090.527	757.54167
2093.203	766.20833
2095.877	765.875
2098.55	758.875
2101.22	781.20833
2103.889	779.20833
2106.556	770.20833
2109.221	795.20833
2111.884	821.20833
2114.546	868.875
2117.205	921.54167
2119.863	1013.20833
2122.519	1063.54167
2125.173	1136.54167
2127.825	1216.20833
2130.475	1227.875
2133.124	1210.875
2135.771	1150.20833
2138.416	1115.54167
2141.059	1027.20833
2143.7	985.875
2146.339	918.875
2148.977	871.54167
2151.613	863.54167
2154.247	835.54167
2156.879	821.20833
2159.51	797.54167
2162.138	788.20833
2164.765	781.54167
2167.39	761.875
2170.013	791.54167
2172.634	772.54167
2175.254	758.875
2177.872	783.875
2180.488	739.875
2183.102	745.54167
2185.714	731.20833
2188.325	714.875
2190.934	720.54167
2193.541	722.20833
2196.146	706.875
2198.75	683.875
2201.351	690.20833
2203.951	676.54167
2206.549	688.20833
2209.146	667.875
2211.74	673.54167
2214.333	674.54167
2216.924	661.875
2219.514	669.20833
2222.101	652.20833
2224.687	664.54167
2227.271	649.20833
2229.853	642.54167
2232.433	629.875
2235.012	663.20833
2237.589	648.875
2240.164	654.20833
2242.738	648.54167
2245.309	635.54167
2247.879	652.54167
2250.448	652.20833
2253.014	621.20833
2255.579	607.20833
2258.142	616.54167
2260.703	602.54167
2263.262	598.20833
2265.82	595.20833
2268.376	600.20833
2270.93	594.875
2273.483	574.54167
2276.033	598.54167
2278.583	578.54167
2281.13	575.875
2283.675	585.20833
2286.219	581.54167
2288.761	584.20833
2291.302	578.20833
2293.841	575.875
2296.377	554.54167
2298.913	561.875
2301.446	578.54167
2303.978	561.54167
2306.508	554.54167
2309.037	555.875
2311.563	559.20833
2314.088	566.875
2316.612	544.875
2319.133	547.54167
2321.653	555.20833
2324.171	545.20833
2326.688	563.54167
2329.202	540.54167
2331.715	542.20833
2334.227	543.54167
2336.736	540.54167
2339.244	534.20833
2341.751	523.54167
2344.255	537.20833
2346.758	525.875
2349.259	527.54167
2351.759	529.54167
2354.257	513.20833
2356.753	522.54167
2359.247	508.875
2361.74	532.54167
2364.231	517.54167
2366.721	524.20833
2369.209	515.875
2371.695	519.20833
2374.179	509.20833
2376.662	508.875
2379.143	524.875
2381.622	514.54167
2384.1	517.54167
2386.576	505.54167
2389.051	525.54167
2391.524	524.20833
2393.995	521.20833
2396.464	502.54167
2398.932	494.875
2401.398	503.54167
2403.863	509.20833
2406.325	497.875
2408.787	495.20833
2411.246	492.875
2413.704	495.20833
2416.16	485.20833
2418.615	486.20833
2421.068	494.875
2423.519	486.20833
2425.969	483.875
2428.417	501.20833
2430.863	506.20833
2433.308	496.20833
2435.751	489.54167
2438.193	476.20833
2440.633	485.54167
2443.071	492.20833
2445.508	471.20833
2447.943	473.20833
2450.376	467.20833
2452.808	482.20833
2455.238	472.875
2457.667	503.20833
2460.093	475.875
2462.519	465.875
2464.942	483.20833
2467.365	481.875
2469.785	474.20833
2472.204	483.875
2474.621	466.875
2477.037	482.875
2479.451	468.20833
2481.863	455.54167
2484.274	451.54167
2486.683	464.20833
2489.091	474.875
2491.497	463.875
2493.901	458.20833
2496.304	461.875
2498.705	467.875
2501.105	454.20833
2503.503	479.875
2505.899	451.54167
2508.294	474.54167
2510.687	449.54167
2513.079	444.54167
2515.469	440.875
2517.858	455.875
2520.245	471.20833
2522.63	436.54167
2525.014	449.20833
2527.396	441.20833
2529.776	433.54167
2532.156	447.875
2534.533	441.20833
2536.909	449.54167
2539.283	432.54167
2541.656	431.875
2544.027	457.875
2546.397	439.54167
2548.765	443.20833
2551.131	438.54167
2553.496	437.54167
2555.86	442.54167
2558.221	430.54167
2560.582	436.54167
2562.94	420.54167
2565.298	436.20833
2567.653	449.54167
2570.007	419.54167
2572.36	442.54167
2574.711	430.20833
2577.06	445.20833
2579.408	427.54167
2581.754	424.54167
2584.099	430.54167
2586.442	430.875
2588.784	429.54167
2591.124	431.20833
2593.463	428.20833
2595.8	425.54167
2598.135	410.20833
2600.469	419.54167
2602.802	441.20833
2605.133	447.875
2607.462	405.20833
2609.79	413.20833
2612.116	424.20833
2614.441	432.875
2616.764	422.54167
2619.086	423.20833
2621.406	416.875
2623.725	434.54167
2626.042	427.54167
2628.358	419.54167
2630.672	411.54167
2632.985	429.54167
2635.296	426.54167
2637.606	422.54167
2639.914	415.54167
2642.22	426.54167
2644.525	418.20833
2646.829	431.54167
2649.131	436.20833
2651.432	435.20833
2653.731	424.20833
2656.028	428.54167
2658.324	431.54167
2660.619	418.875
2662.912	435.875
2665.204	429.875
2667.494	433.54167
2669.782	421.20833
2672.07	431.875
2674.355	441.20833
2676.639	437.54167
2678.922	417.54167
2681.203	437.20833
2683.483	418.20833
2685.761	415.20833
2688.038	438.20833
2690.313	454.20833
2692.587	433.20833
2694.859	427.54167
2697.13	436.875
2699.399	437.20833
2701.667	444.875
2703.933	450.875
2706.198	447.875
2708.461	452.20833
2710.723	463.20833
2712.984	447.20833
2715.243	455.54167
2717.5	460.20833
2719.757	477.20833
2722.011	463.20833
2724.264	462.875
2726.516	485.20833
2728.766	466.20833
2731.015	471.875
2733.262	464.54167
2735.508	473.54167
2737.753	459.54167
2739.996	454.875
2742.237	442.54167
2744.477	463.54167
2746.716	466.54167
2748.953	448.20833
2751.189	460.54167
2753.423	444.20833
2755.656	433.54167
2757.887	432.54167
2760.117	436.875
2762.346	431.54167
2764.573	432.20833
2766.798	427.54167
2769.022	443.20833
2771.245	432.875
2773.467	438.875
2775.686	438.54167
2777.905	443.54167
2780.122	448.54167
2782.337	456.875
2784.552	450.54167
2786.764	461.875
2788.976	458.54167
2791.186	468.54167
2793.394	472.20833
2795.601	471.875
2797.807	482.20833
2800.011	495.20833
2802.214	510.54167
2804.415	501.875
2806.615	503.54167
2808.814	520.875
2811.011	526.875
2813.206	522.54167
2815.401	544.54167
2817.594	550.20833
2819.785	563.20833
2821.975	557.54167
2824.164	568.20833
2826.351	582.875
2828.537	618.20833
2830.722	622.20833
2832.905	617.54167
2835.086	668.54167
2837.267	705.875
2839.445	729.54167
2841.623	746.54167
2843.799	782.20833
2845.974	835.875
2848.147	881.875
2850.319	887.875
2852.489	935.20833
2854.659	926.54167
2856.826	956.20833
2858.993	979.20833
2861.158	971.20833
2863.321	961.20833
2865.483	972.54167
2867.644	986.875
2869.804	984.20833
2871.962	971.54167
2874.118	986.54167
2876.274	978.54167
2878.428	981.54167
2880.58	977.875
2882.731	962.875
2884.881	978.54167
2887.03	974.54167
2889.177	976.875
2891.322	980.20833
2893.467	971.20833
2895.61	988.20833
2897.751	1007.20833
2899.892	1005.54167
2902.03	1009.875
2904.168	1026.54167
2906.304	1014.54167
2908.439	1039.20833
2910.572	1005.20833
2912.704	1051.54167
2914.835	1044.54167
2916.965	1052.20833
2919.093	1059.54167
2921.219	1018.875
2923.345	1020.20833
2925.469	1003.54167
2927.591	998.20833
2929.712	957.20833
2931.832	963.20833
2933.951	938.20833
2936.068	900.875
2938.184	880.54167
2940.299	838.875
2942.412	827.875
2944.524	788.54167
2946.634	773.20833
2948.744	703.875
2950.851	742.875
2952.958	682.875
2955.063	663.54167
2957.167	644.875
2959.269	626.20833
2961.371	635.20833
2963.471	588.875
2965.569	590.875
2967.666	573.54167
2969.762	549.20833
2971.857	530.20833
2973.95	512.20833
2976.042	519.875
2978.133	488.875
2980.222	473.54167
2982.31	452.20833
2984.396	444.20833
2986.482	442.54167
2988.566	443.20833
2990.648	423.54167
2992.73	422.875
2994.81	401.20833
2996.889	407.54167
2998.966	402.875
3001.042	399.875
3003.117	393.875
3005.191	392.875
3007.263	393.875
3009.334	382.54167
3011.403	376.20833
3013.472	356.20833
3015.539	367.875
3017.604	379.875
3019.669	334.875
3021.732	338.875
3023.794	353.54167
3025.854	330.54167
3027.914	333.20833
3029.971	334.20833
3032.028	326.20833
3034.083	323.875
3036.137	323.875
3038.19	312.54167
3040.242	308.20833
3042.292	291.54167
3044.341	295.54167
3046.388	305.875
3048.435	284.54167
3050.48	297.875
3052.524	298.20833
3054.566	270.875
3056.607	282.20833
3058.647	271.875
3060.686	255.54167
3062.723	255.54167
3064.759	256.20833
3066.794	1.20833
3068.828	-4.79167
3070.86	-2.79167
