-0.839	394.70833
3.438	426.70833
7.711	120.70833
11.981	54.70833
16.247	45.04167
20.509	41.375
24.768	41.70833
29.024	47.04167
33.276	42.04167
37.524	49.375
41.769	40.70833
46.01	38.375
50.247	47.70833
54.481	60.375
58.712	65.70833
62.939	47.70833
67.162	61.04167
71.382	58.70833
75.599	46.04167
79.812	61.375
84.021	81.375
88.227	60.04167
92.429	62.04167
96.628	44.70833
100.823	63.375
105.015	75.04167
109.204	79.04167
113.388	80.375
117.57	71.375
121.748	85.70833
125.922	79.04167
130.093	100.375
134.261	103.04167
138.425	100.375
142.585	143.70833
146.742	144.375
150.896	161.70833
155.046	202.70833
159.193	328.70833
163.336	548.04167
167.476	1039.70833
171.613	1912.04167
175.746	3174.375
179.875	4680.375
184.002	6157.70833
188.124	7074.70833
192.244	7390.375
196.36	7282.375
200.472	7018.375
204.581	6821.375
208.687	6568.375
212.79	6432.70833
216.889	6442.04167
220.984	6465.04167
225.077	6463.04167
229.165	6473.375
233.251	6475.70833
237.333	6462.375
241.412	6405.70833
245.487	6349.375
249.559	6265.04167
253.628	6248.375
257.694	6183.04167
261.756	6128.375
265.814	6032.375
269.87	5872.70833
273.922	5712.375
277.97	5638.375
282.016	5610.375
286.058	5613.375
290.097	5714.04167
294.132	5743.375
298.164	5698.70833
302.193	5415.70833
306.219	5049.70833
310.241	4633.70833
314.26	4209.70833
318.276	3913.375
322.288	3661.375
326.297	3476.70833
330.303	3329.375
334.305	3210.70833
338.305	3138.04167
342.301	3118.70833
346.294	3067.70833
350.283	3042.70833
354.269	2997.04167
358.252	2963.70833
362.232	2957.375
366.209	2923.70833
370.182	2884.04167
374.152	2857.70833
378.119	2877.70833
382.083	2822.04167
386.043	2847.375
390	2835.70833
393.954	2791.375
397.905	2773.375
401.852	2784.375
405.797	2741.375
409.738	2726.04167
413.676	2719.04167
417.61	2697.375
421.542	2677.04167
425.47	2663.70833
429.396	2622.04167
433.318	2612.70833
437.236	2640.70833
441.152	2644.70833
445.065	2570.375
448.974	2577.375
452.88	2543.375
456.783	2543.375
460.683	2519.04167
464.58	2518.375
468.473	2506.04167
472.364	2527.04167
476.251	2543.70833
480.135	2575.04167
484.016	2590.375
487.894	2606.375
491.769	2625.70833
495.641	2626.375
499.509	2618.04167
503.375	2607.70833
507.237	2622.375
511.096	2632.70833
514.952	2731.04167
518.805	2843.04167
522.655	2914.375
526.502	2718.04167
530.346	2618.04167
534.187	2620.04167
538.024	2629.04167
541.859	2626.375
545.69	2653.375
549.519	2608.375
553.344	2595.375
557.166	2584.70833
560.985	2550.375
564.802	2493.375
568.615	2461.70833
572.425	2431.70833
576.232	2423.375
580.036	2394.04167
583.836	2404.70833
587.634	2419.04167
591.429	2409.04167
595.221	2449.375
599.01	2479.04167
602.796	2507.04167
606.578	2539.375
610.358	2527.375
614.135	2523.70833
617.909	2487.70833
621.679	2489.375
625.447	2463.70833
629.212	2475.375
632.973	2486.375
636.732	2466.04167
640.488	2518.375
644.241	2449.70833
647.991	2447.04167
651.737	2469.375
655.481	2443.375
659.222	2455.04167
662.96	2431.375
666.695	2468.04167
670.427	2483.04167
674.156	2486.375
677.882	2497.04167
681.605	2485.375
685.325	2448.70833
689.043	2429.70833
692.757	2430.04167
696.468	2439.04167
700.177	2457.04167
703.882	2434.04167
707.585	2422.375
711.284	2415.70833
714.981	2427.375
718.675	2456.04167
722.366	2457.375
726.054	2440.04167
729.739	2452.375
733.421	2470.375
737.1	2458.04167
740.777	2485.375
744.45	2470.375
748.121	2512.70833
751.789	2550.70833
755.453	2528.70833
759.115	2554.04167
762.774	2587.70833
766.431	2607.375
770.084	2636.375
773.734	2641.375
777.382	2714.375
781.027	2694.375
784.669	2732.375
788.308	2759.04167
791.944	2774.04167
795.577	2798.375
799.208	2805.375
802.835	2841.375
806.46	2853.375
810.082	2851.04167
813.701	2887.04167
817.317	2930.375
820.931	2919.70833
824.542	2919.375
828.149	2893.04167
831.754	2856.375
835.357	2855.04167
838.956	2860.70833
842.553	2879.375
846.146	2827.04167
849.737	2835.375
853.326	2837.04167
856.911	2827.04167
860.493	2888.70833
864.073	2916.04167
867.65	2937.04167
871.225	3004.375
874.796	2960.375
878.365	3004.04167
881.931	3017.70833
885.494	3047.70833
889.054	3039.375
892.612	3038.70833
896.166	2991.375
899.719	2974.375
903.268	2958.375
906.814	2926.70833
910.358	2909.04167
913.899	2880.375
917.438	2902.375
920.973	2909.70833
924.506	2941.70833
928.036	2964.04167
931.564	3029.70833
935.088	3038.70833
938.61	3045.04167
942.129	3079.375
945.646	3163.04167
949.16	3224.70833
952.671	3288.375
956.179	3298.70833
959.685	3286.04167
963.188	3260.70833
966.688	3194.375
970.185	3112.375
973.68	3065.04167
977.173	3045.375
980.662	2985.04167
984.149	2986.70833
987.633	2982.375
991.114	3027.70833
994.593	3126.04167
998.069	3227.04167
1001.542	3326.04167
1005.013	3250.04167
1008.481	3081.04167
1011.947	3022.04167
1015.409	3009.375
1018.869	3004.70833
1022.327	3003.04167
1025.782	2974.04167
1029.234	2986.70833
1032.683	2935.70833
1036.13	2837.04167
1039.574	2744.04167
1043.016	2674.70833
1046.455	2612.70833
1049.891	2595.375
1053.325	2617.375
1056.756	2607.375
1060.184	2639.70833
1063.61	2659.04167
1067.033	2679.70833
1070.454	2679.375
1073.872	2721.04167
1077.287	2710.375
1080.7	2726.375
1084.11	2713.70833
1087.517	2694.04167
1090.922	2654.375
1094.325	2645.375
1097.724	2612.375
1101.122	2610.04167
1104.516	2608.04167
1107.908	2630.70833
1111.298	2676.04167
1114.684	2690.04167
1118.069	2733.70833
1121.45	2785.04167
1124.83	2772.04167
1128.206	2818.04167
1131.58	2876.70833
1134.951	2966.70833
1138.32	3070.375
1141.687	3166.70833
1145.05	3281.375
1148.412	3299.375
1151.77	3287.375
1155.126	3268.375
1158.48	3283.70833
1161.831	3306.04167
1165.18	3362.04167
1168.525	3361.70833
1171.869	3396.375
1175.21	3412.70833
1178.548	3433.70833
1181.884	3452.04167
1185.217	3448.04167
1188.548	3523.375
1191.877	3581.70833
1195.202	3654.375
1198.526	3710.70833
1201.846	3748.375
1205.165	3721.375
1208.48	3737.375
1211.794	3693.04167
1215.104	3698.375
1218.413	3688.70833
1221.719	3687.04167
1225.022	3666.375
1228.323	3601.70833
1231.621	3593.04167
1234.917	3566.04167
1238.21	3610.70833
1241.501	3590.04167
1244.79	3585.375
1248.076	3593.04167
1251.359	3629.04167
1254.64	3708.375
1257.919	3715.375
1261.195	3793.375
1264.468	3869.04167
1267.74	3911.04167
1271.008	3922.04167
1274.275	3897.70833
1277.538	3858.04167
1280.8	3852.375
1284.059	3863.375
1287.315	3919.70833
1290.569	3937.70833
1293.821	3950.375
1297.07	3970.04167
1300.317	3951.70833
1303.562	3922.375
1306.803	3906.375
1310.043	3858.04167
1313.28	3807.375
1316.515	3782.70833
1319.747	3777.70833
1322.977	3716.70833
1326.204	3680.375
1329.429	3606.70833
1332.652	3608.375
1335.872	3585.375
1339.09	3560.375
1342.306	3547.375
1345.519	3501.04167
1348.729	3492.70833
1351.938	3477.70833
1355.144	3430.04167
1358.347	3371.375
1361.548	3370.04167
1364.747	3397.70833
1367.944	3378.70833
1371.138	3406.375
1374.329	3410.375
1377.518	3475.375
1380.705	3496.70833
1383.89	3464.04167
1387.072	3365.04167
1390.252	3232.375
1393.429	3124.70833
1396.605	3051.375
1399.777	2944.375
1402.948	2894.70833
1406.116	2873.04167
1409.282	2888.70833
1412.445	2902.04167
1415.606	2933.70833
1418.765	2960.04167
1421.921	3026.04167
1425.075	3105.70833
1428.227	3202.375
1431.376	3363.04167
1434.524	3464.70833
1437.668	3538.375
1440.811	3585.04167
1443.951	3615.04167
1447.089	3623.04167
1450.224	3601.375
1453.357	3598.04167
1456.488	3567.375
1459.617	3516.70833
1462.743	3475.04167
1465.867	3421.375
1468.989	3355.04167
1472.108	3342.04167
1475.225	3295.70833
1478.34	3256.04167
1481.453	3252.04167
1484.563	3276.04167
1487.671	3319.70833
1490.776	3384.375
1493.88	3475.04167
1496.981	3520.375
1500.08	3601.375
1503.176	3657.04167
1506.271	3686.375
1509.363	3741.04167
1512.452	3799.70833
1515.54	3831.04167
1518.625	3893.04167
1521.708	4002.375
1524.789	4183.375
1527.867	4339.04167
1530.944	4597.04167
1534.018	4809.375
1537.089	4927.375
1540.159	4958.70833
1543.226	4938.04167
1546.291	4779.70833
1549.354	4647.375
1552.415	4540.375
1555.473	4435.375
1558.529	4371.04167
1561.583	4332.04167
1564.634	4312.70833
1567.684	4306.04167
1570.731	4321.375
1573.776	4368.04167
1576.819	4412.375
1579.859	4434.375
1582.898	4498.70833
1585.934	4507.70833
1588.968	4518.375
1591.999	4514.04167
1595.029	4481.70833
1598.056	4490.375
1601.081	4515.04167
1604.104	4476.375
1607.125	4398.04167
1610.144	4319.375
1613.16	4205.04167
1616.174	4120.04167
1619.186	4011.04167
1622.196	3898.70833
1625.203	3818.375
1628.209	3737.70833
1631.212	3700.04167
1634.213	3680.04167
1637.212	3626.04167
1640.209	3575.70833
1643.203	3501.04167
1646.196	3344.375
1649.186	3213.375
1652.174	3126.375
1655.16	3000.04167
1658.144	2873.04167
1661.125	2749.70833
1664.105	2624.375
1667.082	2497.375
1670.057	2357.375
1673.03	2236.04167
1676.001	2096.375
1678.97	1987.70833
1681.937	1852.70833
1684.901	1780.70833
1687.863	1733.375
1690.824	1662.70833
1693.782	1625.70833
1696.738	1566.70833
1699.692	1544.375
1702.643	1493.70833
1705.593	1501.04167
1708.54	1472.70833
1711.486	1465.375
1714.429	1432.04167
1717.37	1415.04167
1720.309	1390.04167
1723.246	1406.375
1726.181	1368.70833
1729.113	1379.04167
1732.044	1363.70833
1734.972	1348.70833
1737.899	1335.70833
1740.823	1320.375
1743.745	1330.70833
1746.665	1281.70833
1749.583	1275.375
1752.499	1237.375
1755.413	1238.375
1758.325	1217.375
1761.235	1210.375
1764.142	1180.04167
1767.048	1171.70833
1769.951	1168.70833
1772.852	1163.70833
1775.752	1164.70833
1778.649	1163.70833
1781.544	1150.04167
1784.437	1132.375
1787.328	1140.375
1790.217	1130.375
1793.104	1103.375
1795.989	1105.375
1798.872	1105.04167
1801.753	1121.04167
1804.631	1102.04167
1807.508	1116.70833
1810.383	1102.375
1813.255	1093.375
1816.126	1094.70833
1818.994	1084.70833
1821.861	1082.04167
1824.725	1078.70833
1827.587	1077.04167
1830.448	1067.375
1833.306	1043.70833
1836.162	1064.70833
1839.017	1043.70833
1841.869	1053.04167
1844.719	1037.04167
1847.567	1026.04167
1850.414	1028.70833
1853.258	1034.375
1856.1	1046.04167
1858.94	1040.375
1861.778	1029.04167
1864.614	1020.70833
1867.448	1024.04167
1870.28	1014.70833
1873.111	1051.375
1875.939	1049.04167
1878.765	1048.70833
1881.589	1018.04167
1884.411	1025.70833
1887.231	1028.70833
1890.049	1014.70833
1892.865	1009.375
1895.68	1004.70833
1898.492	1012.04167
1901.302	992.375
1904.11	995.04167
1906.916	992.04167
1909.721	982.375
1912.523	986.375
1915.323	974.375
1918.122	988.04167
1920.918	981.375
1923.712	960.70833
1926.505	969.70833
1929.295	954.70833
1932.084	977.04167
1934.87	975.375
1937.655	964.04167
1940.438	964.04167
1943.218	961.375
1945.997	959.04167
1948.774	976.04167
1951.549	972.375
1954.322	958.04167
1957.093	961.375
1959.862	946.04167
1962.629	951.375
1965.394	953.70833
1968.157	933.375
1970.918	952.70833
1973.678	944.70833
1976.435	947.375
1979.19	936.04167
1981.944	938.375
1984.696	926.04167
1987.445	923.04167
1990.193	923.70833
1992.939	957.375
1995.683	934.04167
1998.425	905.04167
2001.165	940.70833
2003.903	912.375
2006.639	917.375
2009.374	909.375
2012.106	919.375
2014.837	903.375
2017.566	921.70833
2020.292	918.04167
2023.017	909.70833
2025.74	914.70833
2028.461	910.375
2031.18	907.70833
2033.898	884.70833
2036.613	909.375
2039.327	914.375
2042.038	900.70833
2044.748	899.04167
2047.456	901.70833
2050.162	885.04167
2052.866	895.04167
2055.568	890.375
2058.268	895.375
2060.967	890.375
2063.663	870.375
2066.358	891.04167
2069.051	881.375
2071.742	890.375
2074.431	899.70833
2077.118	873.375
2079.804	884.375
2082.487	880.375
2085.169	891.70833
2087.849	904.70833
2090.527	891.70833
2093.203	914.70833
2095.877	899.375
2098.55	894.04167
2101.22	911.70833
2103.889	928.04167
2106.556	925.04167
2109.221	954.70833
2111.884	974.70833
2114.546	1047.70833
2117.205	1087.70833
2119.863	1165.375
2122.519	1238.04167
2125.173	1297.70833
2127.825	1358.375
2130.475	1365.04167
2133.124	1340.375
2135.771	1271.375
2138.416	1227.375
2141.059	1150.375
2143.7	1127.70833
2146.339	1057.04167
2148.977	1012.70833
2151.613	1005.04167
2154.247	978.04167
2156.879	972.375
2159.51	940.04167
2162.138	933.375
2164.765	938.04167
2167.39	906.04167
2170.013	937.375
2172.634	919.04167
2175.254	899.375
2177.872	933.375
2180.488	877.70833
2183.102	885.04167
2185.714	876.70833
2188.325	855.375
2190.934	871.70833
2193.541	853.04167
2196.146	840.04167
2198.75	841.04167
2201.351	850.04167
2203.951	834.375
2206.549	847.375
2209.146	833.04167
2211.74	825.04167
2214.333	842.375
2216.924	799.04167
2219.514	831.70833
2222.101	812.375
2224.687	814.70833
2227.271	793.70833
2229.853	803.04167
2232.433	792.70833
2235.012	805.375
2237.589	807.04167
2240.164	820.70833
2242.738	798.70833
2245.309	786.04167
2247.879	792.04167
2250.448	790.70833
2253.014	780.04167
2255.579	758.04167
2258.142	753.70833
2260.703	748.375
2263.262	757.375
2265.82	758.375
2268.376	764.04167
2270.93	744.375
2273.483	739.70833
2276.033	750.04167
2278.583	752.70833
2281.13	748.70833
2283.675	725.375
2286.219	736.70833
2288.761	744.04167
2291.302	749.70833
2293.841	750.04167
2296.377	734.375
2298.913	744.70833
2301.446	744.70833
2303.978	729.04167
2306.508	737.375
2309.037	735.375
2311.563	739.70833
2314.088	745.04167
2316.612	723.04167
2319.133	721.375
2321.653	716.70833
2324.171	718.375
2326.688	728.375
2329.202	718.04167
2331.715	721.70833
2334.227	723.04167
2336.736	708.70833
2339.244	717.70833
2341.751	706.375
2344.255	717.04167
2346.758	712.70833
2349.259	709.70833
2351.759	709.375
2354.257	702.04167
2356.753	702.375
2359.247	710.375
2361.74	718.70833
2364.231	713.04167
2366.721	718.70833
2369.209	706.70833
2371.695	700.70833
2374.179	703.70833
2376.662	700.04167
2379.143	727.375
2381.622	702.375
2384.1	705.70833
2386.576	699.375
2389.051	715.04167
2391.524	732.04167
2393.995	723.04167
2396.464	704.04167
2398.932	703.04167
2401.398	699.375
2403.863	704.04167
2406.325	697.375
2408.787	705.375
2411.246	705.70833
2413.704	707.375
2416.16	700.375
2418.615	705.04167
2421.068	714.70833
2423.519	705.04167
2425.969	697.70833
2428.417	708.70833
2430.863	731.04167
2433.308	727.04167
2435.751	700.04167
2438.193	704.375
2440.633	702.70833
2443.071	709.375
2445.508	693.375
2447.943	710.04167
2450.376	702.70833
2452.808	703.70833
2455.238	702.04167
2457.667	725.04167
2460.093	707.70833
2462.519	690.04167
2464.942	694.04167
2467.365	709.70833
2469.785	706.04167
2472.204	702.04167
2474.621	702.70833
2477.037	720.375
2479.451	690.70833
2481.863	696.04167
2484.274	691.375
2486.683	693.70833
2489.091	704.04167
2491.497	705.04167
2493.901	710.04167
2496.304	703.70833
2498.705	712.375
2501.105	696.04167
2503.503	717.04167
2505.899	701.375
2508.294	709.70833
2510.687	699.375
2513.079	691.375
2515.469	692.04167
2517.858	700.375
2520.245	714.04167
2522.63	708.70833
2525.014	698.70833
2527.396	696.70833
2529.776	694.04167
2532.156	712.04167
2534.533	689.70833
2536.909	696.375
2539.283	691.375
2541.656	702.70833
2544.027	727.70833
2546.397	707.70833
2548.765	706.04167
2551.131	718.375
2553.496	711.70833
2555.86	719.70833
2558.221	716.04167
2560.582	715.70833
2562.94	701.375
2565.298	712.375
2567.653	727.04167
2570.007	689.375
2572.36	718.04167
2574.711	713.04167
2577.06	733.70833
2579.408	714.70833
2581.754	713.70833
2584.099	719.375
2586.442	711.04167
2588.784	726.375
2591.124	724.70833
2593.463	708.70833
2595.8	718.04167
2598.135	720.70833
2600.469	728.375
2602.802	723.04167
2605.133	736.04167
2607.462	710.70833
2609.79	724.70833
2612.116	730.04167
2614.441	728.04167
2616.764	729.70833
2619.086	730.70833
2621.406	726.70833
2623.725	743.04167
2626.042	738.04167
2628.358	725.375
2630.672	739.04167
2632.985	731.375
2635.296	746.70833
2637.606	746.04167
2639.914	731.04167
2642.22	733.04167
2644.525	742.70833
2646.829	753.04167
2649.131	757.04167
2651.432	770.04167
2653.731	753.375
2656.028	766.04167
2658.324	773.70833
2660.619	753.375
2662.912	768.375
2665.204	759.70833
2667.494	785.375
2669.782	774.04167
2672.07	780.04167
2674.355	799.375
2676.639	785.375
2678.922	764.375
2681.203	789.70833
2683.483	765.375
2685.761	761.70833
2688.038	785.04167
2690.313	803.375
2692.587	798.04167
2694.859	788.04167
2697.13	784.04167
2699.399	797.375
2701.667	807.70833
2703.933	819.375
2706.198	816.04167
2708.461	822.04167
2710.723	821.04167
2712.984	821.375
2715.243	838.04167
2717.5	829.375
2719.757	861.375
2722.011	839.04167
2724.264	855.70833
2726.516	862.375
2728.766	864.375
2731.015	855.04167
2733.262	860.70833
2735.508	856.70833
2737.753	853.375
2739.996	839.375
2742.237	848.375
2744.477	871.04167
2746.716	866.375
2748.953	831.375
2751.189	838.04167
2753.423	834.70833
2755.656	829.04167
2757.887	828.04167
2760.117	835.375
2762.346	826.04167
2764.573	819.375
2766.798	827.04167
2769.022	839.70833
2771.245	839.70833
2773.467	849.375
2775.686	844.70833
2777.905	861.70833
2780.122	856.70833
2782.337	875.70833
2784.552	864.70833
2786.764	869.375
2788.976	896.375
2791.186	888.70833
2793.394	885.70833
2795.601	900.70833
2797.807	915.04167
2800.011	925.70833
2802.214	931.04167
2804.415	936.04167
2806.615	936.375
2808.814	951.04167
2811.011	962.375
2813.206	950.70833
2815.401	983.375
2817.594	993.375
2819.785	989.70833
2821.975	981.04167
2824.164	1013.04167
2826.351	1028.70833
2828.537	1045.375
2830.722	1056.375
2832.905	1063.04167
2835.086	1083.04167
2837.267	1138.375
2839.445	1166.04167
2841.623	1178.375
2843.799	1211.70833
2845.974	1260.70833
2848.147	1295.375
2850.319	1320.04167
2852.489	1374.375
2854.659	1361.70833
2856.826	1398.04167
2858.993	1413.04167
2861.158	1394.04167
2863.321	1403.375
2865.483	1412.375
2867.644	1413.375
2869.804	1415.375
2871.962	1403.375
2874.118	1418.375
2876.274	1407.375
2878.428	1395.04167
2880.58	1398.70833
2882.731	1379.70833
2884.881	1390.70833
2887.03	1392.04167
2889.177	1370.375
2891.322	1384.375
2893.467	1391.375
2895.61	1381.04167
2897.751	1421.70833
2899.892	1412.375
2902.03	1438.70833
2904.168	1454.04167
2906.304	1446.70833
2908.439	1474.70833
2910.572	1450.04167
2912.704	1473.70833
2914.835	1469.04167
2916.965	1462.04167
2919.093	1483.04167
2921.219	1440.375
2923.345	1451.70833
2925.469	1439.70833
2927.591	1419.70833
2929.712	1392.04167
2931.832	1384.375
2933.951	1365.70833
2936.068	1343.375
2938.184	1312.70833
2940.299	1290.70833
2942.412	1248.04167
2944.524	1222.375
2946.634	1212.04167
2948.744	1169.70833
2950.851	1185.70833
2952.958	1122.70833
2955.063	1110.375
2957.167	1116.04167
2959.269	1080.04167
2961.371	1100.04167
2963.471	1054.375
2965.569	1062.04167
2967.666	1032.70833
2969.762	1020.04167
2971.857	1002.70833
2973.95	985.04167
2976.042	975.04167
2978.133	950.04167
2980.222	930.375
2982.31	913.04167
2984.396	908.04167
2986.482	892.375
2988.566	892.04167
2990.648	882.375
2992.73	884.04167
2994.81	881.375
2996.889	878.04167
2998.966	871.70833
3001.042	874.375
3003.117	859.04167
3005.191	861.375
3007.263	868.04167
3009.334	855.04167
3011.403	843.375
3013.472	817.375
3015.539	822.04167
3017.604	826.70833
3019.669	783.70833
3021.732	793.375
3023.794	811.375
3025.854	778.70833
3027.914	789.70833
3029.971	786.04167
3032.028	780.70833
3034.083	779.04167
3036.137	772.70833
3038.19	744.04167
3040.242	722.04167
3042.292	716.04167
3044.341	706.70833
3046.388	719.375
3048.435	683.375
3050.48	712.70833
3052.524	707.375
3054.566	676.70833
3056.607	693.375
3058.647	673.375
3060.686	646.70833
3062.723	621.375
3064.759	607.375
3066.794	-1.625
3068.828	-0.95833
3070.86	-1.625
