-0.839	336.125
3.438	368.45833
7.711	112.45833
11.981	49.79167
16.247	42.79167
20.509	44.125
24.768	49.125
29.024	47.125
33.276	48.79167
37.524	48.79167
41.769	41.125
46.01	35.125
50.247	50.45833
54.481	60.79167
58.712	69.45833
62.939	48.125
67.162	58.79167
71.382	58.45833
75.599	47.79167
79.812	62.45833
84.021	81.125
88.227	58.79167
92.429	65.79167
96.628	46.79167
100.823	70.125
105.015	78.125
109.204	78.45833
113.388	76.45833
117.57	78.45833
121.748	93.79167
125.922	78.45833
130.093	101.45833
134.261	101.45833
138.425	99.125
142.585	144.79167
146.742	141.45833
150.896	171.79167
155.046	206.79167
159.193	317.79167
163.336	560.45833
167.476	1012.125
171.613	1881.79167
175.746	3151.125
179.875	4651.45833
184.002	6085.45833
188.124	7038.79167
192.244	7343.125
196.36	7270.45833
200.472	7050.125
204.581	6887.79167
208.687	6689.79167
212.79	6657.125
216.889	6683.125
220.984	6736.45833
225.077	6792.45833
229.165	6823.79167
233.251	6875.79167
237.333	6910.45833
241.412	6882.79167
245.487	6857.125
249.559	6797.79167
253.628	6730.45833
257.694	6687.79167
261.756	6578.125
265.814	6494.45833
269.87	6322.45833
273.922	6171.45833
277.97	6122.79167
282.016	6100.125
286.058	6154.125
290.097	6270.125
294.132	6344.79167
298.164	6217.79167
302.193	5901.125
306.219	5437.125
310.241	4948.125
314.26	4514.125
318.276	4134.125
322.288	3835.45833
326.297	3605.125
330.303	3438.79167
334.305	3318.45833
338.305	3239.45833
342.301	3165.79167
346.294	3157.79167
350.283	3116.79167
354.269	3082.79167
358.252	3058.45833
362.232	3029.125
366.209	3001.125
370.182	2975.125
374.152	2967.79167
378.119	2965.125
382.083	2929.125
386.043	2948.79167
390	2911.125
393.954	2874.79167
397.905	2844.125
401.852	2840.125
405.797	2802.45833
409.738	2760.45833
413.676	2753.45833
417.61	2725.45833
421.542	2698.79167
425.47	2687.79167
429.396	2650.125
433.318	2642.79167
437.236	2633.79167
441.152	2644.125
445.065	2580.45833
448.974	2578.79167
452.88	2562.125
456.783	2539.125
460.683	2539.79167
464.58	2554.125
468.473	2541.45833
472.364	2528.45833
476.251	2556.125
480.135	2574.45833
484.016	2596.45833
487.894	2592.79167
491.769	2616.125
495.641	2623.125
499.509	2612.45833
503.375	2602.45833
507.237	2570.79167
511.096	2567.79167
514.952	2585.125
518.805	2594.79167
522.655	2598.125
526.502	2548.125
530.346	2555.45833
534.187	2583.125
538.024	2565.79167
541.859	2589.45833
545.69	2608.125
549.519	2565.125
553.344	2538.45833
557.166	2535.125
560.985	2507.79167
564.802	2461.45833
568.615	2428.45833
572.425	2398.79167
576.232	2372.79167
580.036	2365.125
583.836	2397.125
587.634	2405.45833
591.429	2372.125
595.221	2438.79167
599.01	2462.79167
602.796	2493.125
606.578	2529.79167
610.358	2513.45833
614.135	2482.79167
617.909	2510.79167
621.679	2484.45833
625.447	2463.45833
629.212	2478.125
632.973	2492.79167
636.732	2476.79167
640.488	2480.79167
644.241	2442.79167
647.991	2435.125
651.737	2431.45833
655.481	2409.45833
659.222	2393.79167
662.96	2391.79167
666.695	2444.79167
670.427	2448.125
674.156	2459.125
677.882	2457.45833
681.605	2456.125
685.325	2416.79167
689.043	2442.79167
692.757	2430.45833
696.468	2433.125
700.177	2451.45833
703.882	2431.79167
707.585	2455.45833
711.284	2453.79167
714.981	2448.45833
718.675	2473.125
722.366	2452.79167
726.054	2461.125
729.739	2463.125
733.421	2469.79167
737.1	2471.125
740.777	2513.79167
744.45	2515.45833
748.121	2534.79167
751.789	2567.45833
755.453	2575.125
759.115	2591.79167
762.774	2605.79167
766.431	2642.79167
770.084	2673.125
773.734	2699.125
777.382	2755.45833
781.027	2769.79167
784.669	2796.45833
788.308	2791.125
791.944	2803.45833
795.577	2866.125
799.208	2868.45833
802.835	2885.79167
806.46	2904.125
810.082	2914.45833
813.701	2907.125
817.317	2941.125
820.931	2949.45833
824.542	2964.125
828.149	2943.45833
831.754	2909.45833
835.357	2910.45833
838.956	2924.45833
842.553	2901.45833
846.146	2891.45833
849.737	2889.79167
853.326	2919.79167
856.911	2918.125
860.493	2959.45833
864.073	2975.125
867.65	3042.45833
871.225	3083.125
874.796	3079.79167
878.365	3079.45833
881.931	3113.79167
885.494	3129.45833
889.054	3125.125
892.612	3147.45833
896.166	3108.79167
899.719	3076.79167
903.268	3027.45833
906.814	3021.125
910.358	2996.125
913.899	2996.125
917.438	3006.79167
920.973	2982.45833
924.506	3020.79167
928.036	3051.125
931.564	3070.79167
935.088	3066.45833
938.61	3086.79167
942.129	3130.125
945.646	3227.125
949.16	3314.45833
952.671	3360.79167
956.179	3365.125
959.685	3298.45833
963.188	3266.79167
966.688	3230.45833
970.185	3155.45833
973.68	3094.79167
977.173	3114.45833
980.662	3074.79167
984.149	3083.125
987.633	3099.79167
991.114	3140.45833
994.593	3249.125
998.069	3373.45833
1001.542	3428.45833
1005.013	3356.125
1008.481	3199.79167
1011.947	3124.45833
1015.409	3136.125
1018.869	3113.45833
1022.327	3115.45833
1025.782	3080.45833
1029.234	3081.79167
1032.683	3058.45833
1036.13	2937.79167
1039.574	2832.79167
1043.016	2770.79167
1046.455	2719.79167
1049.891	2688.45833
1053.325	2689.125
1056.756	2706.45833
1060.184	2715.79167
1063.61	2736.45833
1067.033	2748.125
1070.454	2729.45833
1073.872	2785.79167
1077.287	2798.125
1080.7	2800.45833
1084.11	2787.79167
1087.517	2765.45833
1090.922	2731.45833
1094.325	2708.79167
1097.724	2702.79167
1101.122	2683.79167
1104.516	2690.45833
1107.908	2705.79167
1111.298	2732.79167
1114.684	2772.125
1118.069	2797.79167
1121.45	2842.79167
1124.83	2822.79167
1128.206	2855.79167
1131.58	2879.125
1134.951	2969.45833
1138.32	3056.125
1141.687	3183.79167
1145.05	3254.79167
1148.412	3282.45833
1151.77	3274.79167
1155.126	3271.125
1158.48	3281.125
1161.831	3297.79167
1165.18	3317.45833
1168.525	3368.79167
1171.869	3442.79167
1175.21	3451.125
1178.548	3475.79167
1181.884	3505.45833
1185.217	3528.79167
1188.548	3603.79167
1191.877	3656.45833
1195.202	3730.45833
1198.526	3758.79167
1201.846	3779.125
1205.165	3770.45833
1208.48	3757.125
1211.794	3753.125
1215.104	3751.45833
1218.413	3746.125
1221.719	3745.79167
1225.022	3722.79167
1228.323	3689.45833
1231.621	3681.45833
1234.917	3665.45833
1238.21	3725.45833
1241.501	3704.79167
1244.79	3703.45833
1248.076	3728.125
1251.359	3771.45833
1254.64	3838.45833
1257.919	3888.45833
1261.195	3885.125
1264.468	3950.45833
1267.74	4018.45833
1271.008	4019.45833
1274.275	3987.45833
1277.538	3967.125
1280.8	3931.79167
1284.059	3959.45833
1287.315	3993.79167
1290.569	3989.45833
1293.821	4023.125
1297.07	4032.125
1300.317	4047.125
1303.562	4019.125
1306.803	3986.79167
1310.043	3941.79167
1313.28	3852.79167
1316.515	3862.79167
1319.747	3778.45833
1322.977	3714.45833
1326.204	3655.125
1329.429	3637.45833
1332.652	3578.79167
1335.872	3593.45833
1339.09	3589.125
1342.306	3567.45833
1345.519	3537.79167
1348.729	3524.125
1351.938	3504.79167
1355.144	3474.125
1358.347	3430.125
1361.548	3444.45833
1364.747	3450.79167
1367.944	3428.79167
1371.138	3464.45833
1374.329	3490.45833
1377.518	3499.125
1380.705	3550.125
1383.89	3512.125
1387.072	3419.125
1390.252	3281.45833
1393.429	3198.79167
1396.605	3124.45833
1399.777	3045.45833
1402.948	3012.79167
1406.116	2982.125
1409.282	2994.45833
1412.445	2983.125
1415.606	3053.45833
1418.765	3102.125
1421.921	3167.125
1425.075	3241.125
1428.227	3342.79167
1431.376	3460.125
1434.524	3592.45833
1437.668	3629.125
1440.811	3665.79167
1443.951	3691.45833
1447.089	3699.125
1450.224	3672.45833
1453.357	3654.45833
1456.488	3633.125
1459.617	3569.45833
1462.743	3543.45833
1465.867	3460.45833
1468.989	3432.125
1472.108	3350.45833
1475.225	3322.79167
1478.34	3275.79167
1481.453	3271.125
1484.563	3289.125
1487.671	3353.125
1490.776	3403.79167
1493.88	3478.79167
1496.981	3555.45833
1500.08	3626.45833
1503.176	3642.125
1506.271	3713.45833
1509.363	3792.125
1512.452	3810.79167
1515.54	3879.45833
1518.625	3991.125
1521.708	4113.79167
1524.789	4283.125
1527.867	4506.79167
1530.944	4809.79167
1534.018	5100.45833
1537.089	5282.125
1540.159	5266.79167
1543.226	5181.125
1546.291	5037.45833
1549.354	4850.79167
1552.415	4679.45833
1555.473	4556.45833
1558.529	4479.79167
1561.583	4389.125
1564.634	4367.45833
1567.684	4334.45833
1570.731	4329.125
1573.776	4329.45833
1576.819	4371.79167
1579.859	4384.79167
1582.898	4436.79167
1585.934	4453.125
1588.968	4469.79167
1591.999	4444.79167
1595.029	4433.125
1598.056	4460.125
1601.081	4486.45833
1604.104	4472.125
1607.125	4397.79167
1610.144	4322.45833
1613.16	4201.45833
1616.174	4119.125
1619.186	3970.45833
1622.196	3889.45833
1625.203	3753.125
1628.209	3697.45833
1631.212	3626.79167
1634.213	3585.45833
1637.212	3539.45833
1640.209	3463.125
1643.203	3376.79167
1646.196	3306.45833
1649.186	3190.45833
1652.174	3117.45833
1655.16	3025.79167
1658.144	2890.79167
1661.125	2820.79167
1664.105	2682.125
1667.082	2546.45833
1670.057	2425.45833
1673.03	2277.79167
1676.001	2149.79167
1678.97	2025.125
1681.937	1928.45833
1684.901	1826.45833
1687.863	1759.79167
1690.824	1698.79167
1693.782	1669.45833
1696.738	1612.45833
1699.692	1567.125
1702.643	1537.125
1705.593	1527.125
1708.54	1485.45833
1711.486	1494.125
1714.429	1454.79167
1717.37	1450.79167
1720.309	1422.125
1723.246	1432.125
1726.181	1390.79167
1729.113	1398.125
1732.044	1379.79167
1734.972	1362.125
1737.899	1358.45833
1740.823	1352.125
1743.745	1348.125
1746.665	1301.45833
1749.583	1286.45833
1752.499	1273.79167
1755.413	1245.45833
1758.325	1221.79167
1761.235	1220.79167
1764.142	1180.125
1767.048	1183.45833
1769.951	1167.79167
1772.852	1159.79167
1775.752	1144.125
1778.649	1152.79167
1781.544	1151.125
1784.437	1122.79167
1787.328	1134.45833
1790.217	1135.45833
1793.104	1099.125
1795.989	1100.79167
1798.872	1100.45833
1801.753	1115.79167
1804.631	1095.45833
1807.508	1093.79167
1810.383	1091.45833
1813.255	1097.79167
1816.126	1079.45833
1818.994	1068.45833
1821.861	1065.45833
1824.725	1066.79167
1827.587	1067.45833
1830.448	1053.45833
1833.306	1018.125
1836.162	1056.45833
1839.017	1028.45833
1841.869	1053.45833
1844.719	1046.125
1847.567	1023.45833
1850.414	1015.125
1853.258	1017.79167
1856.1	1025.45833
1858.94	1020.125
1861.778	1013.125
1864.614	1008.45833
1867.448	1009.79167
1870.28	982.79167
1873.111	1024.79167
1875.939	1002.79167
1878.765	1034.45833
1881.589	998.125
1884.411	1007.45833
1887.231	1006.79167
1890.049	1007.79167
1892.865	1001.125
1895.68	993.45833
1898.492	991.79167
1901.302	973.125
1904.11	980.45833
1906.916	965.45833
1909.721	966.125
1912.523	965.79167
1915.323	967.45833
1918.122	948.45833
1920.918	964.79167
1923.712	941.79167
1926.505	963.125
1929.295	951.79167
1932.084	970.79167
1934.87	953.45833
1937.655	940.125
1940.438	936.45833
1943.218	940.79167
1945.997	929.125
1948.774	946.45833
1951.549	951.125
1954.322	930.125
1957.093	935.79167
1959.862	918.79167
1962.629	924.45833
1965.394	915.125
1968.157	918.125
1970.918	925.79167
1973.678	909.79167
1976.435	917.125
1979.19	918.45833
1981.944	903.79167
1984.696	899.79167
1987.445	892.125
1990.193	898.79167
1992.939	911.45833
1995.683	896.79167
1998.425	876.79167
2001.165	913.79167
2003.903	872.125
2006.639	890.45833
2009.374	873.125
2012.106	878.79167
2014.837	862.45833
2017.566	889.45833
2020.292	889.125
2023.017	879.125
2025.74	868.125
2028.461	865.79167
2031.18	870.45833
2033.898	865.45833
2036.613	888.45833
2039.327	876.125
2042.038	852.45833
2044.748	861.45833
2047.456	869.79167
2050.162	847.125
2052.866	852.125
2055.568	852.79167
2058.268	843.45833
2060.967	847.125
2063.663	829.45833
2066.358	850.45833
2069.051	830.45833
2071.742	832.79167
2074.431	854.45833
2077.118	841.79167
2079.804	836.125
2082.487	848.45833
2085.169	861.45833
2087.849	872.79167
2090.527	856.45833
2093.203	868.79167
2095.877	891.125
2098.55	884.45833
2101.22	899.45833
2103.889	912.125
2106.556	940.79167
2109.221	999.45833
2111.884	1039.125
2114.546	1144.125
2117.205	1228.79167
2119.863	1378.125
2122.519	1487.79167
2125.173	1585.45833
2127.825	1669.79167
2130.475	1670.79167
2133.124	1631.125
2135.771	1538.125
2138.416	1461.79167
2141.059	1334.125
2143.7	1277.125
2146.339	1190.45833
2148.977	1129.125
2151.613	1082.45833
2154.247	1052.125
2156.879	1018.45833
2159.51	976.125
2162.138	955.125
2164.765	945.45833
2167.39	916.45833
2170.013	916.125
2172.634	905.45833
2175.254	893.45833
2177.872	917.79167
2180.488	851.125
2183.102	856.125
2185.714	854.45833
2188.325	831.79167
2190.934	828.79167
2193.541	831.45833
2196.146	802.125
2198.75	799.125
2201.351	798.45833
2203.951	775.45833
2206.549	782.45833
2209.146	776.45833
2211.74	757.79167
2214.333	795.45833
2216.924	752.45833
2219.514	749.79167
2222.101	739.45833
2224.687	758.79167
2227.271	734.79167
2229.853	730.79167
2232.433	727.125
2235.012	740.125
2237.589	737.79167
2240.164	728.45833
2242.738	712.125
2245.309	701.79167
2247.879	712.125
2250.448	721.125
2253.014	682.79167
2255.579	671.125
2258.142	688.125
2260.703	670.79167
2263.262	677.79167
2265.82	662.45833
2268.376	676.45833
2270.93	658.125
2273.483	646.125
2276.033	669.45833
2278.583	651.45833
2281.13	650.45833
2283.675	634.125
2286.219	656.79167
2288.761	643.45833
2291.302	648.79167
2293.841	653.79167
2296.377	611.79167
2298.913	628.125
2301.446	637.79167
2303.978	625.45833
2306.508	622.45833
2309.037	629.45833
2311.563	630.125
2314.088	621.45833
2316.612	610.125
2319.133	617.79167
2321.653	609.125
2324.171	602.45833
2326.688	612.79167
2329.202	605.79167
2331.715	611.45833
2334.227	601.45833
2336.736	595.125
2339.244	596.79167
2341.751	580.125
2344.255	599.125
2346.758	586.125
2349.259	587.45833
2351.759	582.125
2354.257	578.125
2356.753	584.79167
2359.247	582.79167
2361.74	589.45833
2364.231	576.79167
2366.721	587.125
2369.209	566.45833
2371.695	571.125
2374.179	570.45833
2376.662	557.125
2379.143	577.79167
2381.622	573.45833
2384.1	564.45833
2386.576	550.79167
2389.051	571.45833
2391.524	574.45833
2393.995	571.125
2396.464	556.125
2398.932	555.125
2401.398	556.79167
2403.863	550.125
2406.325	551.45833
2408.787	549.45833
2411.246	548.45833
2413.704	550.45833
2416.16	544.125
2418.615	541.45833
2421.068	554.45833
2423.519	549.79167
2425.969	540.79167
2428.417	544.45833
2430.863	564.79167
2433.308	555.45833
2435.751	542.125
2438.193	539.79167
2440.633	543.125
2443.071	543.125
2445.508	531.125
2447.943	525.125
2450.376	514.45833
2452.808	537.45833
2455.238	520.79167
2457.667	554.45833
2460.093	529.79167
2462.519	507.79167
2464.942	511.79167
2467.365	536.125
2469.785	519.125
2472.204	509.125
2474.621	511.125
2477.037	530.125
2479.451	496.45833
2481.863	495.45833
2484.274	506.125
2486.683	507.45833
2489.091	516.45833
2491.497	508.125
2493.901	502.125
2496.304	508.125
2498.705	512.79167
2501.105	505.79167
2503.503	532.125
2505.899	486.125
2508.294	511.45833
2510.687	490.45833
2513.079	490.79167
2515.469	480.125
2517.858	487.45833
2520.245	505.45833
2522.63	499.45833
2525.014	483.125
2527.396	480.125
2529.776	475.125
2532.156	491.125
2534.533	469.125
2536.909	471.125
2539.283	463.79167
2541.656	474.45833
2544.027	500.45833
2546.397	484.45833
2548.765	480.45833
2551.131	478.79167
2553.496	471.45833
2555.86	491.45833
2558.221	478.125
2560.582	483.125
2562.94	457.45833
2565.298	473.45833
2567.653	493.79167
2570.007	472.79167
2572.36	472.125
2574.711	460.79167
2577.06	485.79167
2579.408	471.45833
2581.754	474.45833
2584.099	469.79167
2586.442	459.79167
2588.784	463.79167
2591.124	473.79167
2593.463	457.45833
2595.8	468.45833
2598.135	452.45833
2600.469	464.125
2602.802	487.125
2605.133	469.45833
2607.462	453.79167
2609.79	454.79167
2612.116	468.79167
2614.441	458.45833
2616.764	449.79167
2619.086	457.45833
2621.406	455.45833
2623.725	471.79167
2626.042	460.79167
2628.358	452.79167
2630.672	447.79167
2632.985	468.125
2635.296	460.125
2637.606	454.45833
2639.914	448.125
2642.22	466.45833
2644.525	461.79167
2646.829	465.45833
2649.131	467.45833
2651.432	469.125
2653.731	463.79167
2656.028	471.125
2658.324	465.79167
2660.619	453.45833
2662.912	471.125
2665.204	453.125
2667.494	466.79167
2669.782	460.45833
2672.07	466.125
2674.355	487.125
2676.639	461.125
2678.922	453.79167
2681.203	481.45833
2683.483	451.125
2685.761	451.125
2688.038	472.79167
2690.313	482.45833
2692.587	462.45833
2694.859	462.45833
2697.13	471.79167
2699.399	460.125
2701.667	488.125
2703.933	481.45833
2706.198	484.79167
2708.461	491.79167
2710.723	493.79167
2712.984	491.45833
2715.243	495.125
2717.5	498.125
2719.757	510.45833
2722.011	502.45833
2724.264	510.125
2726.516	526.79167
2728.766	499.45833
2731.015	506.45833
2733.262	510.45833
2735.508	499.125
2737.753	491.45833
2739.996	492.125
2742.237	474.125
2744.477	498.125
2746.716	497.125
2748.953	490.45833
2751.189	486.79167
2753.423	484.79167
2755.656	476.45833
2757.887	474.125
2760.117	481.125
2762.346	466.45833
2764.573	470.79167
2766.798	465.45833
2769.022	480.45833
2771.245	486.79167
2773.467	484.79167
2775.686	486.45833
2777.905	486.125
2780.122	496.79167
2782.337	509.45833
2784.552	494.125
2786.764	511.79167
2788.976	512.79167
2791.186	513.79167
2793.394	527.45833
2795.601	534.125
2797.807	546.79167
2800.011	545.79167
2802.214	562.45833
2804.415	574.79167
2806.615	576.79167
2808.814	594.125
2811.011	596.79167
2813.206	599.125
2815.401	612.79167
2817.594	633.125
2819.785	636.79167
2821.975	618.79167
2824.164	648.79167
2826.351	656.79167
2828.537	676.45833
2830.722	685.79167
2832.905	698.125
2835.086	723.79167
2837.267	749.45833
2839.445	778.45833
2841.623	797.125
2843.799	825.79167
2845.974	853.45833
2848.147	897.125
2850.319	921.125
2852.489	955.125
2854.659	953.125
2856.826	970.125
2858.993	985.45833
2861.158	979.79167
2863.321	977.125
2865.483	993.79167
2867.644	984.45833
2869.804	992.79167
2871.962	974.45833
2874.118	985.125
2876.274	977.125
2878.428	965.79167
2880.58	964.79167
2882.731	959.125
2884.881	946.45833
2887.03	957.125
2889.177	967.79167
2891.322	974.79167
2893.467	962.45833
2895.61	949.125
2897.751	985.125
2899.892	964.125
2902.03	990.45833
2904.168	985.125
2906.304	982.125
2908.439	1013.125
2910.572	987.45833
2912.704	1001.79167
2914.835	998.79167
2916.965	992.45833
2919.093	1007.45833
2921.219	969.79167
2923.345	988.45833
2925.469	949.45833
2927.591	953.79167
2929.712	916.45833
2931.832	897.125
2933.951	881.125
2936.068	858.79167
2938.184	835.125
2940.299	805.79167
2942.412	783.45833
2944.524	742.125
2946.634	730.45833
2948.744	673.79167
2950.851	700.125
2952.958	645.79167
2955.063	638.45833
2957.167	639.125
2959.269	596.45833
2961.371	607.79167
2963.471	567.125
2965.569	563.125
2967.666	542.79167
2969.762	515.79167
2971.857	512.125
2973.95	486.45833
2976.042	484.45833
2978.133	471.125
2980.222	449.45833
2982.31	428.125
2984.396	416.125
2986.482	424.79167
2988.566	418.125
2990.648	408.125
2992.73	392.79167
2994.81	375.45833
2996.889	384.125
2998.966	374.45833
3001.042	386.45833
3003.117	379.45833
3005.191	376.45833
3007.263	364.45833
3009.334	360.45833
3011.403	358.45833
3013.472	335.45833
3015.539	340.125
3017.604	349.45833
3019.669	319.45833
3021.732	327.79167
3023.794	329.79167
3025.854	304.125
3027.914	302.125
3029.971	317.125
3032.028	302.45833
3034.083	308.125
3036.137	305.45833
3038.19	290.45833
3040.242	288.45833
3042.292	279.125
3044.341	271.45833
3046.388	295.125
3048.435	262.79167
3050.48	290.45833
3052.524	267.45833
3054.566	250.45833
3056.607	264.79167
3058.647	260.125
3060.686	240.79167
3062.723	239.125
3064.759	228.125
3066.794	-0.20833
3068.828	0.45833
3070.86	-1.54167
