-0.839	414.70833
3.438	442.375
7.711	129.04167
11.981	54.375
16.247	44.70833
20.509	45.70833
24.768	47.04167
29.024	48.70833
33.276	47.04167
37.524	50.04167
41.769	41.04167
46.01	37.375
50.247	52.70833
54.481	60.375
58.712	66.375
62.939	49.70833
67.162	61.70833
71.382	55.375
75.599	49.70833
79.812	67.375
84.021	84.375
88.227	62.04167
92.429	64.04167
96.628	51.70833
100.823	66.375
105.015	77.375
109.204	80.04167
113.388	80.70833
117.57	80.04167
121.748	94.04167
125.922	85.70833
130.093	105.375
134.261	109.375
138.425	106.375
142.585	147.70833
146.742	152.70833
150.896	175.70833
155.046	228.70833
159.193	354.375
163.336	608.70833
167.476	1122.375
171.613	2069.04167
175.746	3484.04167
179.875	5191.375
184.002	6792.04167
188.124	7839.04167
192.244	8170.04167
196.36	8121.375
200.472	7891.375
204.581	7669.70833
208.687	7445.04167
212.79	7365.04167
216.889	7441.375
220.984	7483.375
225.077	7581.375
229.165	7621.375
233.251	7720.04167
237.333	7701.04167
241.412	7704.70833
245.487	7678.04167
249.559	7648.04167
253.628	7547.70833
257.694	7481.04167
261.756	7484.70833
265.814	7317.70833
269.87	7131.04167
273.922	6984.04167
277.97	6913.375
282.016	6933.04167
286.058	6986.04167
290.097	7084.375
294.132	7144.04167
298.164	7083.04167
302.193	6733.375
306.219	6204.70833
310.241	5669.375
314.26	5097.04167
318.276	4678.70833
322.288	4342.70833
326.297	4105.375
330.303	3885.375
334.305	3750.375
338.305	3647.04167
342.301	3564.04167
346.294	3522.70833
350.283	3499.04167
354.269	3466.04167
358.252	3422.375
362.232	3396.375
366.209	3358.04167
370.182	3345.04167
374.152	3302.70833
378.119	3342.04167
382.083	3322.04167
386.043	3337.04167
390	3273.04167
393.954	3264.70833
397.905	3220.04167
401.852	3206.04167
405.797	3148.70833
409.738	3131.04167
413.676	3108.04167
417.61	3101.04167
421.542	3058.04167
425.47	3046.375
429.396	3009.70833
433.318	2997.375
437.236	2985.375
441.152	2994.375
445.065	2934.70833
448.974	2953.70833
452.88	2898.70833
456.783	2875.70833
460.683	2882.70833
464.58	2873.70833
468.473	2868.70833
472.364	2874.375
476.251	2895.70833
480.135	2928.04167
484.016	2950.04167
487.894	2947.375
491.769	2951.375
495.641	2978.04167
499.509	2967.04167
503.375	2966.04167
507.237	2944.04167
511.096	2943.04167
514.952	2944.375
518.805	2974.70833
522.655	2938.70833
526.502	2894.375
530.346	2927.04167
534.187	2928.375
538.024	2960.375
541.859	2966.70833
545.69	2971.375
549.519	2970.375
553.344	2923.70833
557.166	2900.375
560.985	2864.70833
564.802	2815.70833
568.615	2796.04167
572.425	2746.70833
576.232	2734.70833
580.036	2721.70833
583.836	2737.70833
587.634	2745.70833
591.429	2741.70833
595.221	2774.375
599.01	2801.04167
602.796	2833.04167
606.578	2869.04167
610.358	2881.375
614.135	2861.70833
617.909	2828.04167
621.679	2828.70833
625.447	2810.375
629.212	2834.04167
632.973	2835.375
636.732	2828.375
640.488	2832.375
644.241	2799.375
647.991	2777.04167
651.737	2784.375
655.481	2755.70833
659.222	2790.04167
662.96	2777.375
666.695	2785.70833
670.427	2809.375
674.156	2805.375
677.882	2816.70833
681.605	2809.375
685.325	2766.70833
689.043	2793.04167
692.757	2780.04167
696.468	2801.04167
700.177	2797.375
703.882	2775.70833
707.585	2776.70833
711.284	2789.70833
714.981	2780.04167
718.675	2812.04167
722.366	2818.375
726.054	2793.375
729.739	2809.04167
733.421	2805.70833
737.1	2804.04167
740.777	2843.04167
744.45	2841.04167
748.121	2864.375
751.789	2934.04167
755.453	2896.04167
759.115	2918.04167
762.774	2975.04167
766.431	3001.375
770.084	3002.375
773.734	3044.70833
777.382	3123.04167
781.027	3136.375
784.669	3148.04167
788.308	3150.70833
791.944	3208.70833
795.577	3222.375
799.208	3269.04167
802.835	3271.375
806.46	3298.04167
810.082	3322.375
813.701	3322.70833
817.317	3358.70833
820.931	3328.04167
824.542	3357.375
828.149	3306.04167
831.754	3321.70833
835.357	3275.70833
838.956	3272.04167
842.553	3276.70833
846.146	3255.70833
849.737	3275.70833
853.326	3262.375
856.911	3284.70833
860.493	3325.70833
864.073	3328.04167
867.65	3406.375
871.225	3437.70833
874.796	3444.70833
878.365	3448.04167
881.931	3486.04167
885.494	3486.04167
889.054	3482.375
892.612	3502.375
896.166	3450.04167
899.719	3420.70833
903.268	3395.70833
906.814	3351.375
910.358	3362.70833
913.899	3320.04167
917.438	3361.04167
920.973	3351.375
924.506	3388.04167
928.036	3429.70833
931.564	3470.70833
935.088	3495.375
938.61	3503.375
942.129	3545.04167
945.646	3642.375
949.16	3710.375
952.671	3799.04167
956.179	3808.375
959.685	3772.04167
963.188	3725.375
966.688	3656.04167
970.185	3555.70833
973.68	3516.70833
977.173	3460.70833
980.662	3452.375
984.149	3465.04167
987.633	3457.375
991.114	3532.04167
994.593	3644.04167
998.069	3771.70833
1001.542	3861.04167
1005.013	3770.04167
1008.481	3567.04167
1011.947	3534.70833
1015.409	3513.04167
1018.869	3501.04167
1022.327	3506.04167
1025.782	3486.375
1029.234	3496.375
1032.683	3460.375
1036.13	3325.375
1039.574	3224.04167
1043.016	3148.04167
1046.455	3075.70833
1049.891	3043.375
1053.325	3039.375
1056.756	3077.70833
1060.184	3106.70833
1063.61	3110.70833
1067.033	3109.04167
1070.454	3115.375
1073.872	3161.70833
1077.287	3133.70833
1080.7	3172.04167
1084.11	3180.375
1087.517	3165.375
1090.922	3128.375
1094.325	3097.375
1097.724	3060.70833
1101.122	3047.375
1104.516	3042.04167
1107.908	3043.375
1111.298	3084.70833
1114.684	3135.375
1118.069	3167.375
1121.45	3197.04167
1124.83	3228.04167
1128.206	3234.70833
1131.58	3291.04167
1134.951	3369.70833
1138.32	3496.70833
1141.687	3632.375
1145.05	3696.70833
1148.412	3738.375
1151.77	3746.70833
1155.126	3726.375
1158.48	3722.375
1161.831	3739.70833
1165.18	3783.70833
1168.525	3823.70833
1171.869	3875.04167
1175.21	3916.70833
1178.548	3932.04167
1181.884	3986.04167
1185.217	3988.375
1188.548	4061.70833
1191.877	4113.04167
1195.202	4177.375
1198.526	4264.375
1201.846	4296.70833
1205.165	4286.04167
1208.48	4263.70833
1211.794	4268.70833
1215.104	4281.375
1218.413	4305.04167
1221.719	4261.04167
1225.022	4257.375
1228.323	4193.375
1231.621	4192.375
1234.917	4180.375
1238.21	4248.70833
1241.501	4211.70833
1244.79	4211.70833
1248.076	4245.70833
1251.359	4247.375
1254.64	4315.375
1257.919	4362.375
1261.195	4426.375
1264.468	4517.375
1267.74	4535.375
1271.008	4566.70833
1274.275	4549.70833
1277.538	4533.375
1280.8	4504.375
1284.059	4479.70833
1287.315	4546.70833
1290.569	4582.70833
1293.821	4605.70833
1297.07	4617.375
1300.317	4620.70833
1303.562	4610.375
1306.803	4562.70833
1310.043	4523.375
1313.28	4445.70833
1316.515	4414.375
1319.747	4350.375
1322.977	4271.375
1326.204	4209.375
1329.429	4153.375
1332.652	4159.375
1335.872	4124.70833
1339.09	4093.04167
1342.306	4076.375
1345.519	4083.375
1348.729	4027.375
1351.938	4015.375
1355.144	3949.04167
1358.347	3915.70833
1361.548	3939.375
1364.747	3943.04167
1367.944	3923.70833
1371.138	3975.70833
1374.329	3988.70833
1377.518	4061.04167
1380.705	4099.70833
1383.89	4081.70833
1387.072	3930.04167
1390.252	3813.70833
1393.429	3690.70833
1396.605	3576.375
1399.777	3474.375
1402.948	3446.375
1406.116	3407.375
1409.282	3434.70833
1412.445	3421.375
1415.606	3470.375
1418.765	3523.04167
1421.921	3603.04167
1425.075	3681.70833
1428.227	3821.375
1431.376	3963.04167
1434.524	4095.04167
1437.668	4213.04167
1440.811	4200.375
1443.951	4244.70833
1447.089	4253.70833
1450.224	4237.70833
1453.357	4187.375
1456.488	4194.04167
1459.617	4109.375
1462.743	4094.375
1465.867	3993.70833
1468.989	3942.375
1472.108	3874.70833
1475.225	3800.04167
1478.34	3763.04167
1481.453	3746.04167
1484.563	3754.04167
1487.671	3832.70833
1490.776	3892.04167
1493.88	3946.70833
1496.981	4038.04167
1500.08	4141.04167
1503.176	4180.04167
1506.271	4248.70833
1509.363	4301.70833
1512.452	4379.70833
1515.54	4452.04167
1518.625	4567.04167
1521.708	4717.70833
1524.789	4927.375
1527.867	5184.70833
1530.944	5511.375
1534.018	5756.70833
1537.089	5991.375
1540.159	5995.375
1543.226	5851.375
1546.291	5666.70833
1549.354	5513.04167
1552.415	5353.70833
1555.473	5196.375
1558.529	5105.375
1561.583	5030.04167
1564.634	4975.04167
1567.684	4950.04167
1570.731	4991.375
1573.776	5017.70833
1576.819	4994.04167
1579.859	5065.04167
1582.898	5117.04167
1585.934	5116.04167
1588.968	5152.04167
1591.999	5127.375
1595.029	5108.70833
1598.056	5174.04167
1601.081	5193.375
1604.104	5160.375
1607.125	5133.70833
1610.144	4986.70833
1613.16	4897.375
1616.174	4764.375
1619.186	4642.04167
1622.196	4537.375
1625.203	4404.70833
1628.209	4347.04167
1631.212	4316.375
1634.213	4240.04167
1637.212	4174.04167
1640.209	4109.375
1643.203	3992.70833
1646.196	3885.04167
1649.186	3748.04167
1652.174	3660.70833
1655.16	3534.04167
1658.144	3419.375
1661.125	3261.04167
1664.105	3125.375
1667.082	2984.04167
1670.057	2822.70833
1673.03	2638.04167
1676.001	2490.04167
1678.97	2340.04167
1681.937	2194.04167
1684.901	2074.375
1687.863	2025.04167
1690.824	1944.04167
1693.782	1918.04167
1696.738	1821.04167
1699.692	1784.04167
1702.643	1765.04167
1705.593	1715.375
1708.54	1716.04167
1711.486	1703.375
1714.429	1655.04167
1717.37	1656.375
1720.309	1614.375
1723.246	1625.70833
1726.181	1577.04167
1729.113	1587.375
1732.044	1569.70833
1734.972	1548.04167
1737.899	1540.375
1740.823	1538.04167
1743.745	1527.70833
1746.665	1486.70833
1749.583	1466.375
1752.499	1439.04167
1755.413	1419.70833
1758.325	1388.04167
1761.235	1398.70833
1764.142	1355.375
1767.048	1345.04167
1769.951	1336.04167
1772.852	1318.70833
1775.752	1316.375
1778.649	1304.375
1781.544	1318.04167
1784.437	1269.04167
1787.328	1292.04167
1790.217	1280.70833
1793.104	1263.70833
1795.989	1262.04167
1798.872	1252.375
1801.753	1262.04167
1804.631	1251.70833
1807.508	1251.04167
1810.383	1244.70833
1813.255	1254.375
1816.126	1240.04167
1818.994	1233.375
1821.861	1209.04167
1824.725	1210.375
1827.587	1210.375
1830.448	1208.375
1833.306	1190.70833
1836.162	1186.375
1839.017	1176.04167
1841.869	1181.70833
1844.719	1184.04167
1847.567	1160.375
1850.414	1151.04167
1853.258	1153.04167
1856.1	1150.375
1858.94	1177.375
1861.778	1149.70833
1864.614	1153.375
1867.448	1165.70833
1870.28	1150.70833
1873.111	1167.04167
1875.939	1154.70833
1878.765	1168.70833
1881.589	1145.04167
1884.411	1138.04167
1887.231	1152.04167
1890.049	1143.70833
1892.865	1143.70833
1895.68	1139.04167
1898.492	1136.375
1901.302	1107.70833
1904.11	1109.70833
1906.916	1109.70833
1909.721	1086.70833
1912.523	1113.70833
1915.323	1088.70833
1918.122	1103.70833
1920.918	1097.375
1923.712	1083.70833
1926.505	1076.70833
1929.295	1077.375
1932.084	1095.375
1934.87	1085.375
1937.655	1081.70833
1940.438	1073.375
1943.218	1071.04167
1945.997	1078.375
1948.774	1096.70833
1951.549	1086.04167
1954.322	1067.04167
1957.093	1061.04167
1959.862	1050.375
1962.629	1064.375
1965.394	1043.70833
1968.157	1040.04167
1970.918	1053.375
1973.678	1047.04167
1976.435	1040.70833
1979.19	1040.375
1981.944	1022.70833
1984.696	1028.375
1987.445	999.04167
1990.193	1018.70833
1992.939	1040.70833
1995.683	1016.70833
1998.425	993.375
2001.165	1036.375
2003.903	995.375
2006.639	1006.70833
2009.374	996.70833
2012.106	1010.04167
2014.837	986.04167
2017.566	1019.70833
2020.292	1007.04167
2023.017	1005.04167
2025.74	980.375
2028.461	979.70833
2031.18	988.70833
2033.898	971.04167
2036.613	993.70833
2039.327	996.04167
2042.038	955.04167
2044.748	974.04167
2047.456	984.70833
2050.162	956.375
2052.866	973.04167
2055.568	977.70833
2058.268	961.04167
2060.967	963.375
2063.663	943.70833
2066.358	956.375
2069.051	959.70833
2071.742	970.70833
2074.431	967.04167
2077.118	958.375
2079.804	952.70833
2082.487	950.04167
2085.169	960.04167
2087.849	980.375
2090.527	970.04167
2093.203	978.375
2095.877	978.70833
2098.55	978.70833
2101.22	1005.04167
2103.889	1015.04167
2106.556	1026.375
2109.221	1064.375
2111.884	1095.04167
2114.546	1198.375
2117.205	1287.04167
2119.863	1408.375
2122.519	1498.04167
2125.173	1602.375
2127.825	1674.375
2130.475	1710.70833
2133.124	1662.375
2135.771	1585.375
2138.416	1502.375
2141.059	1402.70833
2143.7	1338.04167
2146.339	1255.04167
2148.977	1180.04167
2151.613	1140.375
2154.247	1118.70833
2156.879	1091.70833
2159.51	1056.04167
2162.138	1035.375
2164.765	1034.375
2167.39	1011.375
2170.013	1005.70833
2172.634	1004.04167
2175.254	979.04167
2177.872	991.375
2180.488	960.04167
2183.102	969.375
2185.714	952.04167
2188.325	927.70833
2190.934	938.70833
2193.541	928.375
2196.146	906.04167
2198.75	890.70833
2201.351	897.70833
2203.951	883.04167
2206.549	900.375
2209.146	871.04167
2211.74	871.04167
2214.333	871.70833
2216.924	833.375
2219.514	848.70833
2222.101	848.375
2224.687	854.70833
2227.271	839.375
2229.853	834.70833
2232.433	813.70833
2235.012	835.70833
2237.589	839.04167
2240.164	833.70833
2242.738	824.70833
2245.309	809.70833
2247.879	825.375
2250.448	811.375
2253.014	788.04167
2255.579	781.375
2258.142	784.04167
2260.703	752.04167
2263.262	754.70833
2265.82	755.70833
2268.376	767.04167
2270.93	746.70833
2273.483	744.70833
2276.033	750.70833
2278.583	733.70833
2281.13	736.375
2283.675	726.04167
2286.219	731.04167
2288.761	724.375
2291.302	731.04167
2293.841	736.04167
2296.377	704.70833
2298.913	709.375
2301.446	720.70833
2303.978	719.375
2306.508	710.04167
2309.037	700.375
2311.563	710.70833
2314.088	707.70833
2316.612	685.70833
2319.133	693.375
2321.653	693.04167
2324.171	679.04167
2326.688	692.70833
2329.202	680.04167
2331.715	683.04167
2334.227	677.375
2336.736	671.70833
2339.244	682.04167
2341.751	674.04167
2344.255	678.375
2346.758	670.375
2349.259	667.375
2351.759	665.04167
2354.257	665.375
2356.753	657.375
2359.247	664.375
2361.74	666.375
2364.231	660.04167
2366.721	658.70833
2369.209	648.04167
2371.695	649.375
2374.179	646.04167
2376.662	633.375
2379.143	663.04167
2381.622	639.375
2384.1	645.04167
2386.576	640.04167
2389.051	650.04167
2391.524	662.70833
2393.995	640.70833
2396.464	638.70833
2398.932	629.04167
2401.398	646.70833
2403.863	625.375
2406.325	639.375
2408.787	637.70833
2411.246	626.04167
2413.704	626.375
2416.16	624.375
2418.615	616.375
2421.068	622.04167
2423.519	628.70833
2425.969	604.375
2428.417	609.375
2430.863	638.375
2433.308	626.375
2435.751	601.70833
2438.193	605.70833
2440.633	611.70833
2443.071	611.04167
2445.508	593.375
2447.943	596.375
2450.376	599.70833
2452.808	596.70833
2455.238	580.70833
2457.667	614.70833
2460.093	599.04167
2462.519	588.04167
2464.942	594.375
2467.365	602.375
2469.785	589.375
2472.204	585.375
2474.621	570.04167
2477.037	602.70833
2479.451	573.04167
2481.863	572.04167
2484.274	572.70833
2486.683	578.70833
2489.091	575.70833
2491.497	574.375
2493.901	581.04167
2496.304	578.04167
2498.705	574.04167
2501.105	557.70833
2503.503	593.375
2505.899	558.70833
2508.294	580.375
2510.687	549.04167
2513.079	551.70833
2515.469	551.375
2517.858	558.375
2520.245	562.70833
2522.63	548.04167
2525.014	551.04167
2527.396	550.375
2529.776	544.04167
2532.156	547.70833
2534.533	540.04167
2536.909	537.70833
2539.283	535.70833
2541.656	544.04167
2544.027	565.375
2546.397	546.375
2548.765	549.375
2551.131	540.70833
2553.496	540.04167
2555.86	546.04167
2558.221	531.04167
2560.582	534.04167
2562.94	526.375
2565.298	533.375
2567.653	553.70833
2570.007	523.04167
2572.36	533.375
2574.711	522.70833
2577.06	543.375
2579.408	524.70833
2581.754	523.375
2584.099	529.70833
2586.442	526.375
2588.784	525.04167
2591.124	528.04167
2593.463	517.70833
2595.8	532.70833
2598.135	515.375
2600.469	509.375
2602.802	529.04167
2605.133	528.04167
2607.462	516.375
2609.79	513.70833
2612.116	518.375
2614.441	514.04167
2616.764	521.70833
2619.086	517.70833
2621.406	517.375
2623.725	527.70833
2626.042	521.375
2628.358	518.375
2630.672	517.375
2632.985	528.375
2635.296	520.04167
2637.606	526.04167
2639.914	508.70833
2642.22	516.70833
2644.525	508.04167
2646.829	517.375
2649.131	529.375
2651.432	540.70833
2653.731	522.04167
2656.028	535.375
2658.324	527.375
2660.619	511.375
2662.912	533.375
2665.204	516.04167
2667.494	536.375
2669.782	524.70833
2672.07	536.70833
2674.355	538.375
2676.639	516.04167
2678.922	519.375
2681.203	542.70833
2683.483	519.04167
2685.761	524.375
2688.038	529.375
2690.313	539.375
2692.587	526.70833
2694.859	523.70833
2697.13	532.70833
2699.399	542.70833
2701.667	546.04167
2703.933	546.70833
2706.198	546.375
2708.461	555.04167
2710.723	562.04167
2712.984	561.375
2715.243	568.375
2717.5	560.04167
2719.757	581.04167
2722.011	570.04167
2724.264	573.04167
2726.516	594.375
2728.766	570.04167
2731.015	577.70833
2733.262	574.04167
2735.508	566.375
2737.753	565.04167
2739.996	551.375
2742.237	553.04167
2744.477	570.375
2746.716	560.375
2748.953	553.375
2751.189	552.70833
2753.423	550.375
2755.656	541.375
2757.887	531.70833
2760.117	543.70833
2762.346	527.70833
2764.573	525.04167
2766.798	534.04167
2769.022	535.375
2771.245	544.70833
2773.467	547.375
2775.686	549.70833
2777.905	546.04167
2780.122	561.70833
2782.337	563.04167
2784.552	559.04167
2786.764	575.04167
2788.976	574.04167
2791.186	585.70833
2793.394	600.70833
2795.601	611.70833
2797.807	614.70833
2800.011	631.04167
2802.214	638.70833
2804.415	643.04167
2806.615	642.70833
2808.814	659.375
2811.011	666.375
2813.206	672.375
2815.401	700.375
2817.594	707.04167
2819.785	719.70833
2821.975	709.70833
2824.164	733.375
2826.351	749.70833
2828.537	767.04167
2830.722	798.04167
2832.905	799.375
2835.086	835.04167
2837.267	874.70833
2839.445	924.375
2841.623	943.375
2843.799	992.375
2845.974	1011.04167
2848.147	1073.375
2850.319	1100.375
2852.489	1143.375
2854.659	1159.375
2856.826	1171.04167
2858.993	1195.375
2861.158	1185.70833
2863.321	1181.70833
2865.483	1192.70833
2867.644	1204.04167
2869.804	1201.375
2871.962	1178.70833
2874.118	1196.375
2876.274	1173.04167
2878.428	1169.04167
2880.58	1167.04167
2882.731	1162.70833
2884.881	1158.375
2887.03	1160.70833
2889.177	1157.70833
2891.322	1189.04167
2893.467	1159.04167
2895.61	1177.04167
2897.751	1201.375
2899.892	1179.04167
2902.03	1199.375
2904.168	1198.375
2906.304	1201.375
2908.439	1234.04167
2910.572	1210.70833
2912.704	1226.70833
2914.835	1236.375
2916.965	1220.375
2919.093	1226.70833
2921.219	1183.04167
2923.345	1200.04167
2925.469	1181.375
2927.591	1146.70833
2929.712	1113.04167
2931.832	1102.04167
2933.951	1074.04167
2936.068	1040.70833
2938.184	1012.375
2940.299	983.04167
2942.412	951.70833
2944.524	901.04167
2946.634	884.04167
2948.744	819.70833
2950.851	841.70833
2952.958	782.04167
2955.063	770.04167
2957.167	746.04167
2959.269	706.04167
2961.371	721.375
2963.471	662.375
2965.569	672.375
2967.666	635.70833
2969.762	616.70833
2971.857	593.04167
2973.95	583.375
2976.042	560.04167
2978.133	560.04167
2980.222	532.375
2982.31	509.04167
2984.396	500.04167
2986.482	488.04167
2988.566	490.375
2990.648	479.70833
2992.73	469.70833
2994.81	448.70833
2996.889	457.04167
2998.966	439.70833
3001.042	445.70833
3003.117	430.04167
3005.191	425.04167
3007.263	426.04167
3009.334	416.375
3011.403	408.375
3013.472	396.04167
3015.539	402.375
3017.604	402.70833
3019.669	365.70833
3021.732	369.04167
3023.794	376.04167
3025.854	347.70833
3027.914	354.375
3029.971	358.04167
3032.028	360.04167
3034.083	355.70833
3036.137	337.70833
3038.19	331.375
3040.242	325.375
3042.292	320.375
3044.341	316.70833
3046.388	329.375
3048.435	299.70833
3050.48	318.04167
3052.524	314.375
3054.566	289.70833
3056.607	304.04167
3058.647	294.375
3060.686	282.375
3062.723	265.04167
3064.759	262.375
3066.794	0.375
3068.828	-0.625
3070.86	-1.29167
