-0.839	337
3.438	360.66667
7.711	113.66667
11.981	51.66667
16.247	43.66667
20.509	40.66667
24.768	44.66667
29.024	54.33333
33.276	39
37.524	50
41.769	41
46.01	41.66667
50.247	51
54.481	61.33333
58.712	67.66667
62.939	48.33333
67.162	59.66667
71.382	57
75.599	47.66667
79.812	65
84.021	81.66667
88.227	57.66667
92.429	63
96.628	51.66667
100.823	67.33333
105.015	75.66667
109.204	73
113.388	78.33333
117.57	71
121.748	88
125.922	80.66667
130.093	100
134.261	108.66667
138.425	104
142.585	137
146.742	137.66667
150.896	169.66667
155.046	203.33333
159.193	328.66667
163.336	549
167.476	1003.33333
171.613	1877
175.746	3138.33333
179.875	4686.33333
184.002	6087.66667
188.124	7041
192.244	7313.33333
196.36	7239.66667
200.472	7036.33333
204.581	6841.66667
208.687	6648.33333
212.79	6602
216.889	6619.66667
220.984	6697
225.077	6730.33333
229.165	6797.33333
233.251	6837
237.333	6867
241.412	6793.33333
245.487	6794
249.559	6708.66667
253.628	6630
257.694	6586
261.756	6497.66667
265.814	6414.33333
269.87	6243
273.922	6118
277.97	6068.66667
282.016	6071.66667
286.058	6114.33333
290.097	6264.33333
294.132	6274
298.164	6154
302.193	5868
306.219	5424.33333
310.241	4899.66667
314.26	4486
318.276	4110
322.288	3805
326.297	3572.33333
330.303	3416.66667
334.305	3288.66667
338.305	3213
342.301	3153.66667
346.294	3107
350.283	3067.66667
354.269	3056
358.252	3028.66667
362.232	3021.33333
366.209	2961.66667
370.182	2935
374.152	2917.66667
378.119	2946.33333
382.083	2909.33333
386.043	2928
390	2883
393.954	2851
397.905	2813.66667
401.852	2808.66667
405.797	2753.66667
409.738	2725
413.676	2737.66667
417.61	2700.66667
421.542	2670.66667
425.47	2639.66667
429.396	2622
433.318	2605.33333
437.236	2609
441.152	2613.66667
445.065	2562
448.974	2574
452.88	2522
456.783	2522.66667
460.683	2482.33333
464.58	2512.66667
468.473	2484.66667
472.364	2523
476.251	2513.66667
480.135	2528
484.016	2557.33333
487.894	2557.66667
491.769	2578.33333
495.641	2589
499.509	2567.33333
503.375	2591
507.237	2558.66667
511.096	2542.66667
514.952	2563
518.805	2552.33333
522.655	2571.66667
526.502	2524.33333
530.346	2537.33333
534.187	2555.66667
538.024	2542.66667
541.859	2535
545.69	2550.66667
549.519	2542.66667
553.344	2496.66667
557.166	2466
560.985	2458.66667
564.802	2438
568.615	2401.33333
572.425	2365.33333
576.232	2346
580.036	2339.66667
583.836	2364.33333
587.634	2376.33333
591.429	2375.33333
595.221	2400.33333
599.01	2433
602.796	2459.66667
606.578	2477.66667
610.358	2483.33333
614.135	2464.33333
617.909	2477.66667
621.679	2469.66667
625.447	2430
629.212	2454
632.973	2460
636.732	2434.33333
640.488	2444.66667
644.241	2407.66667
647.991	2414.33333
651.737	2405.33333
655.481	2374.66667
659.222	2367
662.96	2361
666.695	2380.66667
670.427	2396
674.156	2424.33333
677.882	2427.33333
681.605	2415
685.325	2380.33333
689.043	2428
692.757	2393
696.468	2417.66667
700.177	2407.33333
703.882	2395.66667
707.585	2407.66667
711.284	2399.66667
714.981	2420
718.675	2448
722.366	2462.66667
726.054	2442
729.739	2454
733.421	2445.66667
737.1	2433.33333
740.777	2436
744.45	2478.33333
748.121	2478.66667
751.789	2539.33333
755.453	2532
759.115	2548.66667
762.774	2572.66667
766.431	2597.33333
770.084	2609
773.734	2651
777.382	2732
781.027	2717
784.669	2744.66667
788.308	2778.33333
791.944	2792.33333
795.577	2827
799.208	2837.33333
802.835	2836.66667
806.46	2862
810.082	2870
813.701	2866.66667
817.317	2898.66667
820.931	2894.33333
824.542	2885.33333
828.149	2900.33333
831.754	2878.66667
835.357	2870
838.956	2874
842.553	2860
846.146	2877.66667
849.737	2879.66667
853.326	2884.66667
856.911	2887.33333
860.493	2918
864.073	2962.33333
867.65	3014.33333
871.225	3046.66667
874.796	3057.66667
878.365	3045.33333
881.931	3056
885.494	3114.33333
889.054	3101.33333
892.612	3098.66667
896.166	3065.66667
899.719	3055.66667
903.268	3007.33333
906.814	2983
910.358	2961.66667
913.899	2953
917.438	2956.33333
920.973	2928.33333
924.506	2952.33333
928.036	2999
931.564	3027.66667
935.088	3070.66667
938.61	3044.33333
942.129	3112.66667
945.646	3175.66667
949.16	3262.66667
952.671	3318
956.179	3315
959.685	3251.66667
963.188	3237.66667
966.688	3168.33333
970.185	3106.66667
973.68	3056.66667
977.173	3044.66667
980.662	3037.33333
984.149	3055
987.633	3060
991.114	3120.33333
994.593	3212.33333
998.069	3322.33333
1001.542	3425.66667
1005.013	3298
1008.481	3138.33333
1011.947	3099.33333
1015.409	3053.66667
1018.869	3075.66667
1022.327	3092
1025.782	3064
1029.234	3040.33333
1032.683	3040
1036.13	2911
1039.574	2813
1043.016	2737.33333
1046.455	2691
1049.891	2645.66667
1053.325	2653
1056.756	2660
1060.184	2682
1063.61	2691
1067.033	2702
1070.454	2710.66667
1073.872	2748
1077.287	2741.66667
1080.7	2751
1084.11	2773
1087.517	2722
1090.922	2715
1094.325	2668.66667
1097.724	2666.33333
1101.122	2674.33333
1104.516	2654
1107.908	2649.33333
1111.298	2711
1114.684	2761
1118.069	2760
1121.45	2794
1124.83	2796.66667
1128.206	2812
1131.58	2868
1134.951	2947.66667
1138.32	3024.66667
1141.687	3151.33333
1145.05	3239.33333
1148.412	3242.33333
1151.77	3220.33333
1155.126	3262
1158.48	3255.66667
1161.831	3269
1165.18	3287.66667
1168.525	3347.33333
1171.869	3397.33333
1175.21	3391
1178.548	3433.66667
1181.884	3483.33333
1185.217	3482
1188.548	3567.66667
1191.877	3596.33333
1195.202	3670.33333
1198.526	3722
1201.846	3737
1205.165	3744
1208.48	3705.33333
1211.794	3712
1215.104	3685.66667
1218.413	3705.66667
1221.719	3726.66667
1225.022	3695
1228.323	3663.33333
1231.621	3652.33333
1234.917	3627.66667
1238.21	3678
1241.501	3652.33333
1244.79	3668.33333
1248.076	3673.33333
1251.359	3716
1254.64	3789.66667
1257.919	3811.66667
1261.195	3859
1264.468	3921.33333
1267.74	3974
1271.008	3961.66667
1274.275	3948.33333
1277.538	3916.33333
1280.8	3888.33333
1284.059	3900.66667
1287.315	3965.33333
1290.569	3966.66667
1293.821	3970.33333
1297.07	3991.33333
1300.317	3988.33333
1303.562	4002.33333
1306.803	3918.66667
1310.043	3900
1313.28	3857.33333
1316.515	3764.66667
1319.747	3737.33333
1322.977	3668.33333
1326.204	3624.33333
1329.429	3579.33333
1332.652	3524.66667
1335.872	3556.33333
1339.09	3531
1342.306	3551
1345.519	3515.66667
1348.729	3507
1351.938	3458.33333
1355.144	3431
1358.347	3390.66667
1361.548	3395.33333
1364.747	3386.66667
1367.944	3382.66667
1371.138	3405
1374.329	3429.66667
1377.518	3471
1380.705	3486
1383.89	3459.66667
1387.072	3354.66667
1390.252	3249.33333
1393.429	3159.33333
1396.605	3056.66667
1399.777	2985.33333
1402.948	2975
1406.116	2925.33333
1409.282	2959.33333
1412.445	2976.66667
1415.606	2997
1418.765	3047
1421.921	3142
1425.075	3211
1428.227	3307.33333
1431.376	3407.33333
1434.524	3553
1437.668	3581.66667
1440.811	3622.33333
1443.951	3649.66667
1447.089	3637.33333
1450.224	3640.33333
1453.357	3618.33333
1456.488	3578.33333
1459.617	3527
1462.743	3515.66667
1465.867	3434
1468.989	3380
1472.108	3309.66667
1475.225	3276.66667
1478.34	3248
1481.453	3246.33333
1484.563	3266
1487.671	3314
1490.776	3364.66667
1493.88	3466.33333
1496.981	3511
1500.08	3595.66667
1503.176	3633.33333
1506.271	3697
1509.363	3743.66667
1512.452	3774.33333
1515.54	3836.33333
1518.625	3930
1521.708	4058
1524.789	4239
1527.867	4474.66667
1530.944	4747
1534.018	4996
1537.089	5206.33333
1540.159	5204.33333
1543.226	5143
1546.291	4968.33333
1549.354	4793
1552.415	4667.66667
1555.473	4504.66667
1558.529	4415.66667
1561.583	4341.66667
1564.634	4330.66667
1567.684	4304.66667
1570.731	4296
1573.776	4304
1576.819	4341
1579.859	4340.33333
1582.898	4394
1585.934	4384
1588.968	4424.66667
1591.999	4361.33333
1595.029	4374
1598.056	4401.33333
1601.081	4420
1604.104	4383.66667
1607.125	4358.66667
1610.144	4273
1613.16	4157
1616.174	4023.33333
1619.186	3899.33333
1622.196	3812.66667
1625.203	3706.33333
1628.209	3621.33333
1631.212	3558
1634.213	3515.33333
1637.212	3493.33333
1640.209	3417.33333
1643.203	3326.33333
1646.196	3235
1649.186	3156.33333
1652.174	3070.33333
1655.16	2959.33333
1658.144	2874.66667
1661.125	2718.33333
1664.105	2625
1667.082	2508.66667
1670.057	2374.66667
1673.03	2248
1676.001	2125
1678.97	1984
1681.937	1898.33333
1684.901	1793.66667
1687.863	1744
1690.824	1673.33333
1693.782	1642
1696.738	1596
1699.692	1552
1702.643	1526.33333
1705.593	1491
1708.54	1479.66667
1711.486	1487.33333
1714.429	1424.66667
1717.37	1421
1720.309	1405.66667
1723.246	1408
1726.181	1370
1729.113	1372.66667
1732.044	1359
1734.972	1353.33333
1737.899	1344.33333
1740.823	1318.33333
1743.745	1347.66667
1746.665	1285.66667
1749.583	1251.66667
1752.499	1243.33333
1755.413	1237.33333
1758.325	1201
1761.235	1195.66667
1764.142	1168
1767.048	1150
1769.951	1151.33333
1772.852	1145.33333
1775.752	1135
1778.649	1141.66667
1781.544	1138.66667
1784.437	1125
1787.328	1118.66667
1790.217	1100.66667
1793.104	1083.66667
1795.989	1089.66667
1798.872	1087
1801.753	1104.33333
1804.631	1088.33333
1807.508	1095.33333
1810.383	1081.66667
1813.255	1052.33333
1816.126	1070.66667
1818.994	1056.33333
1821.861	1056
1824.725	1049.66667
1827.587	1046
1830.448	1050.33333
1833.306	1005.66667
1836.162	1029.66667
1839.017	1030
1841.869	1008
1844.719	1022
1847.567	984
1850.414	1000.33333
1853.258	1000.33333
1856.1	1019.33333
1858.94	1022
1861.778	1002.33333
1864.614	996.33333
1867.448	993.33333
1870.28	991
1873.111	1008.66667
1875.939	993
1878.765	1003.33333
1881.589	984.33333
1884.411	983.33333
1887.231	998.66667
1890.049	992
1892.865	986.33333
1895.68	978.66667
1898.492	968.33333
1901.302	955.66667
1904.11	966
1906.916	951.33333
1909.721	960.33333
1912.523	959.33333
1915.323	919.66667
1918.122	940.66667
1920.918	949
1923.712	931
1926.505	951.66667
1929.295	933.33333
1932.084	949
1934.87	948.33333
1937.655	931.33333
1940.438	921.66667
1943.218	925.66667
1945.997	929.33333
1948.774	940.66667
1951.549	931
1954.322	914.66667
1957.093	924.66667
1959.862	917.66667
1962.629	910.33333
1965.394	910.33333
1968.157	879.33333
1970.918	897.33333
1973.678	891.66667
1976.435	900.66667
1979.19	886.33333
1981.944	887.66667
1984.696	877.33333
1987.445	872.66667
1990.193	871
1992.939	886.66667
1995.683	892
1998.425	857.66667
2001.165	896.66667
2003.903	874.66667
2006.639	873
2009.374	875
2012.106	874
2014.837	851
2017.566	873.66667
2020.292	870.66667
2023.017	863.33333
2025.74	859.33333
2028.461	842.66667
2031.18	847
2033.898	847.66667
2036.613	854.33333
2039.327	848
2042.038	828.33333
2044.748	849
2047.456	847
2050.162	830
2052.866	829.66667
2055.568	842
2058.268	827.66667
2060.967	834.66667
2063.663	817.33333
2066.358	835.66667
2069.051	822.66667
2071.742	832
2074.431	843.66667
2077.118	836.33333
2079.804	824.66667
2082.487	839
2085.169	856
2087.849	856.66667
2090.527	848.66667
2093.203	848.66667
2095.877	861.66667
2098.55	885
2101.22	890.66667
2103.889	924
2106.556	918.33333
2109.221	971
2111.884	1023
2114.546	1117.33333
2117.205	1230.66667
2119.863	1341.33333
2122.519	1458.66667
2125.173	1571.33333
2127.825	1644.33333
2130.475	1646.66667
2133.124	1615.66667
2135.771	1519.66667
2138.416	1443.66667
2141.059	1331.33333
2143.7	1263
2146.339	1179
2148.977	1098.66667
2151.613	1070.33333
2154.247	1030
2156.879	998
2159.51	957.66667
2162.138	931.66667
2164.765	932
2167.39	900.33333
2170.013	896
2172.634	902
2175.254	867
2177.872	888.66667
2180.488	846
2183.102	858.66667
2185.714	826
2188.325	807.33333
2190.934	822.66667
2193.541	810
2196.146	792
2198.75	794.66667
2201.351	787.66667
2203.951	762.66667
2206.549	778.33333
2209.146	769
2211.74	746.33333
2214.333	762
2216.924	726.66667
2219.514	747
2222.101	735.66667
2224.687	734.66667
2227.271	719
2229.853	714
2232.433	697.66667
2235.012	711.33333
2237.589	707.33333
2240.164	702.66667
2242.738	721.33333
2245.309	700
2247.879	710.66667
2250.448	713.33333
2253.014	688.33333
2255.579	686
2258.142	660
2260.703	659.33333
2263.262	657.66667
2265.82	660
2268.376	667.33333
2270.93	642.66667
2273.483	649
2276.033	654
2278.583	637
2281.13	636.66667
2283.675	629.66667
2286.219	631
2288.761	634.33333
2291.302	634
2293.841	637.33333
2296.377	621.33333
2298.913	625
2301.446	622.66667
2303.978	621.33333
2306.508	612
2309.037	617
2311.563	617.66667
2314.088	625.66667
2316.612	585.66667
2319.133	608
2321.653	600.66667
2324.171	589.66667
2326.688	609
2329.202	587.33333
2331.715	592.66667
2334.227	586.66667
2336.736	587
2339.244	583.33333
2341.751	585
2344.255	579.33333
2346.758	571.33333
2349.259	577
2351.759	577.66667
2354.257	570.33333
2356.753	557
2359.247	568
2361.74	582
2364.231	572.33333
2366.721	570.33333
2369.209	562.33333
2371.695	557.66667
2374.179	549.33333
2376.662	555
2379.143	579.33333
2381.622	556
2384.1	556.33333
2386.576	553.66667
2389.051	568.33333
2391.524	574
2393.995	563.33333
2396.464	543.66667
2398.932	541.33333
2401.398	551
2403.863	538.33333
2406.325	551.33333
2408.787	539
2411.246	537
2413.704	534.66667
2416.16	530.66667
2418.615	538.66667
2421.068	551
2423.519	525.66667
2425.969	523.66667
2428.417	539.66667
2430.863	550.66667
2433.308	541
2435.751	525.66667
2438.193	533.66667
2440.633	532
2443.071	530.33333
2445.508	516.33333
2447.943	510.66667
2450.376	510.66667
2452.808	520.33333
2455.238	510.33333
2457.667	539.66667
2460.093	516.66667
2462.519	507
2464.942	509.66667
2467.365	513.33333
2469.785	513
2472.204	513.66667
2474.621	502
2477.037	527
2479.451	491.33333
2481.863	500
2484.274	493.66667
2486.683	503.33333
2489.091	505.66667
2491.497	497.66667
2493.901	493.33333
2496.304	503.66667
2498.705	500.33333
2501.105	488.33333
2503.503	518.33333
2505.899	485
2508.294	508
2510.687	482.66667
2513.079	476
2515.469	484.33333
2517.858	489.66667
2520.245	500.33333
2522.63	481.66667
2525.014	473
2527.396	479.33333
2529.776	464.66667
2532.156	475.33333
2534.533	472.66667
2536.909	476
2539.283	462.66667
2541.656	470.33333
2544.027	492.33333
2546.397	477.33333
2548.765	473.33333
2551.131	468.33333
2553.496	469.66667
2555.86	477
2558.221	481.66667
2560.582	467.33333
2562.94	448.33333
2565.298	456.66667
2567.653	485
2570.007	457
2572.36	468
2574.711	461.33333
2577.06	473
2579.408	464.33333
2581.754	456.66667
2584.099	463
2586.442	453
2588.784	464.66667
2591.124	464.33333
2593.463	452.33333
2595.8	462
2598.135	448
2600.469	455.66667
2602.802	464
2605.133	469.66667
2607.462	451.66667
2609.79	450
2612.116	465.66667
2614.441	448.66667
2616.764	454.66667
2619.086	450
2621.406	448.66667
2623.725	461.66667
2626.042	455.66667
2628.358	442.66667
2630.672	447
2632.985	467
2635.296	445.66667
2637.606	465
2639.914	443.66667
2642.22	461.66667
2644.525	447
2646.829	457
2649.131	466.66667
2651.432	468.66667
2653.731	451.66667
2656.028	459.33333
2658.324	458.66667
2660.619	448.66667
2662.912	465.33333
2665.204	439.66667
2667.494	467.66667
2669.782	451.66667
2672.07	460.33333
2674.355	475
2676.639	456.33333
2678.922	446.66667
2681.203	473.33333
2683.483	450.66667
2685.761	448.66667
2688.038	474
2690.313	472.66667
2692.587	465
2694.859	455.66667
2697.13	465.33333
2699.399	474.33333
2701.667	474.33333
2703.933	487.33333
2706.198	472
2708.461	481.33333
2710.723	490.66667
2712.984	485
2715.243	497.66667
2717.5	483.33333
2719.757	504
2722.011	488.33333
2724.264	503.66667
2726.516	500.66667
2728.766	500
2731.015	492
2733.262	496.33333
2735.508	489.66667
2737.753	494.33333
2739.996	490.66667
2742.237	470.66667
2744.477	483
2746.716	492.33333
2748.953	481.66667
2751.189	484
2753.423	480.66667
2755.656	471.33333
2757.887	465.66667
2760.117	470.33333
2762.346	466.66667
2764.573	463.66667
2766.798	463.33333
2769.022	468.66667
2771.245	466.66667
2773.467	475.33333
2775.686	479
2777.905	473.66667
2780.122	484.66667
2782.337	494.33333
2784.552	488.33333
2786.764	508.33333
2788.976	502.66667
2791.186	518
2793.394	517.66667
2795.601	531.33333
2797.807	544
2800.011	536.66667
2802.214	557
2804.415	557.33333
2806.615	553.33333
2808.814	575.66667
2811.011	585
2813.206	585.66667
2815.401	608.66667
2817.594	614.66667
2819.785	626.33333
2821.975	614.33333
2824.164	619.66667
2826.351	650
2828.537	670.66667
2830.722	677
2832.905	674.66667
2835.086	706
2837.267	744.66667
2839.445	764.66667
2841.623	781.33333
2843.799	830.33333
2845.974	838.33333
2848.147	886.66667
2850.319	904.33333
2852.489	939.33333
2854.659	940.66667
2856.826	946
2858.993	984.33333
2861.158	967.66667
2863.321	952
2865.483	988
2867.644	978
2869.804	976
2871.962	965
2874.118	971
2876.274	967
2878.428	961
2880.58	962.33333
2882.731	936
2884.881	943
2887.03	950.33333
2889.177	937
2891.322	954.33333
2893.467	952.33333
2895.61	964
2897.751	975
2899.892	952.33333
2902.03	965.33333
2904.168	985
2906.304	971
2908.439	1000.33333
2910.572	960
2912.704	986
2914.835	979
2916.965	983.33333
2919.093	994.33333
2921.219	961.33333
2923.345	967.33333
2925.469	941.33333
2927.591	931.66667
2929.712	892.33333
2931.832	893
2933.951	862
2936.068	839.33333
2938.184	815.33333
2940.299	792
2942.412	777.66667
2944.524	738.66667
2946.634	711.66667
2948.744	671.66667
2950.851	688
2952.958	641
2955.063	615.33333
2957.167	604
2959.269	580.66667
2961.371	604.33333
2963.471	551
2965.569	565.33333
2967.666	529
2969.762	514.66667
2971.857	502.66667
2973.95	473.66667
2976.042	481.33333
2978.133	459
2980.222	441
2982.31	431
2984.396	411.33333
2986.482	414
2988.566	414.33333
2990.648	391.66667
2992.73	390
2994.81	380
2996.889	386
2998.966	369.66667
3001.042	373.33333
3003.117	371
3005.191	363.33333
3007.263	355.33333
3009.334	348
3011.403	357.66667
3013.472	332.33333
3015.539	346
3017.604	344.33333
3019.669	317
3021.732	324.66667
3023.794	316.33333
3025.854	291.33333
3027.914	308
3029.971	308.66667
3032.028	304
3034.083	304
3036.137	295.33333
3038.19	287.66667
3040.242	274
3042.292	270
3044.341	272
3046.388	288.66667
3048.435	260
3050.48	276.33333
3052.524	272.66667
3054.566	248.66667
3056.607	265
3058.647	252.33333
3060.686	235.66667
3062.723	235.33333
3064.759	227.66667
3066.794	1.33333
3068.828	-2
3070.86	-2.66667
