-0.839	439.875
3.438	477.54167
7.711	138.20833
11.981	52.20833
16.247	50.20833
20.509	43.20833
24.768	44.54167
29.024	44.875
33.276	41.875
37.524	49.875
41.769	40.20833
46.01	35.54167
50.247	50.20833
54.481	60.54167
58.712	65.875
62.939	50.20833
67.162	60.20833
71.382	56.54167
75.599	48.875
79.812	60.875
84.021	85.875
88.227	58.54167
92.429	63.20833
96.628	50.875
100.823	70.20833
105.015	74.20833
109.204	75.875
113.388	76.54167
117.57	77.20833
121.748	92.54167
125.922	80.54167
130.093	101.875
134.261	102.54167
138.425	106.54167
142.585	142.54167
146.742	139.54167
150.896	172.875
155.046	204.54167
159.193	334.20833
163.336	577.875
167.476	1049.875
171.613	1925.20833
175.746	3210.20833
179.875	4761.54167
184.002	6227.875
188.124	7158.54167
192.244	7499.54167
196.36	7345.875
200.472	7096.875
204.581	6843.875
208.687	6643.20833
212.79	6492.54167
216.889	6471.875
220.984	6497.20833
225.077	6561.20833
229.165	6588.20833
233.251	6636.20833
237.333	6649.20833
241.412	6620.875
245.487	6538.54167
249.559	6482.875
253.628	6480.20833
257.694	6413.875
261.756	6364.20833
265.814	6232.54167
269.87	6070.875
273.922	5913.54167
277.97	5796.875
282.016	5761.20833
286.058	5738.20833
290.097	5801.875
294.132	5829.875
298.164	5795.20833
302.193	5543.875
306.219	5151.20833
310.241	4665.875
314.26	4199.20833
318.276	3830.875
322.288	3547.875
326.297	3336.875
330.303	3186.20833
334.305	3071.54167
338.305	3011.54167
342.301	2955.54167
346.294	2910.875
350.283	2883.54167
354.269	2842.20833
358.252	2810.875
362.232	2783.54167
366.209	2756.875
370.182	2713.54167
374.152	2697.20833
378.119	2724.54167
382.083	2711.54167
386.043	2723.54167
390	2660.875
393.954	2656.54167
397.905	2638.54167
401.852	2614.54167
405.797	2588.875
409.738	2564.54167
413.676	2542.54167
417.61	2547.875
421.542	2508.20833
425.47	2499.54167
429.396	2453.54167
433.318	2440.875
437.236	2421.54167
441.152	2443.875
445.065	2393.875
448.974	2369.875
452.88	2339.875
456.783	2336.875
460.683	2304.875
464.58	2316.54167
468.473	2329.54167
472.364	2332.20833
476.251	2337.20833
480.135	2359.54167
484.016	2373.20833
487.894	2396.54167
491.769	2399.875
495.641	2407.20833
499.509	2394.20833
503.375	2398.54167
507.237	2405.875
511.096	2393.20833
514.952	2399.20833
518.805	2427.20833
522.655	2445.54167
526.502	2391.20833
530.346	2369.20833
534.187	2390.54167
538.024	2418.54167
541.859	2402.54167
545.69	2454.20833
549.519	2411.20833
553.344	2383.875
557.166	2366.875
560.985	2321.20833
564.802	2303.20833
568.615	2238.875
572.425	2234.20833
576.232	2214.54167
580.036	2202.54167
583.836	2210.54167
587.634	2199.875
591.429	2190.875
595.221	2256.20833
599.01	2268.875
602.796	2310.875
606.578	2309.20833
610.358	2312.54167
614.135	2315.875
617.909	2318.54167
621.679	2305.875
625.447	2271.20833
629.212	2285.875
632.973	2275.54167
636.732	2284.875
640.488	2292.20833
644.241	2246.875
647.991	2255.54167
651.737	2267.54167
655.481	2271.875
659.222	2256.20833
662.96	2263.875
666.695	2293.54167
670.427	2298.875
674.156	2278.875
677.882	2280.20833
681.605	2285.54167
685.325	2253.54167
689.043	2265.54167
692.757	2242.20833
696.468	2244.20833
700.177	2260.875
703.882	2225.54167
707.585	2240.54167
711.284	2242.54167
714.981	2253.20833
718.675	2271.20833
722.366	2280.20833
726.054	2248.20833
729.739	2259.20833
733.421	2250.20833
737.1	2241.875
740.777	2271.20833
744.45	2278.20833
748.121	2306.54167
751.789	2373.20833
755.453	2366.20833
759.115	2373.20833
762.774	2400.875
766.431	2388.54167
770.084	2444.20833
773.734	2479.875
777.382	2511.54167
781.027	2533.875
784.669	2550.54167
788.308	2551.875
791.944	2584.875
795.577	2610.20833
799.208	2636.875
802.835	2648.54167
806.46	2670.875
810.082	2696.20833
813.701	2718.54167
817.317	2737.875
820.931	2724.54167
824.542	2712.54167
828.149	2699.54167
831.754	2649.54167
835.357	2637.54167
838.956	2665.20833
842.553	2651.54167
846.146	2618.54167
849.737	2599.875
853.326	2611.875
856.911	2631.20833
860.493	2666.54167
864.073	2667.875
867.65	2716.875
871.225	2746.20833
874.796	2754.875
878.365	2757.54167
881.931	2783.20833
885.494	2798.20833
889.054	2794.20833
892.612	2788.20833
896.166	2771.54167
899.719	2736.875
903.268	2723.20833
906.814	2708.54167
910.358	2696.20833
913.899	2699.54167
917.438	2690.54167
920.973	2680.20833
924.506	2741.54167
928.036	2778.875
931.564	2800.54167
935.088	2846.20833
938.61	2838.875
942.129	2884.20833
945.646	2948.875
949.16	3020.20833
952.671	3093.20833
956.179	3104.54167
959.685	3109.54167
963.188	3100.54167
966.688	3047.875
970.185	2973.20833
973.68	2890.875
977.173	2845.54167
980.662	2816.54167
984.149	2825.54167
987.633	2835.54167
991.114	2873.20833
994.593	2970.20833
998.069	3078.20833
1001.542	3183.54167
1005.013	3105.20833
1008.481	2961.54167
1011.947	2972.20833
1015.409	2852.875
1018.869	2840.875
1022.327	2837.54167
1025.782	2836.20833
1029.234	2831.875
1032.683	2826.20833
1036.13	2714.20833
1039.574	2607.875
1043.016	2549.20833
1046.455	2487.875
1049.891	2457.54167
1053.325	2473.20833
1056.756	2473.54167
1060.184	2481.20833
1063.61	2496.54167
1067.033	2532.54167
1070.454	2514.20833
1073.872	2560.54167
1077.287	2557.875
1080.7	2568.875
1084.11	2564.54167
1087.517	2544.54167
1090.922	2515.20833
1094.325	2462.54167
1097.724	2464.20833
1101.122	2466.875
1104.516	2440.875
1107.908	2459.20833
1111.298	2492.54167
1114.684	2529.875
1118.069	2537.54167
1121.45	2586.20833
1124.83	2568.54167
1128.206	2591.54167
1131.58	2645.20833
1134.951	2732.875
1138.32	2826.875
1141.687	2958.875
1145.05	3031.20833
1148.412	3045.20833
1151.77	3028.54167
1155.126	3005.875
1158.48	3003.20833
1161.831	3021.54167
1165.18	3013.875
1168.525	3076.54167
1171.869	3103.20833
1175.21	3132.20833
1178.548	3175.875
1181.884	3189.875
1185.217	3218.54167
1188.548	3284.54167
1191.877	3346.54167
1195.202	3439.54167
1198.526	3485.875
1201.846	3490.20833
1205.165	3517.20833
1208.48	3481.54167
1211.794	3478.875
1215.104	3489.875
1218.413	3520.875
1221.719	3522.54167
1225.022	3450.54167
1228.323	3399.20833
1231.621	3381.20833
1234.917	3370.54167
1238.21	3400.20833
1241.501	3380.54167
1244.79	3378.54167
1248.076	3367.54167
1251.359	3389.875
1254.64	3474.54167
1257.919	3488.875
1261.195	3536.54167
1264.468	3640.875
1267.74	3690.20833
1271.008	3692.54167
1274.275	3716.875
1277.538	3639.875
1280.8	3625.875
1284.059	3639.20833
1287.315	3685.875
1290.569	3724.20833
1293.821	3724.54167
1297.07	3731.20833
1300.317	3742.875
1303.562	3758.875
1306.803	3728.54167
1310.043	3696.20833
1313.28	3649.20833
1316.515	3596.54167
1319.747	3575.875
1322.977	3528.875
1326.204	3470.875
1329.429	3433.20833
1332.652	3410.20833
1335.872	3371.875
1339.09	3345.875
1342.306	3352.54167
1345.519	3306.875
1348.729	3291.875
1351.938	3275.20833
1355.144	3220.875
1358.347	3176.54167
1361.548	3185.20833
1364.747	3185.875
1367.944	3183.54167
1371.138	3209.875
1374.329	3232.875
1377.518	3254.875
1380.705	3317.20833
1383.89	3305.875
1387.072	3188.875
1390.252	3082.54167
1393.429	2951.875
1396.605	2843.54167
1399.777	2763.54167
1402.948	2732.20833
1406.116	2712.875
1409.282	2736.20833
1412.445	2723.54167
1415.606	2747.20833
1418.765	2788.875
1421.921	2876.20833
1425.075	2949.875
1428.227	3058.875
1431.376	3200.875
1434.524	3327.20833
1437.668	3410.20833
1440.811	3446.875
1443.951	3458.875
1447.089	3477.54167
1450.224	3463.875
1453.357	3441.875
1456.488	3435.54167
1459.617	3375.20833
1462.743	3300.54167
1465.867	3255.54167
1468.989	3209.20833
1472.108	3141.875
1475.225	3084.875
1478.34	3034.20833
1481.453	3058.875
1484.563	3054.875
1487.671	3102.20833
1490.776	3156.20833
1493.88	3224.875
1496.981	3274.875
1500.08	3364.875
1503.176	3381.875
1506.271	3439.20833
1509.363	3466.20833
1512.452	3501.20833
1515.54	3584.875
1518.625	3626.54167
1521.708	3767.875
1524.789	3947.20833
1527.867	4137.54167
1530.944	4370.54167
1534.018	4606.54167
1537.089	4786.20833
1540.159	4745.54167
1543.226	4678.875
1546.291	4530.54167
1549.354	4376.875
1552.415	4285.20833
1555.473	4135.54167
1558.529	4057.875
1561.583	4010.54167
1564.634	3991.875
1567.684	3985.875
1570.731	3992.54167
1573.776	4042.54167
1576.819	4074.54167
1579.859	4078.54167
1582.898	4144.875
1585.934	4176.54167
1588.968	4213.20833
1591.999	4179.54167
1595.029	4182.20833
1598.056	4200.20833
1601.081	4213.875
1604.104	4206.54167
1607.125	4158.20833
1610.144	4090.20833
1613.16	3988.875
1616.174	3934.875
1619.186	3810.875
1622.196	3726.20833
1625.203	3622.875
1628.209	3584.54167
1631.212	3568.875
1634.213	3545.20833
1637.212	3515.20833
1640.209	3481.20833
1643.203	3360.875
1646.196	3281.54167
1649.186	3150.20833
1652.174	3065.875
1655.16	2960.54167
1658.144	2882.20833
1661.125	2749.20833
1664.105	2593.20833
1667.082	2506.20833
1670.057	2335.54167
1673.03	2196.875
1676.001	2054.54167
1678.97	1896.54167
1681.937	1781.875
1684.901	1683.875
1687.863	1611.54167
1690.824	1537.54167
1693.782	1514.20833
1696.738	1476.875
1699.692	1421.20833
1702.643	1399.20833
1705.593	1380.20833
1708.54	1349.54167
1711.486	1357.875
1714.429	1311.20833
1717.37	1318.54167
1720.309	1306.20833
1723.246	1300.54167
1726.181	1257.54167
1729.113	1256.875
1732.044	1235.54167
1734.972	1235.54167
1737.899	1232.20833
1740.823	1226.875
1743.745	1215.875
1746.665	1157.20833
1749.583	1157.875
1752.499	1138.20833
1755.413	1127.54167
1758.325	1091.54167
1761.235	1093.54167
1764.142	1069.875
1767.048	1077.875
1769.951	1048.875
1772.852	1057.54167
1775.752	1036.875
1778.649	1038.20833
1781.544	1036.54167
1784.437	1018.20833
1787.328	1019.875
1790.217	1015.20833
1793.104	981.20833
1795.989	975.54167
1798.872	980.54167
1801.753	992.20833
1804.631	984.20833
1807.508	1002.20833
1810.383	976.54167
1813.255	978.54167
1816.126	983.20833
1818.994	966.875
1821.861	956.875
1824.725	954.54167
1827.587	948.54167
1830.448	944.875
1833.306	925.54167
1836.162	942.20833
1839.017	927.54167
1841.869	919.54167
1844.719	934.20833
1847.567	913.875
1850.414	912.54167
1853.258	912.54167
1856.1	915.54167
1858.94	928.875
1861.778	908.54167
1864.614	903.54167
1867.448	903.20833
1870.28	898.54167
1873.111	921.875
1875.939	895.875
1878.765	917.875
1881.589	896.20833
1884.411	892.20833
1887.231	910.875
1890.049	895.20833
1892.865	891.875
1895.68	871.875
1898.492	890.875
1901.302	872.54167
1904.11	873.54167
1906.916	867.54167
1909.721	850.20833
1912.523	860.54167
1915.323	844.54167
1918.122	834.54167
1920.918	858.875
1923.712	839.875
1926.505	858.54167
1929.295	828.54167
1932.084	845.20833
1934.87	853.54167
1937.655	832.875
1940.438	826.875
1943.218	838.54167
1945.997	835.20833
1948.774	857.875
1951.549	830.875
1954.322	823.875
1957.093	836.20833
1959.862	830.20833
1962.629	822.20833
1965.394	830.875
1968.157	809.54167
1970.918	825.20833
1973.678	804.54167
1976.435	825.54167
1979.19	817.54167
1981.944	794.875
1984.696	809.54167
1987.445	789.54167
1990.193	798.20833
1992.939	807.54167
1995.683	794.54167
1998.425	787.20833
2001.165	806.875
2003.903	787.875
2006.639	788.875
2009.374	771.20833
2012.106	786.875
2014.837	765.54167
2017.566	785.20833
2020.292	788.20833
2023.017	778.54167
2025.74	769.875
2028.461	779.875
2031.18	779.875
2033.898	764.875
2036.613	772.875
2039.327	778.20833
2042.038	763.875
2044.748	753.20833
2047.456	754.20833
2050.162	743.20833
2052.866	745.20833
2055.568	755.875
2058.268	751.875
2060.967	760.875
2063.663	737.54167
2066.358	752.875
2069.051	734.875
2071.742	749.54167
2074.431	746.54167
2077.118	735.20833
2079.804	734.54167
2082.487	738.54167
2085.169	752.875
2087.849	764.875
2090.527	732.875
2093.203	742.54167
2095.877	755.54167
2098.55	744.54167
2101.22	771.875
2103.889	782.875
2106.556	759.20833
2109.221	790.875
2111.884	803.20833
2114.546	863.54167
2117.205	923.20833
2119.863	997.875
2122.519	1066.54167
2125.173	1130.875
2127.825	1220.20833
2130.475	1230.875
2133.124	1183.54167
2135.771	1140.875
2138.416	1072.54167
2141.059	1010.875
2143.7	984.20833
2146.339	916.875
2148.977	866.20833
2151.613	857.20833
2154.247	822.20833
2156.879	801.54167
2159.51	773.875
2162.138	782.54167
2164.765	780.875
2167.39	745.20833
2170.013	778.54167
2172.634	764.20833
2175.254	746.54167
2177.872	772.875
2180.488	729.20833
2183.102	731.20833
2185.714	725.54167
2188.325	712.875
2190.934	715.20833
2193.541	706.20833
2196.146	707.20833
2198.75	690.875
2201.351	686.20833
2203.951	667.54167
2206.549	694.20833
2209.146	668.54167
2211.74	660.20833
2214.333	668.875
2216.924	636.875
2219.514	658.875
2222.101	642.20833
2224.687	654.54167
2227.271	648.54167
2229.853	641.20833
2232.433	632.875
2235.012	648.875
2237.589	649.54167
2240.164	658.54167
2242.738	633.875
2245.309	623.875
2247.879	632.54167
2250.448	640.875
2253.014	603.54167
2255.579	595.20833
2258.142	605.54167
2260.703	583.54167
2263.262	584.20833
2265.82	588.20833
2268.376	597.54167
2270.93	580.875
2273.483	571.875
2276.033	590.20833
2278.583	571.20833
2281.13	572.875
2283.675	566.875
2286.219	572.54167
2288.761	570.54167
2291.302	571.875
2293.841	568.875
2296.377	554.875
2298.913	553.20833
2301.446	559.20833
2303.978	566.20833
2306.508	542.20833
2309.037	550.875
2311.563	553.875
2314.088	558.20833
2316.612	550.54167
2319.133	543.875
2321.653	538.875
2324.171	538.20833
2326.688	547.875
2329.202	530.875
2331.715	544.875
2334.227	533.875
2336.736	530.54167
2339.244	526.54167
2341.751	520.20833
2344.255	533.54167
2346.758	525.875
2349.259	509.20833
2351.759	516.54167
2354.257	507.875
2356.753	526.875
2359.247	515.20833
2361.74	510.20833
2364.231	504.875
2366.721	521.54167
2369.209	507.54167
2371.695	511.875
2374.179	502.875
2376.662	505.20833
2379.143	521.54167
2381.622	499.875
2384.1	508.20833
2386.576	496.20833
2389.051	510.54167
2391.524	515.20833
2393.995	504.875
2396.464	499.875
2398.932	484.875
2401.398	489.875
2403.863	490.20833
2406.325	497.875
2408.787	497.875
2411.246	495.54167
2413.704	494.875
2416.16	476.20833
2418.615	476.54167
2421.068	489.875
2423.519	483.54167
2425.969	478.875
2428.417	488.875
2430.863	510.875
2433.308	498.875
2435.751	482.54167
2438.193	479.20833
2440.633	483.54167
2443.071	486.875
2445.508	468.54167
2447.943	475.54167
2450.376	467.20833
2452.808	471.20833
2455.238	467.20833
2457.667	502.20833
2460.093	466.54167
2462.519	465.875
2464.942	464.20833
2467.365	478.20833
2469.785	469.875
2472.204	463.54167
2474.621	458.875
2477.037	478.54167
2479.451	455.54167
2481.863	451.54167
2484.274	458.20833
2486.683	453.20833
2489.091	469.54167
2491.497	464.20833
2493.901	455.20833
2496.304	453.54167
2498.705	468.20833
2501.105	449.54167
2503.503	469.20833
2505.899	447.20833
2508.294	469.875
2510.687	444.54167
2513.079	447.20833
2515.469	433.54167
2517.858	439.875
2520.245	455.875
2522.63	445.20833
2525.014	430.54167
2527.396	432.54167
2529.776	433.54167
2532.156	444.54167
2534.533	428.20833
2536.909	433.20833
2539.283	426.20833
2541.656	439.20833
2544.027	452.54167
2546.397	442.54167
2548.765	437.875
2551.131	429.20833
2553.496	425.54167
2555.86	435.875
2558.221	433.875
2560.582	428.875
2562.94	421.54167
2565.298	439.20833
2567.653	446.54167
2570.007	415.875
2572.36	427.54167
2574.711	426.875
2577.06	439.54167
2579.408	429.875
2581.754	424.54167
2584.099	427.875
2586.442	428.875
2588.784	437.20833
2591.124	432.875
2593.463	424.875
2595.8	421.875
2598.135	401.20833
2600.469	417.20833
2602.802	436.875
2605.133	436.54167
2607.462	417.875
2609.79	418.54167
2612.116	426.20833
2614.441	415.54167
2616.764	431.875
2619.086	413.54167
2621.406	415.54167
2623.725	431.875
2626.042	427.54167
2628.358	411.20833
2630.672	424.20833
2632.985	434.54167
2635.296	424.875
2637.606	428.20833
2639.914	407.20833
2642.22	423.20833
2644.525	417.20833
2646.829	428.875
2649.131	430.875
2651.432	431.875
2653.731	423.875
2656.028	436.875
2658.324	435.20833
2660.619	415.20833
2662.912	435.54167
2665.204	413.20833
2667.494	434.875
2669.782	411.875
2672.07	431.875
2674.355	435.54167
2676.639	426.20833
2678.922	424.875
2681.203	433.20833
2683.483	404.875
2685.761	409.875
2688.038	440.54167
2690.313	449.20833
2692.587	436.20833
2694.859	425.20833
2697.13	434.20833
2699.399	439.54167
2701.667	442.875
2703.933	439.20833
2706.198	449.875
2708.461	451.875
2710.723	454.54167
2712.984	452.875
2715.243	464.875
2717.5	453.20833
2719.757	466.54167
2722.011	456.875
2724.264	478.875
2726.516	487.20833
2728.766	469.54167
2731.015	466.54167
2733.262	465.875
2735.508	465.875
2737.753	463.875
2739.996	451.875
2742.237	457.875
2744.477	456.20833
2746.716	456.875
2748.953	456.20833
2751.189	449.20833
2753.423	441.54167
2755.656	434.875
2757.887	433.54167
2760.117	439.54167
2762.346	426.54167
2764.573	431.20833
2766.798	427.20833
2769.022	438.20833
2771.245	434.20833
2773.467	436.875
2775.686	437.875
2777.905	440.875
2780.122	448.875
2782.337	463.54167
2784.552	442.875
2786.764	449.20833
2788.976	457.875
2791.186	457.20833
2793.394	471.54167
2795.601	481.875
2797.807	489.875
2800.011	493.54167
2802.214	500.54167
2804.415	502.20833
2806.615	506.875
2808.814	514.54167
2811.011	518.20833
2813.206	519.875
2815.401	543.875
2817.594	543.875
2819.785	561.54167
2821.975	556.54167
2824.164	566.54167
2826.351	595.875
2828.537	615.20833
2830.722	623.54167
2832.905	640.54167
2835.086	663.875
2837.267	694.875
2839.445	732.54167
2841.623	744.875
2843.799	788.54167
2845.974	828.54167
2848.147	874.875
2850.319	899.54167
2852.489	915.54167
2854.659	944.20833
2856.826	953.54167
2858.993	986.875
2861.158	970.54167
2863.321	975.54167
2865.483	997.54167
2867.644	987.875
2869.804	997.54167
2871.962	975.875
2874.118	994.875
2876.274	975.54167
2878.428	969.20833
2880.58	973.20833
2882.731	973.54167
2884.881	968.20833
2887.03	980.20833
2889.177	974.54167
2891.322	988.54167
2893.467	992.875
2895.61	983.54167
2897.751	1010.20833
2899.892	1003.54167
2902.03	1021.20833
2904.168	1015.875
2906.304	1025.875
2908.439	1041.20833
2910.572	1023.875
2912.704	1043.20833
2914.835	1039.20833
2916.965	1037.20833
2919.093	1059.20833
2921.219	1006.875
2923.345	1033.875
2925.469	997.54167
2927.591	998.20833
2929.712	962.20833
2931.832	943.875
2933.951	926.20833
2936.068	896.875
2938.184	887.875
2940.299	850.875
2942.412	836.20833
2944.524	782.20833
2946.634	766.875
2948.744	716.54167
2950.851	728.875
2952.958	676.54167
2955.063	670.875
2957.167	652.875
2959.269	627.875
2961.371	637.875
2963.471	597.20833
2965.569	596.54167
2967.666	550.54167
2969.762	544.54167
2971.857	532.875
2973.95	516.54167
2976.042	505.875
2978.133	489.20833
2980.222	475.20833
2982.31	457.20833
2984.396	443.875
2986.482	441.54167
2988.566	432.875
2990.648	422.875
2992.73	420.20833
2994.81	407.875
2996.889	411.875
2998.966	409.20833
3001.042	398.54167
3003.117	394.875
3005.191	399.875
3007.263	382.875
3009.334	382.875
3011.403	373.54167
3013.472	354.875
3015.539	370.875
3017.604	379.875
3019.669	337.875
3021.732	344.20833
3023.794	349.54167
3025.854	327.20833
3027.914	328.54167
3029.971	333.20833
3032.028	329.54167
3034.083	330.20833
3036.137	334.54167
3038.19	417.20833
3040.242	305.54167
3042.292	290.20833
3044.341	286.875
3046.388	306.875
3048.435	287.875
3050.48	300.54167
3052.524	290.875
3054.566	266.875
3056.607	291.20833
3058.647	275.875
3060.686	256.20833
3062.723	253.54167
3064.759	251.20833
3066.794	1.54167
3068.828	-0.125
3070.86	-4.125
