-0.839	389.20833
3.438	453.54167
7.711	145.20833
11.981	57.20833
16.247	45.875
20.509	44.875
24.768	47.20833
29.024	53.875
33.276	41.875
37.524	50.875
41.769	48.54167
46.01	30.54167
50.247	46.20833
54.481	57.20833
58.712	63.54167
62.939	47.875
67.162	63.875
71.382	57.875
75.599	43.20833
79.812	60.54167
84.021	82.54167
88.227	58.20833
92.429	58.20833
96.628	52.20833
100.823	73.54167
105.015	74.875
109.204	68.20833
113.388	75.20833
117.57	74.54167
121.748	85.54167
125.922	79.54167
130.093	96.20833
134.261	97.54167
138.425	95.20833
142.585	134.875
146.742	126.20833
150.896	154.20833
155.046	194.54167
159.193	311.20833
163.336	528.875
167.476	975.54167
171.613	1789.20833
175.746	3024.20833
179.875	4470.20833
184.002	5843.875
188.124	6738.54167
192.244	6975.54167
196.36	6881.875
200.472	6613.875
204.581	6343.54167
208.687	6176.20833
212.79	6031.54167
216.889	5930.875
220.984	5869.20833
225.077	5851.875
229.165	5824.54167
233.251	5804.54167
237.333	5709.875
241.412	5617.54167
245.487	5504.875
249.559	5438.54167
253.628	5412.54167
257.694	5327.54167
261.756	5279.54167
265.814	5170.20833
269.87	4991.875
273.922	4834.54167
277.97	4728.54167
282.016	4711.20833
286.058	4749.54167
290.097	4815.54167
294.132	4873.20833
298.164	4793.875
302.193	4604.54167
306.219	4233.54167
310.241	3894.20833
314.26	3576.54167
318.276	3333.20833
322.288	3163.875
326.297	2998.54167
330.303	2928.875
334.305	2828.20833
338.305	2774.20833
342.301	2735.875
346.294	2709.20833
350.283	2679.20833
354.269	2647.20833
358.252	2630.54167
362.232	2586.875
366.209	2573.54167
370.182	2518.875
374.152	2537.54167
378.119	2524.20833
382.083	2513.20833
386.043	2530.54167
390	2490.54167
393.954	2498.20833
397.905	2484.875
401.852	2475.875
405.797	2454.20833
409.738	2441.875
413.676	2457.54167
417.61	2446.875
421.542	2408.54167
425.47	2364.54167
429.396	2351.54167
433.318	2359.20833
437.236	2342.20833
441.152	2332.875
445.065	2310.54167
448.974	2284.54167
452.88	2266.54167
456.783	2239.20833
460.683	2228.54167
464.58	2230.54167
468.473	2205.54167
472.364	2232.875
476.251	2229.875
480.135	2250.875
484.016	2291.20833
487.894	2301.875
491.769	2292.875
495.641	2307.54167
499.509	2314.54167
503.375	2287.875
507.237	2300.875
511.096	2303.875
514.952	2373.20833
518.805	2455.20833
522.655	2476.54167
526.502	2381.875
530.346	2314.54167
534.187	2308.875
538.024	2318.875
541.859	2331.20833
545.69	2371.875
549.519	2326.875
553.344	2317.875
557.166	2272.54167
560.985	2246.54167
564.802	2206.54167
568.615	2173.875
572.425	2114.20833
576.232	2124.54167
580.036	2131.875
583.836	2120.54167
587.634	2160.875
591.429	2160.54167
595.221	2183.54167
599.01	2221.20833
602.796	2241.875
606.578	2235.20833
610.358	2246.20833
614.135	2214.20833
617.909	2227.20833
621.679	2214.875
625.447	2176.875
629.212	2175.54167
632.973	2176.54167
636.732	2184.875
640.488	2195.20833
644.241	2173.54167
647.991	2164.20833
651.737	2165.54167
655.481	2129.20833
659.222	2129.54167
662.96	2129.875
666.695	2171.54167
670.427	2174.875
674.156	2193.875
677.882	2167.875
681.605	2165.875
685.325	2157.54167
689.043	2131.875
692.757	2110.54167
696.468	2122.875
700.177	2121.20833
703.882	2112.875
707.585	2066.875
711.284	2085.54167
714.981	2083.20833
718.675	2117.20833
722.366	2101.20833
726.054	2087.20833
729.739	2098.20833
733.421	2112.54167
737.1	2108.20833
740.777	2104.875
744.45	2146.54167
748.121	2146.875
751.789	2190.20833
755.453	2189.54167
759.115	2188.54167
762.774	2223.20833
766.431	2221.54167
770.084	2254.20833
773.734	2274.20833
777.382	2315.875
781.027	2315.54167
784.669	2350.20833
788.308	2346.54167
791.944	2372.20833
795.577	2398.20833
799.208	2395.875
802.835	2421.54167
806.46	2424.20833
810.082	2439.875
813.701	2433.875
817.317	2452.875
820.931	2441.20833
824.542	2462.20833
828.149	2407.875
831.754	2424.20833
835.357	2414.54167
838.956	2435.20833
842.553	2428.54167
846.146	2404.54167
849.737	2379.875
853.326	2393.20833
856.911	2379.20833
860.493	2418.54167
864.073	2443.875
867.65	2491.54167
871.225	2520.875
874.796	2519.20833
878.365	2514.20833
881.931	2529.20833
885.494	2537.20833
889.054	2546.54167
892.612	2547.875
896.166	2487.875
899.719	2476.20833
903.268	2448.54167
906.814	2453.54167
910.358	2422.875
913.899	2408.54167
917.438	2410.20833
920.973	2405.54167
924.506	2434.20833
928.036	2488.20833
931.564	2502.54167
935.088	2572.54167
938.61	2568.54167
942.129	2606.54167
945.646	2668.20833
949.16	2708.875
952.671	2767.20833
956.179	2754.54167
959.685	2713.54167
963.188	2714.875
966.688	2671.20833
970.185	2602.20833
973.68	2543.875
977.173	2465.20833
980.662	2458.54167
984.149	2463.54167
987.633	2454.875
991.114	2502.54167
994.593	2551.54167
998.069	2604.54167
1001.542	2697.54167
1005.013	2646.54167
1008.481	2508.54167
1011.947	2478.20833
1015.409	2468.54167
1018.869	2439.54167
1022.327	2443.20833
1025.782	2415.875
1029.234	2420.20833
1032.683	2365.54167
1036.13	2290.54167
1039.574	2201.875
1043.016	2142.54167
1046.455	2118.54167
1049.891	2111.20833
1053.325	2105.875
1056.756	2118.20833
1060.184	2144.875
1063.61	2148.20833
1067.033	2163.54167
1070.454	2151.875
1073.872	2178.20833
1077.287	2164.875
1080.7	2164.20833
1084.11	2182.875
1087.517	2149.20833
1090.922	2115.54167
1094.325	2105.54167
1097.724	2097.875
1101.122	2089.875
1104.516	2081.54167
1107.908	2075.54167
1111.298	2129.20833
1114.684	2133.54167
1118.069	2156.20833
1121.45	2222.20833
1124.83	2196.20833
1128.206	2219.54167
1131.58	2256.20833
1134.951	2306.54167
1138.32	2389.54167
1141.687	2472.875
1145.05	2525.54167
1148.412	2538.875
1151.77	2520.875
1155.126	2495.20833
1158.48	2486.875
1161.831	2518.54167
1165.18	2526.54167
1168.525	2578.875
1171.869	2597.20833
1175.21	2608.20833
1178.548	2641.875
1181.884	2649.20833
1185.217	2659.875
1188.548	2736.875
1191.877	2797.875
1195.202	2871.54167
1198.526	2931.20833
1201.846	2961.875
1205.165	2967.54167
1208.48	2968.54167
1211.794	2917.875
1215.104	2917.54167
1218.413	2930.20833
1221.719	2935.20833
1225.022	2919.20833
1228.323	2838.875
1231.621	2826.875
1234.917	2804.20833
1238.21	2829.875
1241.501	2792.20833
1244.79	2779.875
1248.076	2784.54167
1251.359	2806.20833
1254.64	2875.20833
1257.919	2884.875
1261.195	2917.875
1264.468	2995.875
1267.74	3019.875
1271.008	3048.20833
1274.275	3007.54167
1277.538	2994.875
1280.8	2980.54167
1284.059	3004.20833
1287.315	3044.54167
1290.569	3049.875
1293.821	3061.20833
1297.07	3098.875
1300.317	3061.54167
1303.562	3102.875
1306.803	3074.54167
1310.043	3055.875
1313.28	3021.20833
1316.515	2980.20833
1319.747	2962.20833
1322.977	2941.54167
1326.204	2878.875
1329.429	2844.875
1332.652	2806.875
1335.872	2797.20833
1339.09	2761.20833
1342.306	2733.875
1345.519	2696.54167
1348.729	2714.875
1351.938	2687.54167
1355.144	2667.875
1358.347	2632.875
1361.548	2641.54167
1364.747	2624.54167
1367.944	2585.20833
1371.138	2614.20833
1374.329	2611.875
1377.518	2655.875
1380.705	2666.54167
1383.89	2632.54167
1387.072	2559.20833
1390.252	2447.875
1393.429	2357.54167
1396.605	2288.20833
1399.777	2214.20833
1402.948	2181.875
1406.116	2171.54167
1409.282	2189.875
1412.445	2191.20833
1415.606	2214.875
1418.765	2256.875
1421.921	2314.20833
1425.075	2359.20833
1428.227	2433.54167
1431.376	2525.20833
1434.524	2626.54167
1437.668	2700.20833
1440.811	2734.875
1443.951	2748.20833
1447.089	2788.54167
1450.224	2755.875
1453.357	2748.54167
1456.488	2708.875
1459.617	2677.20833
1462.743	2627.875
1465.867	2566.54167
1468.989	2544.20833
1472.108	2492.875
1475.225	2435.20833
1478.34	2375.875
1481.453	2401.54167
1484.563	2404.20833
1487.671	2439.875
1490.776	2482.54167
1493.88	2540.20833
1496.981	2563.20833
1500.08	2593.875
1503.176	2639.54167
1506.271	2653.20833
1509.363	2685.54167
1512.452	2728.20833
1515.54	2751.54167
1518.625	2768.54167
1521.708	2842.20833
1524.789	2934.875
1527.867	3030.875
1530.944	3217.20833
1534.018	3323.20833
1537.089	3481.20833
1540.159	3498.54167
1543.226	3541.54167
1546.291	3450.20833
1549.354	3371.54167
1552.415	3313.875
1555.473	3252.20833
1558.529	3198.54167
1561.583	3167.20833
1564.634	3125.20833
1567.684	3134.54167
1570.731	3157.20833
1573.776	3162.20833
1576.819	3210.54167
1579.859	3233.20833
1582.898	3282.54167
1585.934	3299.54167
1588.968	3313.54167
1591.999	3313.54167
1595.029	3302.54167
1598.056	3347.875
1601.081	3363.54167
1604.104	3337.875
1607.125	3307.875
1610.144	3256.54167
1613.16	3143.875
1616.174	3091.20833
1619.186	3019.20833
1622.196	2902.20833
1625.203	2812.20833
1628.209	2750.20833
1631.212	2735.20833
1634.213	2722.54167
1637.212	2701.875
1640.209	2648.54167
1643.203	2598.20833
1646.196	2521.20833
1649.186	2411.875
1652.174	2365.54167
1655.16	2271.54167
1658.144	2219.20833
1661.125	2132.54167
1664.105	2044.875
1667.082	1939.20833
1670.057	1853.20833
1673.03	1731.20833
1676.001	1610.54167
1678.97	1535.54167
1681.937	1421.20833
1684.901	1330.54167
1687.863	1291.20833
1690.824	1223.875
1693.782	1222.875
1696.738	1155.875
1699.692	1150.54167
1702.643	1099.20833
1705.593	1087.875
1708.54	1088.54167
1711.486	1091.54167
1714.429	1059.875
1717.37	1057.54167
1720.309	1030.54167
1723.246	1039.54167
1726.181	1010.875
1729.113	1006.20833
1732.044	991.875
1734.972	982.54167
1737.899	993.20833
1740.823	986.54167
1743.745	950.54167
1746.665	949.875
1749.583	933.54167
1752.499	924.20833
1755.413	913.20833
1758.325	884.54167
1761.235	878.54167
1764.142	865.875
1767.048	854.54167
1769.951	854.54167
1772.852	857.54167
1775.752	834.54167
1778.649	839.54167
1781.544	854.20833
1784.437	835.20833
1787.328	828.875
1790.217	823.875
1793.104	805.20833
1795.989	805.54167
1798.872	788.875
1801.753	819.54167
1804.631	809.875
1807.508	810.54167
1810.383	804.875
1813.255	790.54167
1816.126	793.875
1818.994	787.875
1821.861	782.54167
1824.725	783.54167
1827.587	781.875
1830.448	772.875
1833.306	751.875
1836.162	757.20833
1839.017	760.54167
1841.869	758.54167
1844.719	764.875
1847.567	742.54167
1850.414	740.54167
1853.258	739.875
1856.1	745.20833
1858.94	753.875
1861.778	743.54167
1864.614	727.54167
1867.448	733.875
1870.28	728.20833
1873.111	753.54167
1875.939	739.54167
1878.765	751.20833
1881.589	723.20833
1884.411	739.875
1887.231	737.54167
1890.049	728.54167
1892.865	730.54167
1895.68	722.20833
1898.492	732.20833
1901.302	719.20833
1904.11	719.20833
1906.916	709.54167
1909.721	699.20833
1912.523	700.20833
1915.323	693.875
1918.122	693.54167
1920.918	704.875
1923.712	693.54167
1926.505	672.20833
1929.295	684.54167
1932.084	704.20833
1934.87	693.54167
1937.655	700.875
1940.438	682.875
1943.218	687.54167
1945.997	696.875
1948.774	688.875
1951.549	692.20833
1954.322	675.875
1957.093	680.54167
1959.862	670.54167
1962.629	676.54167
1965.394	668.875
1968.157	658.54167
1970.918	667.20833
1973.678	654.54167
1976.435	667.875
1979.19	645.54167
1981.944	650.54167
1984.696	648.875
1987.445	648.54167
1990.193	652.875
1992.939	658.875
1995.683	649.54167
1998.425	634.20833
2001.165	670.875
2003.903	641.875
2006.639	644.54167
2009.374	648.54167
2012.106	640.54167
2014.837	623.20833
2017.566	648.54167
2020.292	645.20833
2023.017	645.54167
2025.74	634.875
2028.461	641.54167
2031.18	628.875
2033.898	615.20833
2036.613	628.875
2039.327	644.20833
2042.038	612.875
2044.748	622.875
2047.456	633.875
2050.162	611.54167
2052.866	619.875
2055.568	632.20833
2058.268	609.54167
2060.967	621.54167
2063.663	608.20833
2066.358	604.875
2069.051	603.20833
2071.742	614.875
2074.431	631.875
2077.118	601.875
2079.804	605.20833
2082.487	609.54167
2085.169	618.875
2087.849	634.875
2090.527	600.54167
2093.203	613.20833
2095.877	629.54167
2098.55	629.54167
2101.22	634.54167
2103.889	638.54167
2106.556	638.20833
2109.221	655.54167
2111.884	661.875
2114.546	717.20833
2117.205	744.54167
2119.863	815.875
2122.519	839.20833
2125.173	882.54167
2127.825	924.20833
2130.475	925.54167
2133.124	884.54167
2135.771	868.875
2138.416	832.20833
2141.059	769.875
2143.7	751.54167
2146.339	711.54167
2148.977	667.875
2151.613	673.54167
2154.247	654.54167
2156.879	639.875
2159.51	627.20833
2162.138	610.54167
2164.765	607.20833
2167.39	595.54167
2170.013	614.20833
2172.634	609.54167
2175.254	587.875
2177.872	618.20833
2180.488	585.54167
2183.102	598.875
2185.714	578.54167
2188.325	561.54167
2190.934	579.54167
2193.541	584.54167
2196.146	569.54167
2198.75	554.20833
2201.351	549.875
2203.951	544.875
2206.549	565.54167
2209.146	548.20833
2211.74	546.20833
2214.333	554.20833
2216.924	528.875
2219.514	541.54167
2222.101	546.54167
2224.687	551.875
2227.271	547.875
2229.853	524.875
2232.433	526.20833
2235.012	543.20833
2237.589	536.875
2240.164	550.875
2242.738	528.54167
2245.309	525.875
2247.879	535.875
2250.448	540.20833
2253.014	506.875
2255.579	508.54167
2258.142	521.20833
2260.703	506.875
2263.262	511.54167
2265.82	506.20833
2268.376	514.54167
2270.93	499.20833
2273.483	496.20833
2276.033	503.54167
2278.583	501.54167
2281.13	506.875
2283.675	498.54167
2286.219	502.875
2288.761	497.54167
2291.302	506.54167
2293.841	509.20833
2296.377	482.20833
2298.913	492.54167
2301.446	505.54167
2303.978	496.54167
2306.508	483.54167
2309.037	493.20833
2311.563	503.875
2314.088	493.20833
2316.612	483.20833
2319.133	488.875
2321.653	492.54167
2324.171	474.875
2326.688	500.20833
2329.202	487.875
2331.715	486.875
2334.227	486.54167
2336.736	492.54167
2339.244	479.875
2341.751	478.20833
2344.255	489.20833
2346.758	490.54167
2349.259	466.54167
2351.759	478.54167
2354.257	473.20833
2356.753	477.54167
2359.247	478.875
2361.74	477.20833
2364.231	480.875
2366.721	487.875
2369.209	475.20833
2371.695	487.875
2374.179	469.20833
2376.662	469.875
2379.143	488.875
2381.622	482.875
2384.1	478.875
2386.576	478.54167
2389.051	491.20833
2391.524	497.20833
2393.995	488.54167
2396.464	475.875
2398.932	468.54167
2401.398	470.875
2403.863	473.54167
2406.325	480.54167
2408.787	474.54167
2411.246	477.20833
2413.704	466.875
2416.16	470.20833
2418.615	479.20833
2421.068	482.20833
2423.519	495.875
2425.969	470.20833
2428.417	482.20833
2430.863	498.875
2433.308	486.875
2435.751	474.875
2438.193	482.20833
2440.633	474.54167
2443.071	477.54167
2445.508	474.54167
2447.943	473.20833
2450.376	472.875
2452.808	468.20833
2455.238	470.54167
2457.667	513.54167
2460.093	471.875
2462.519	464.20833
2464.942	478.54167
2467.365	481.875
2469.785	483.20833
2472.204	477.20833
2474.621	473.54167
2477.037	489.875
2479.451	461.54167
2481.863	466.875
2484.274	465.875
2486.683	479.54167
2489.091	486.54167
2491.497	464.875
2493.901	477.54167
2496.304	472.54167
2498.705	480.20833
2501.105	473.20833
2503.503	501.54167
2505.899	470.20833
2508.294	487.54167
2510.687	476.20833
2513.079	482.20833
2515.469	477.20833
2517.858	481.875
2520.245	482.54167
2522.63	477.54167
2525.014	468.875
2527.396	477.20833
2529.776	471.875
2532.156	489.875
2534.533	469.54167
2536.909	471.875
2539.283	453.54167
2541.656	470.875
2544.027	487.20833
2546.397	479.54167
2548.765	473.20833
2551.131	479.20833
2553.496	480.875
2555.86	480.875
2558.221	484.875
2560.582	470.54167
2562.94	476.875
2565.298	477.54167
2567.653	498.54167
2570.007	473.20833
2572.36	492.54167
2574.711	468.54167
2577.06	495.875
2579.408	491.875
2581.754	485.20833
2584.099	487.875
2586.442	487.54167
2588.784	491.20833
2591.124	486.20833
2593.463	485.54167
2595.8	493.875
2598.135	485.54167
2600.469	492.875
2602.802	494.875
2605.133	506.54167
2607.462	481.20833
2609.79	480.20833
2612.116	493.20833
2614.441	498.875
2616.764	493.875
2619.086	502.875
2621.406	486.20833
2623.725	508.20833
2626.042	499.20833
2628.358	492.875
2630.672	489.875
2632.985	514.54167
2635.296	500.875
2637.606	499.20833
2639.914	495.54167
2642.22	497.54167
2644.525	506.54167
2646.829	512.54167
2649.131	522.54167
2651.432	524.54167
2653.731	519.20833
2656.028	524.20833
2658.324	534.875
2660.619	517.20833
2662.912	533.54167
2665.204	515.54167
2667.494	522.54167
2669.782	512.20833
2672.07	531.875
2674.355	533.20833
2676.639	518.20833
2678.922	515.875
2681.203	521.54167
2683.483	522.20833
2685.761	516.54167
2688.038	530.20833
2690.313	536.875
2692.587	526.54167
2694.859	520.875
2697.13	540.20833
2699.399	540.20833
2701.667	540.20833
2703.933	541.875
2706.198	547.20833
2708.461	561.875
2710.723	558.54167
2712.984	557.875
2715.243	566.54167
2717.5	552.875
2719.757	576.875
2722.011	569.54167
2724.264	567.20833
2726.516	581.875
2728.766	571.875
2731.015	581.875
2733.262	577.20833
2735.508	575.875
2737.753	575.20833
2739.996	567.54167
2742.237	568.875
2744.477	579.875
2746.716	585.20833
2748.953	564.875
2751.189	570.54167
2753.423	560.20833
2755.656	551.875
2757.887	558.875
2760.117	553.875
2762.346	553.20833
2764.573	555.20833
2766.798	550.54167
2769.022	559.20833
2771.245	563.875
2773.467	572.875
2775.686	569.54167
2777.905	586.20833
2780.122	582.875
2782.337	573.875
2784.552	580.875
2786.764	589.54167
2788.976	586.54167
2791.186	593.54167
2793.394	599.54167
2795.601	624.875
2797.807	622.20833
2800.011	611.875
2802.214	623.875
2804.415	624.875
2806.615	620.875
2808.814	625.54167
2811.011	632.20833
2813.206	634.54167
2815.401	641.54167
2817.594	649.54167
2819.785	666.20833
2821.975	649.20833
2824.164	654.875
2826.351	684.20833
2828.537	689.20833
2830.722	684.875
2832.905	714.875
2835.086	722.54167
2837.267	739.54167
2839.445	749.54167
2841.623	770.20833
2843.799	804.875
2845.974	808.20833
2848.147	839.875
2850.319	865.875
2852.489	882.875
2854.659	908.54167
2856.826	905.54167
2858.993	931.875
2861.158	902.875
2863.321	914.875
2865.483	934.54167
2867.644	915.54167
2869.804	921.54167
2871.962	925.20833
2874.118	931.54167
2876.274	916.20833
2878.428	928.20833
2880.58	907.875
2882.731	902.20833
2884.881	907.54167
2887.03	916.20833
2889.177	915.20833
2891.322	929.20833
2893.467	910.875
2895.61	924.875
2897.751	941.875
2899.892	925.20833
2902.03	945.54167
2904.168	946.875
2906.304	954.20833
2908.439	971.54167
2910.572	951.54167
2912.704	968.54167
2914.835	986.20833
2916.965	951.875
2919.093	974.875
2921.219	959.20833
2923.345	981.875
2925.469	953.875
2927.591	942.54167
2929.712	922.875
2931.832	925.20833
2933.951	902.54167
2936.068	889.20833
2938.184	868.20833
2940.299	863.54167
2942.412	831.875
2944.524	815.20833
2946.634	811.20833
2948.744	776.20833
2950.851	799.20833
2952.958	765.875
2955.063	761.20833
2957.167	759.20833
2959.269	732.54167
2961.371	749.875
2963.471	708.20833
2965.569	734.875
2967.666	689.54167
2969.762	693.54167
2971.857	687.54167
2973.95	677.54167
2976.042	665.20833
2978.133	652.20833
2980.222	643.875
2982.31	628.875
2984.396	605.54167
2986.482	619.54167
2988.566	606.875
2990.648	610.20833
2992.73	610.54167
2994.81	605.875
2996.889	611.20833
2998.966	609.20833
3001.042	603.20833
3003.117	605.875
3005.191	606.875
3007.263	604.20833
3009.334	594.54167
3011.403	595.20833
3013.472	574.20833
3015.539	585.54167
3017.604	588.875
3019.669	552.54167
3021.732	558.54167
3023.794	556.54167
3025.854	553.20833
3027.914	562.20833
3029.971	561.875
3032.028	555.54167
3034.083	551.54167
3036.137	552.20833
3038.19	527.20833
3040.242	521.20833
3042.292	508.54167
3044.341	507.54167
3046.388	510.20833
3048.435	481.875
3050.48	507.875
3052.524	506.875
3054.566	484.20833
3056.607	493.875
3058.647	470.875
3060.686	462.875
3062.723	464.20833
3064.759	437.875
3066.794	-1.45833
3068.828	3.20833
3070.86	2.54167
