-0.839	398.875
3.438	452.54167
7.711	140.20833
11.981	55.20833
16.247	45.20833
20.509	49.54167
24.768	47.54167
29.024	52.20833
33.276	43.875
37.524	49.54167
41.769	44.54167
46.01	33.54167
50.247	46.54167
54.481	58.20833
58.712	63.54167
62.939	46.875
67.162	65.54167
71.382	59.54167
75.599	46.54167
79.812	59.20833
84.021	78.54167
88.227	63.20833
92.429	59.875
96.628	56.54167
100.823	74.54167
105.015	73.875
109.204	66.20833
113.388	77.20833
117.57	76.54167
121.748	89.875
125.922	84.875
130.093	99.54167
134.261	99.54167
138.425	96.54167
142.585	138.875
146.742	126.875
150.896	161.875
155.046	196.875
159.193	320.875
163.336	551.20833
167.476	1014.20833
171.613	1872.54167
175.746	3133.54167
179.875	4661.20833
184.002	6058.20833
188.124	7022.875
192.244	7304.875
196.36	7196.20833
200.472	6949.54167
204.581	6624.54167
208.687	6469.54167
212.79	6351.875
216.889	6269.875
220.984	6228.875
225.077	6205.875
229.165	6165.54167
233.251	6160.54167
237.333	6091.54167
241.412	6023.875
245.487	5942.20833
249.559	5838.54167
253.628	5769.875
257.694	5729.20833
261.756	5679.875
265.814	5551.875
269.87	5359.54167
273.922	5202.54167
277.97	5133.875
282.016	5035.875
286.058	5035.54167
290.097	5166.54167
294.132	5202.54167
298.164	5149.875
302.193	4942.20833
306.219	4570.20833
310.241	4234.54167
314.26	3912.875
318.276	3650.875
322.288	3472.54167
326.297	3316.875
330.303	3202.20833
334.305	3111.875
338.305	3087.875
342.301	3040.20833
346.294	3015.54167
350.283	2999.54167
354.269	2955.875
358.252	2954.20833
362.232	2916.54167
366.209	2936.54167
370.182	2899.875
374.152	2854.54167
378.119	2857.54167
382.083	2854.20833
386.043	2861.875
390	2815.54167
393.954	2843.875
397.905	2825.54167
401.852	2842.875
405.797	2778.875
409.738	2786.20833
413.676	2768.20833
417.61	2793.54167
421.542	2741.20833
425.47	2735.54167
429.396	2690.20833
433.318	2677.54167
437.236	2693.54167
441.152	2713.875
445.065	2638.54167
448.974	2631.875
452.88	2603.20833
456.783	2591.875
460.683	2602.54167
464.58	2576.875
468.473	2602.54167
472.364	2604.875
476.251	2586.875
480.135	2614.875
484.016	2666.875
487.894	2673.20833
491.769	2653.54167
495.641	2661.54167
499.509	2693.875
503.375	2662.20833
507.237	2648.54167
511.096	2676.20833
514.952	2727.54167
518.805	2776.54167
522.655	2840.875
526.502	2717.54167
530.346	2665.875
534.187	2657.20833
538.024	2658.875
541.859	2674.20833
545.69	2697.20833
549.519	2675.20833
553.344	2662.20833
557.166	2640.20833
560.985	2603.20833
564.802	2574.875
568.615	2511.875
572.425	2463.20833
576.232	2462.54167
580.036	2454.20833
583.836	2475.54167
587.634	2468.20833
591.429	2487.54167
595.221	2565.54167
599.01	2571.54167
602.796	2587.20833
606.578	2617.875
610.358	2589.875
614.135	2588.875
617.909	2576.20833
621.679	2524.875
625.447	2503.20833
629.212	2512.20833
632.973	2508.875
636.732	2526.875
640.488	2505.20833
644.241	2513.875
647.991	2488.20833
651.737	2517.54167
655.481	2497.54167
659.222	2515.54167
662.96	2491.54167
666.695	2511.54167
670.427	2503.20833
674.156	2523.875
677.882	2506.20833
681.605	2516.54167
685.325	2478.54167
689.043	2488.20833
692.757	2447.20833
696.468	2459.54167
700.177	2442.54167
703.882	2437.875
707.585	2414.875
711.284	2414.54167
714.981	2431.20833
718.675	2421.20833
722.366	2434.20833
726.054	2427.20833
729.739	2403.20833
733.421	2439.875
737.1	2430.20833
740.777	2463.875
744.45	2451.54167
748.121	2473.54167
751.789	2526.875
755.453	2497.875
759.115	2550.54167
762.774	2533.20833
766.431	2549.20833
770.084	2558.54167
773.734	2587.875
777.382	2607.875
781.027	2630.875
784.669	2639.20833
788.308	2657.54167
791.944	2668.875
795.577	2685.875
799.208	2732.875
802.835	2730.54167
806.46	2737.875
810.082	2763.875
813.701	2785.20833
817.317	2801.54167
820.931	2784.875
824.542	2818.54167
828.149	2743.20833
831.754	2729.54167
835.357	2709.54167
838.956	2734.54167
842.553	2709.20833
846.146	2692.875
849.737	2653.54167
853.326	2665.54167
856.911	2670.875
860.493	2694.54167
864.073	2706.20833
867.65	2745.54167
871.225	2765.54167
874.796	2763.20833
878.365	2788.54167
881.931	2781.875
885.494	2807.875
889.054	2794.875
892.612	2786.875
896.166	2751.875
899.719	2725.875
903.268	2725.875
906.814	2671.20833
910.358	2672.20833
913.899	2658.20833
917.438	2666.54167
920.973	2666.54167
924.506	2686.875
928.036	2742.20833
931.564	2794.20833
935.088	2826.54167
938.61	2842.20833
942.129	2885.875
945.646	2920.20833
949.16	2986.20833
952.671	3013.875
956.179	3041.20833
959.685	2980.54167
963.188	3036.54167
966.688	2993.54167
970.185	2874.875
973.68	2804.20833
977.173	2769.20833
980.662	2706.20833
984.149	2733.20833
987.633	2728.875
991.114	2773.54167
994.593	2841.20833
998.069	2891.54167
1001.542	2949.20833
1005.013	2941.54167
1008.481	2762.20833
1011.947	2715.875
1015.409	2694.54167
1018.869	2710.20833
1022.327	2682.875
1025.782	2665.20833
1029.234	2665.20833
1032.683	2609.54167
1036.13	2549.20833
1039.574	2440.875
1043.016	2399.20833
1046.455	2349.875
1049.891	2329.54167
1053.325	2351.54167
1056.756	2362.875
1060.184	2369.875
1063.61	2369.20833
1067.033	2384.875
1070.454	2405.54167
1073.872	2405.54167
1077.287	2422.20833
1080.7	2432.20833
1084.11	2392.54167
1087.517	2380.875
1090.922	2353.875
1094.325	2333.20833
1097.724	2300.20833
1101.122	2289.54167
1104.516	2312.54167
1107.908	2285.54167
1111.298	2329.875
1114.684	2364.875
1118.069	2372.54167
1121.45	2429.20833
1124.83	2411.20833
1128.206	2441.54167
1131.58	2458.875
1134.951	2499.20833
1138.32	2594.20833
1141.687	2672.20833
1145.05	2716.875
1148.412	2724.875
1151.77	2702.875
1155.126	2696.875
1158.48	2669.20833
1161.831	2692.875
1165.18	2709.20833
1168.525	2758.20833
1171.869	2761.54167
1175.21	2793.20833
1178.548	2816.54167
1181.884	2846.20833
1185.217	2837.54167
1188.548	2944.54167
1191.877	2978.20833
1195.202	3061.875
1198.526	3124.54167
1201.846	3163.54167
1205.165	3130.20833
1208.48	3155.54167
1211.794	3131.875
1215.104	3145.20833
1218.413	3142.20833
1221.719	3141.875
1225.022	3097.875
1228.323	3043.20833
1231.621	3006.54167
1234.917	2996.54167
1238.21	3023.875
1241.501	2982.54167
1244.79	2987.875
1248.076	2963.875
1251.359	3034.20833
1254.64	3060.875
1257.919	3077.875
1261.195	3130.54167
1264.468	3170.875
1267.74	3215.875
1271.008	3238.54167
1274.275	3196.875
1277.538	3190.875
1280.8	3204.20833
1284.059	3205.20833
1287.315	3224.875
1290.569	3243.875
1293.821	3290.875
1297.07	3280.20833
1300.317	3272.20833
1303.562	3266.875
1306.803	3231.875
1310.043	3213.54167
1313.28	3188.20833
1316.515	3177.54167
1319.747	3164.875
1322.977	3128.20833
1326.204	3083.875
1329.429	3055.875
1332.652	3046.875
1335.872	3022.54167
1339.09	2977.54167
1342.306	2956.20833
1345.519	2960.875
1348.729	2942.875
1351.938	2972.20833
1355.144	2899.875
1358.347	2888.20833
1361.548	2863.20833
1364.747	2859.20833
1367.944	2806.20833
1371.138	2828.875
1374.329	2817.875
1377.518	2869.875
1380.705	2854.875
1383.89	2821.875
1387.072	2761.54167
1390.252	2646.54167
1393.429	2542.54167
1396.605	2477.54167
1399.777	2423.20833
1402.948	2415.20833
1406.116	2383.875
1409.282	2377.875
1412.445	2372.875
1415.606	2386.875
1418.765	2421.54167
1421.921	2474.875
1425.075	2526.54167
1428.227	2619.20833
1431.376	2718.20833
1434.524	2826.54167
1437.668	2889.54167
1440.811	2938.20833
1443.951	2957.20833
1447.089	2929.20833
1450.224	2936.20833
1453.357	2916.20833
1456.488	2925.20833
1459.617	2869.875
1462.743	2812.54167
1465.867	2742.875
1468.989	2697.20833
1472.108	2645.54167
1475.225	2601.875
1478.34	2570.54167
1481.453	2553.54167
1484.563	2569.54167
1487.671	2617.54167
1490.776	2632.875
1493.88	2666.54167
1496.981	2714.54167
1500.08	2744.20833
1503.176	2790.20833
1506.271	2809.20833
1509.363	2849.20833
1512.452	2875.875
1515.54	2915.20833
1518.625	2948.20833
1521.708	3005.54167
1524.789	3097.20833
1527.867	3212.20833
1530.944	3339.875
1534.018	3502.20833
1537.089	3647.875
1540.159	3688.54167
1543.226	3676.20833
1546.291	3605.54167
1549.354	3518.20833
1552.415	3432.875
1555.473	3370.875
1558.529	3329.20833
1561.583	3248.875
1564.634	3257.20833
1567.684	3253.875
1570.731	3292.875
1573.776	3267.875
1576.819	3333.20833
1579.859	3389.54167
1582.898	3432.20833
1585.934	3453.54167
1588.968	3463.20833
1591.999	3447.20833
1595.029	3445.875
1598.056	3471.875
1601.081	3484.875
1604.104	3465.875
1607.125	3457.875
1610.144	3377.875
1613.16	3291.875
1616.174	3243.875
1619.186	3134.875
1622.196	3058.20833
1625.203	2977.54167
1628.209	2969.875
1631.212	2923.875
1634.213	2936.875
1637.212	2973.20833
1640.209	2947.20833
1643.203	2872.875
1646.196	2802.20833
1649.186	2683.54167
1652.174	2597.875
1655.16	2517.20833
1658.144	2458.54167
1661.125	2317.20833
1664.105	2227.54167
1667.082	2117.875
1670.057	2013.875
1673.03	1893.54167
1676.001	1777.54167
1678.97	1680.20833
1681.937	1568.875
1684.901	1479.875
1687.863	1420.54167
1690.824	1368.54167
1693.782	1342.875
1696.738	1290.54167
1699.692	1265.20833
1702.643	1229.875
1705.593	1223.20833
1708.54	1212.875
1711.486	1224.54167
1714.429	1188.20833
1717.37	1183.875
1720.309	1154.20833
1723.246	1154.54167
1726.181	1119.54167
1729.113	1121.54167
1732.044	1102.20833
1734.972	1112.875
1737.899	1125.875
1740.823	1113.20833
1743.745	1075.20833
1746.665	1071.875
1749.583	1048.875
1752.499	1038.20833
1755.413	1033.54167
1758.325	1004.54167
1761.235	1004.20833
1764.142	983.54167
1767.048	963.20833
1769.951	987.54167
1772.852	984.54167
1775.752	960.54167
1778.649	974.20833
1781.544	974.54167
1784.437	934.20833
1787.328	948.875
1790.217	938.20833
1793.104	904.54167
1795.989	923.875
1798.872	916.875
1801.753	929.54167
1804.631	918.875
1807.508	925.20833
1810.383	901.20833
1813.255	902.20833
1816.126	903.875
1818.994	906.20833
1821.861	879.875
1824.725	903.54167
1827.587	891.20833
1830.448	882.20833
1833.306	858.20833
1836.162	877.20833
1839.017	863.875
1841.869	869.20833
1844.719	868.54167
1847.567	852.20833
1850.414	839.20833
1853.258	847.875
1856.1	855.20833
1858.94	864.875
1861.778	851.875
1864.614	845.20833
1867.448	842.875
1870.28	837.20833
1873.111	864.875
1875.939	844.54167
1878.765	854.54167
1881.589	844.875
1884.411	833.54167
1887.231	837.54167
1890.049	827.20833
1892.865	834.20833
1895.68	819.875
1898.492	826.54167
1901.302	822.20833
1904.11	828.875
1906.916	801.54167
1909.721	796.54167
1912.523	815.20833
1915.323	801.875
1918.122	794.54167
1920.918	803.54167
1923.712	797.20833
1926.505	777.20833
1929.295	773.54167
1932.084	809.20833
1934.87	800.20833
1937.655	781.54167
1940.438	776.54167
1943.218	790.20833
1945.997	794.54167
1948.774	787.875
1951.549	791.20833
1954.322	789.20833
1957.093	785.54167
1959.862	768.20833
1962.629	773.20833
1965.394	775.20833
1968.157	752.875
1970.918	755.875
1973.678	747.20833
1976.435	755.20833
1979.19	749.875
1981.944	737.54167
1984.696	740.54167
1987.445	725.875
1990.193	730.20833
1992.939	759.20833
1995.683	739.54167
1998.425	705.20833
2001.165	755.875
2003.903	732.20833
2006.639	745.54167
2009.374	734.875
2012.106	733.875
2014.837	714.20833
2017.566	727.54167
2020.292	734.875
2023.017	735.54167
2025.74	726.20833
2028.461	712.20833
2031.18	712.20833
2033.898	722.875
2036.613	725.20833
2039.327	719.20833
2042.038	704.20833
2044.748	695.20833
2047.456	703.54167
2050.162	690.875
2052.866	692.20833
2055.568	706.54167
2058.268	686.875
2060.967	702.875
2063.663	691.20833
2066.358	690.54167
2069.051	694.875
2071.742	690.54167
2074.431	687.20833
2077.118	698.875
2079.804	677.20833
2082.487	695.20833
2085.169	692.54167
2087.849	713.54167
2090.527	688.875
2093.203	685.20833
2095.877	700.20833
2098.55	697.54167
2101.22	702.54167
2103.889	709.54167
2106.556	712.54167
2109.221	728.54167
2111.884	728.20833
2114.546	771.20833
2117.205	811.54167
2119.863	862.54167
2122.519	904.20833
2125.173	946.875
2127.825	1005.875
2130.475	994.875
2133.124	977.54167
2135.771	931.54167
2138.416	901.54167
2141.059	842.54167
2143.7	829.20833
2146.339	780.54167
2148.977	737.54167
2151.613	744.54167
2154.247	719.20833
2156.879	716.54167
2159.51	690.54167
2162.138	684.20833
2164.765	677.875
2167.39	665.54167
2170.013	690.20833
2172.634	677.20833
2175.254	655.54167
2177.872	698.20833
2180.488	646.20833
2183.102	653.20833
2185.714	641.875
2188.325	617.20833
2190.934	631.54167
2193.541	644.875
2196.146	627.875
2198.75	621.20833
2201.351	621.20833
2203.951	615.875
2206.549	625.20833
2209.146	622.875
2211.74	616.54167
2214.333	617.54167
2216.924	593.875
2219.514	601.20833
2222.101	605.20833
2224.687	612.875
2227.271	593.54167
2229.853	584.875
2232.433	579.20833
2235.012	601.20833
2237.589	591.875
2240.164	608.54167
2242.738	588.20833
2245.309	587.54167
2247.879	598.20833
2250.448	595.875
2253.014	577.875
2255.579	565.20833
2258.142	579.875
2260.703	562.20833
2263.262	573.54167
2265.82	567.20833
2268.376	571.54167
2270.93	553.875
2273.483	556.20833
2276.033	557.875
2278.583	553.54167
2281.13	546.875
2283.675	551.20833
2286.219	549.20833
2288.761	554.20833
2291.302	548.875
2293.841	564.54167
2296.377	533.20833
2298.913	538.20833
2301.446	556.875
2303.978	556.20833
2306.508	542.875
2309.037	546.875
2311.563	545.20833
2314.088	549.54167
2316.612	528.875
2319.133	538.875
2321.653	540.54167
2324.171	542.54167
2326.688	557.20833
2329.202	534.875
2331.715	543.875
2334.227	538.20833
2336.736	538.54167
2339.244	528.20833
2341.751	521.54167
2344.255	536.54167
2346.758	530.54167
2349.259	520.54167
2351.759	525.54167
2354.257	520.875
2356.753	521.54167
2359.247	528.54167
2361.74	535.54167
2364.231	527.54167
2366.721	528.875
2369.209	519.54167
2371.695	516.875
2374.179	513.20833
2376.662	510.54167
2379.143	528.875
2381.622	528.20833
2384.1	519.875
2386.576	529.20833
2389.051	534.54167
2391.524	526.20833
2393.995	524.875
2396.464	520.20833
2398.932	518.875
2401.398	519.54167
2403.863	514.20833
2406.325	513.54167
2408.787	521.54167
2411.246	516.54167
2413.704	519.54167
2416.16	517.875
2418.615	509.875
2421.068	525.20833
2423.519	520.54167
2425.969	506.54167
2428.417	522.875
2430.863	538.875
2433.308	523.54167
2435.751	519.20833
2438.193	510.54167
2440.633	518.54167
2443.071	525.20833
2445.508	506.54167
2447.943	519.875
2450.376	508.20833
2452.808	509.54167
2455.238	504.875
2457.667	539.54167
2460.093	509.875
2462.519	496.20833
2464.942	510.54167
2467.365	517.20833
2469.785	527.875
2472.204	511.875
2474.621	504.54167
2477.037	523.875
2479.451	505.54167
2481.863	486.875
2484.274	503.20833
2486.683	508.54167
2489.091	509.875
2491.497	508.20833
2493.901	512.875
2496.304	508.20833
2498.705	511.875
2501.105	514.20833
2503.503	535.54167
2505.899	510.54167
2508.294	526.54167
2510.687	499.875
2513.079	510.20833
2515.469	507.54167
2517.858	518.875
2520.245	515.875
2522.63	505.875
2525.014	507.875
2527.396	497.54167
2529.776	507.875
2532.156	521.20833
2534.533	505.20833
2536.909	500.54167
2539.283	488.875
2541.656	497.875
2544.027	527.875
2546.397	506.875
2548.765	505.875
2551.131	506.54167
2553.496	504.20833
2555.86	504.875
2558.221	515.20833
2560.582	500.875
2562.94	495.54167
2565.298	511.20833
2567.653	527.54167
2570.007	505.20833
2572.36	515.54167
2574.711	497.54167
2577.06	519.20833
2579.408	520.20833
2581.754	516.54167
2584.099	521.875
2586.442	520.875
2588.784	521.875
2591.124	524.20833
2593.463	524.875
2595.8	519.54167
2598.135	515.54167
2600.469	510.20833
2602.802	524.54167
2605.133	517.20833
2607.462	506.875
2609.79	510.875
2612.116	521.875
2614.441	525.20833
2616.764	518.54167
2619.086	531.54167
2621.406	514.20833
2623.725	539.875
2626.042	523.54167
2628.358	521.54167
2630.672	526.875
2632.985	546.54167
2635.296	532.875
2637.606	531.20833
2639.914	521.875
2642.22	533.20833
2644.525	533.54167
2646.829	543.875
2649.131	551.20833
2651.432	551.54167
2653.731	546.20833
2656.028	556.875
2658.324	564.54167
2660.619	540.875
2662.912	559.54167
2665.204	541.875
2667.494	554.20833
2669.782	549.20833
2672.07	550.54167
2674.355	552.875
2676.639	558.54167
2678.922	544.875
2681.203	551.54167
2683.483	533.20833
2685.761	545.20833
2688.038	559.875
2690.313	572.54167
2692.587	561.54167
2694.859	561.20833
2697.13	563.54167
2699.399	574.875
2701.667	576.20833
2703.933	583.875
2706.198	568.20833
2708.461	585.54167
2710.723	579.54167
2712.984	586.20833
2715.243	580.875
2717.5	569.875
2719.757	603.54167
2722.011	586.875
2724.264	596.54167
2726.516	609.875
2728.766	601.20833
2731.015	588.54167
2733.262	604.875
2735.508	600.20833
2737.753	600.875
2739.996	584.20833
2742.237	593.875
2744.477	606.54167
2746.716	603.54167
2748.953	587.875
2751.189	601.875
2753.423	582.875
2755.656	574.54167
2757.887	584.20833
2760.117	594.20833
2762.346	569.20833
2764.573	574.54167
2766.798	576.875
2769.022	582.875
2771.245	585.20833
2773.467	593.875
2775.686	598.875
2777.905	579.20833
2780.122	600.54167
2782.337	603.54167
2784.552	609.875
2786.764	601.20833
2788.976	603.54167
2791.186	605.54167
2793.394	616.875
2795.601	621.875
2797.807	630.20833
2800.011	647.20833
2802.214	638.875
2804.415	636.20833
2806.615	635.875
2808.814	650.875
2811.011	654.20833
2813.206	642.20833
2815.401	664.875
2817.594	677.54167
2819.785	690.20833
2821.975	674.20833
2824.164	671.875
2826.351	697.20833
2828.537	718.20833
2830.722	724.20833
2832.905	717.54167
2835.086	755.875
2837.267	754.875
2839.445	773.875
2841.623	783.54167
2843.799	808.20833
2845.974	840.54167
2848.147	866.54167
2850.319	887.54167
2852.489	911.875
2854.659	925.875
2856.826	918.875
2858.993	950.54167
2861.158	938.54167
2863.321	941.20833
2865.483	956.875
2867.644	942.20833
2869.804	954.20833
2871.962	943.875
2874.118	943.54167
2876.274	949.54167
2878.428	956.54167
2880.58	943.54167
2882.731	942.20833
2884.881	933.54167
2887.03	927.54167
2889.177	946.20833
2891.322	939.54167
2893.467	933.54167
2895.61	945.875
2897.751	963.20833
2899.892	952.875
2902.03	971.54167
2904.168	972.54167
2906.304	962.54167
2908.439	996.875
2910.572	979.20833
2912.704	987.20833
2914.835	993.20833
2916.965	985.20833
2919.093	1001.20833
2921.219	978.875
2923.345	989.54167
2925.469	971.20833
2927.591	975.20833
2929.712	937.54167
2931.832	945.20833
2933.951	919.54167
2936.068	905.875
2938.184	900.875
2940.299	889.54167
2942.412	853.875
2944.524	833.875
2946.634	830.875
2948.744	788.875
2950.851	818.20833
2952.958	779.54167
2955.063	797.875
2957.167	777.20833
2959.269	750.54167
2961.371	771.20833
2963.471	732.875
2965.569	752.20833
2967.666	718.54167
2969.762	707.54167
2971.857	714.875
2973.95	684.20833
2976.042	688.875
2978.133	670.54167
2980.222	650.875
2982.31	649.875
2984.396	633.54167
2986.482	644.20833
2988.566	622.20833
2990.648	630.54167
2992.73	629.20833
2994.81	622.875
2996.889	621.20833
2998.966	624.875
3001.042	623.875
3003.117	616.875
3005.191	622.54167
3007.263	620.875
3009.334	604.875
3011.403	611.54167
3013.472	593.20833
3015.539	592.54167
3017.604	598.20833
3019.669	563.875
3021.732	579.54167
3023.794	572.875
3025.854	567.54167
3027.914	566.54167
3029.971	578.54167
3032.028	568.20833
3034.083	580.875
3036.137	572.20833
3038.19	532.54167
3040.242	533.54167
3042.292	527.875
3044.341	513.875
3046.388	530.20833
3048.435	509.875
3050.48	526.875
3052.524	512.20833
3054.566	490.54167
3056.607	513.54167
3058.647	495.20833
3060.686	478.20833
3062.723	467.875
3064.759	442.20833
3066.794	-0.125
3068.828	2.54167
3070.86	2.54167
