-0.839	565.91667
3.438	666.91667
7.711	195.58333
11.981	64.91667
16.247	45.25
20.509	45.58333
24.768	46.58333
29.024	54.58333
33.276	45.91667
37.524	48.25
41.769	52.25
46.01	36.58333
50.247	49.25
54.481	59.91667
58.712	59.91667
62.939	46.91667
67.162	67.91667
71.382	57.91667
75.599	48.91667
79.812	66.91667
84.021	81.58333
88.227	64.58333
92.429	61.91667
96.628	58.58333
100.823	73.91667
105.015	81.58333
109.204	69.91667
113.388	81.91667
117.57	83.91667
121.748	94.58333
125.922	83.25
130.093	105.91667
134.261	108.25
138.425	107.25
142.585	149.91667
146.742	147.25
150.896	177.25
155.046	233.58333
159.193	370.91667
163.336	646.58333
167.476	1199.58333
171.613	2178.91667
175.746	3592.25
179.875	5312.25
184.002	6866.91667
188.124	7858.58333
192.244	8139.25
196.36	8045.58333
200.472	7696.58333
204.581	7397.91667
208.687	7165.58333
212.79	7016.91667
216.889	6943.25
220.984	6863.58333
225.077	6854.25
229.165	6841.58333
233.251	6799.91667
237.333	6790.91667
241.412	6700.58333
245.487	6602.91667
249.559	6507.25
253.628	6460.91667
257.694	6439.58333
261.756	6373.58333
265.814	6212.58333
269.87	5989.91667
273.922	5808.91667
277.97	5654.58333
282.016	5531.25
286.058	5562.91667
290.097	5580.25
294.132	5683.58333
298.164	5643.58333
302.193	5449.25
306.219	5076.91667
310.241	4684.25
314.26	4342.58333
318.276	4079.25
322.288	3878.91667
326.297	3769.91667
330.303	3652.25
334.305	3548.58333
338.305	3528.25
342.301	3451.91667
346.294	3464.25
350.283	3423.91667
354.269	3399.58333
358.252	3373.58333
362.232	3372.58333
366.209	3338.58333
370.182	3303.58333
374.152	3283.58333
378.119	3316.58333
382.083	3314.58333
386.043	3317.91667
390	3311.25
393.954	3356.58333
397.905	3386.25
401.852	3345.25
405.797	3400.91667
409.738	3472.91667
413.676	3574.25
417.61	3656.91667
421.542	3387.58333
425.47	3221.58333
429.396	3162.91667
433.318	3158.58333
437.236	3125.91667
441.152	3178.58333
445.065	3118.25
448.974	3110.25
452.88	3062.91667
456.783	3041.91667
460.683	3012.91667
464.58	3054.91667
468.473	3056.25
472.364	3071.91667
476.251	3058.91667
480.135	3097.25
484.016	3145.91667
487.894	3154.58333
491.769	3168.58333
495.641	3169.25
499.509	3160.58333
503.375	3145.91667
507.237	3141.58333
511.096	3102.58333
514.952	3138.58333
518.805	3138.25
522.655	3135.58333
526.502	3122.25
530.346	3136.25
534.187	3151.25
538.024	3155.58333
541.859	3148.25
545.69	3191.91667
549.519	3172.25
553.344	3165.25
557.166	3120.58333
560.985	3086.58333
564.802	3028.25
568.615	3008.91667
572.425	2974.58333
576.232	2959.91667
580.036	2966.58333
583.836	2971.25
587.634	2967.25
591.429	2963.25
595.221	3019.91667
599.01	3040.25
602.796	3081.58333
606.578	3088.25
610.358	3091.25
614.135	3069.91667
617.909	3089.91667
621.679	3030.25
625.447	3004.25
629.212	3044.25
632.973	3048.91667
636.732	3067.91667
640.488	3063.58333
644.241	3009.25
647.991	2991.58333
651.737	3035.58333
655.481	2995.91667
659.222	3006.91667
662.96	2979.91667
666.695	3039.25
670.427	3029.58333
674.156	3036.91667
677.882	3013.58333
681.605	3034.58333
685.325	2996.58333
689.043	2994.91667
692.757	2970.91667
696.468	2976.58333
700.177	2954.91667
703.882	2932.25
707.585	2911.25
711.284	2920.25
714.981	2940.25
718.675	2906.91667
722.366	2905.58333
726.054	2895.58333
729.739	2897.25
733.421	2919.91667
737.1	2924.25
740.777	2933.91667
744.45	2929.91667
748.121	2964.25
751.789	2993.25
755.453	3008.58333
759.115	3023.58333
762.774	3028.25
766.431	3037.58333
770.084	3058.25
773.734	3087.25
777.382	3106.91667
781.027	3152.58333
784.669	3155.25
788.308	3161.58333
791.944	3166.91667
795.577	3175.58333
799.208	3212.58333
802.835	3206.25
806.46	3238.58333
810.082	3255.25
813.701	3295.58333
817.317	3310.91667
820.931	3291.58333
824.542	3290.25
828.149	3229.58333
831.754	3210.25
835.357	3201.25
838.956	3220.58333
842.553	3286.25
846.146	3268.58333
849.737	3188.25
853.326	3145.91667
856.911	3136.25
860.493	3170.25
864.073	3269.91667
867.65	3426.58333
871.225	3420.25
874.796	3249.91667
878.365	3251.91667
881.931	3232.91667
885.494	3260.25
889.054	3266.58333
892.612	3253.25
896.166	3234.58333
899.719	3215.25
903.268	3183.58333
906.814	3171.25
910.358	3139.91667
913.899	3119.91667
917.438	3123.91667
920.973	3125.91667
924.506	3156.25
928.036	3190.58333
931.564	3220.58333
935.088	3247.25
938.61	3279.58333
942.129	3303.58333
945.646	3375.91667
949.16	3425.58333
952.671	3496.58333
956.179	3496.91667
959.685	3482.58333
963.188	3528.25
966.688	3476.58333
970.185	3388.91667
973.68	3262.58333
977.173	3232.58333
980.662	3177.25
984.149	3207.25
987.633	3166.25
991.114	3225.58333
994.593	3270.58333
998.069	3378.91667
1001.542	3450.58333
1005.013	3422.58333
1008.481	3210.91667
1011.947	3153.91667
1015.409	3160.91667
1018.869	3139.25
1022.327	3123.58333
1025.782	3113.25
1029.234	3106.91667
1032.683	3060.91667
1036.13	2983.25
1039.574	2862.58333
1043.016	2817.25
1046.455	2753.91667
1049.891	2721.58333
1053.325	2744.25
1056.756	2745.91667
1060.184	2783.91667
1063.61	2771.91667
1067.033	2777.58333
1070.454	2783.91667
1073.872	2808.91667
1077.287	2816.58333
1080.7	2803.25
1084.11	2791.25
1087.517	2788.91667
1090.922	2719.58333
1094.325	2726.91667
1097.724	2701.91667
1101.122	2679.58333
1104.516	2682.58333
1107.908	2689.58333
1111.298	2726.58333
1114.684	2741.25
1118.069	2780.25
1121.45	2801.58333
1124.83	2775.58333
1128.206	2831.91667
1131.58	2872.91667
1134.951	2912.91667
1138.32	2969.58333
1141.687	3116.25
1145.05	3144.25
1148.412	3163.58333
1151.77	3128.91667
1155.126	3145.25
1158.48	3126.58333
1161.831	3117.25
1165.18	3140.58333
1168.525	3160.91667
1171.869	3182.25
1175.21	3209.58333
1178.548	3266.58333
1181.884	3295.25
1185.217	3322.25
1188.548	3400.58333
1191.877	3458.25
1195.202	3567.25
1198.526	3647.25
1201.846	3684.25
1205.165	3641.25
1208.48	3633.25
1211.794	3638.25
1215.104	3614.25
1218.413	3614.58333
1221.719	3621.25
1225.022	3566.25
1228.323	3509.58333
1231.621	3479.91667
1234.917	3452.91667
1238.21	3470.58333
1241.501	3454.91667
1244.79	3440.58333
1248.076	3422.25
1251.359	3495.91667
1254.64	3557.25
1257.919	3585.25
1261.195	3601.25
1264.468	3689.25
1267.74	3741.25
1271.008	3765.25
1274.275	3751.58333
1277.538	3740.58333
1280.8	3702.25
1284.059	3698.58333
1287.315	3720.58333
1290.569	3745.25
1293.821	3746.58333
1297.07	3772.25
1300.317	3773.91667
1303.562	3736.91667
1306.803	3732.91667
1310.043	3721.25
1313.28	3670.58333
1316.515	3678.58333
1319.747	3644.91667
1322.977	3604.58333
1326.204	3603.58333
1329.429	3545.91667
1332.652	3519.25
1335.872	3513.25
1339.09	3493.58333
1342.306	3497.25
1345.519	3441.58333
1348.729	3388.25
1351.938	3412.91667
1355.144	3358.58333
1358.347	3327.25
1361.548	3303.91667
1364.747	3299.25
1367.944	3267.25
1371.138	3275.91667
1374.329	3293.58333
1377.518	3290.58333
1380.705	3324.91667
1383.89	3277.91667
1387.072	3208.58333
1390.252	3064.58333
1393.429	2974.91667
1396.605	2903.58333
1399.777	2815.91667
1402.948	2778.91667
1406.116	2766.91667
1409.282	2766.25
1412.445	2749.25
1415.606	2793.91667
1418.765	2805.58333
1421.921	2852.58333
1425.075	2936.58333
1428.227	2995.91667
1431.376	3148.58333
1434.524	3247.58333
1437.668	3342.58333
1440.811	3369.25
1443.951	3413.58333
1447.089	3416.25
1450.224	3410.91667
1453.357	3397.58333
1456.488	3370.58333
1459.617	3299.91667
1462.743	3269.91667
1465.867	3202.25
1468.989	3143.91667
1472.108	3133.91667
1475.225	3044.25
1478.34	3017.25
1481.453	2985.91667
1484.563	3004.58333
1487.671	3034.58333
1490.776	3090.91667
1493.88	3119.25
1496.981	3178.58333
1500.08	3214.58333
1503.176	3242.91667
1506.271	3294.25
1509.363	3334.58333
1512.452	3372.25
1515.54	3410.25
1518.625	3479.58333
1521.708	3549.91667
1524.789	3649.58333
1527.867	3805.91667
1530.944	3985.91667
1534.018	4154.91667
1537.089	4286.91667
1540.159	4347.91667
1543.226	4305.25
1546.291	4215.58333
1549.354	4148.25
1552.415	4030.25
1555.473	3933.91667
1558.529	3844.58333
1561.583	3815.25
1564.634	3800.25
1567.684	3786.58333
1570.731	3794.91667
1573.776	3834.91667
1576.819	3911.25
1579.859	3957.58333
1582.898	3975.25
1585.934	4036.58333
1588.968	4039.91667
1591.999	4031.58333
1595.029	4053.25
1598.056	4041.91667
1601.081	4063.91667
1604.104	4061.58333
1607.125	4051.58333
1610.144	3947.58333
1613.16	3876.25
1616.174	3792.91667
1619.186	3727.25
1622.196	3610.25
1625.203	3553.58333
1628.209	3497.25
1631.212	3502.58333
1634.213	3512.25
1637.212	3551.58333
1640.209	3492.25
1643.203	3407.91667
1646.196	3300.58333
1649.186	3154.25
1652.174	3041.25
1655.16	2959.25
1658.144	2837.91667
1661.125	2736.58333
1664.105	2605.25
1667.082	2481.58333
1670.057	2376.25
1673.03	2238.25
1676.001	2095.91667
1678.97	1968.91667
1681.937	1833.25
1684.901	1747.58333
1687.863	1688.58333
1690.824	1627.58333
1693.782	1576.58333
1696.738	1530.25
1699.692	1520.25
1702.643	1449.58333
1705.593	1444.91667
1708.54	1431.58333
1711.486	1434.58333
1714.429	1387.25
1717.37	1384.25
1720.309	1369.58333
1723.246	1375.91667
1726.181	1347.58333
1729.113	1337.58333
1732.044	1326.58333
1734.972	1320.25
1737.899	1312.58333
1740.823	1308.25
1743.745	1315.58333
1746.665	1259.91667
1749.583	1248.91667
1752.499	1230.25
1755.413	1218.58333
1758.325	1201.58333
1761.235	1198.58333
1764.142	1178.25
1767.048	1163.91667
1769.951	1172.91667
1772.852	1178.58333
1775.752	1235.25
1778.649	1315.91667
1781.544	1203.58333
1784.437	1110.91667
1787.328	1123.91667
1790.217	1129.58333
1793.104	1090.91667
1795.989	1089.25
1798.872	1087.58333
1801.753	1084.91667
1804.631	1091.25
1807.508	1086.91667
1810.383	1088.91667
1813.255	1075.91667
1816.126	1073.25
1818.994	1065.91667
1821.861	1057.91667
1824.725	1057.58333
1827.587	1046.25
1830.448	1033.58333
1833.306	1034.91667
1836.162	1035.25
1839.017	1039.91667
1841.869	1028.25
1844.719	1016.58333
1847.567	1014.58333
1850.414	994.25
1853.258	1000.58333
1856.1	1014.58333
1858.94	1011.91667
1861.778	1008.58333
1864.614	981.25
1867.448	998.58333
1870.28	980.58333
1873.111	1003.91667
1875.939	980.58333
1878.765	1011.58333
1881.589	976.58333
1884.411	967.25
1887.231	992.91667
1890.049	976.25
1892.865	977.91667
1895.68	971.58333
1898.492	996.25
1901.302	981.25
1904.11	951.25
1906.916	935.91667
1909.721	925.58333
1912.523	952.91667
1915.323	912.58333
1918.122	914.58333
1920.918	918.58333
1923.712	928.58333
1926.505	911.25
1929.295	910.25
1932.084	926.25
1934.87	915.91667
1937.655	917.91667
1940.438	915.58333
1943.218	919.25
1945.997	917.25
1948.774	914.58333
1951.549	914.25
1954.322	906.25
1957.093	893.58333
1959.862	897.91667
1962.629	891.58333
1965.394	888.58333
1968.157	870.58333
1970.918	881.25
1973.678	855.58333
1976.435	878.25
1979.19	877.91667
1981.944	872.25
1984.696	859.91667
1987.445	851.58333
1990.193	852.58333
1992.939	863.25
1995.683	848.25
1998.425	828.58333
2001.165	860.91667
2003.903	834.58333
2006.639	831.58333
2009.374	843.91667
2012.106	836.58333
2014.837	820.25
2017.566	841.91667
2020.292	844.91667
2023.017	827.58333
2025.74	828.25
2028.461	815.25
2031.18	816.91667
2033.898	803.25
2036.613	815.91667
2039.327	817.91667
2042.038	796.25
2044.748	789.25
2047.456	804.25
2050.162	789.91667
2052.866	794.91667
2055.568	801.25
2058.268	788.25
2060.967	798.25
2063.663	776.91667
2066.358	779.91667
2069.051	778.25
2071.742	781.25
2074.431	791.25
2077.118	774.25
2079.804	771.91667
2082.487	787.58333
2085.169	782.91667
2087.849	793.58333
2090.527	767.91667
2093.203	778.91667
2095.877	793.25
2098.55	786.91667
2101.22	793.58333
2103.889	784.58333
2106.556	796.58333
2109.221	809.58333
2111.884	816.25
2114.546	862.25
2117.205	894.91667
2119.863	962.58333
2122.519	1015.91667
2125.173	1047.91667
2127.825	1108.58333
2130.475	1119.25
2133.124	1091.91667
2135.771	1064.91667
2138.416	1028.91667
2141.059	964.25
2143.7	922.58333
2146.339	872.25
2148.977	842.25
2151.613	831.25
2154.247	799.58333
2156.879	782.58333
2159.51	770.58333
2162.138	752.58333
2164.765	748.58333
2167.39	723.25
2170.013	751.25
2172.634	736.25
2175.254	723.25
2177.872	746.91667
2180.488	705.25
2183.102	705.91667
2185.714	692.25
2188.325	678.58333
2190.934	674.91667
2193.541	693.25
2196.146	674.58333
2198.75	656.91667
2201.351	660.25
2203.951	640.25
2206.549	671.25
2209.146	655.58333
2211.74	648.91667
2214.333	665.91667
2216.924	638.91667
2219.514	641.91667
2222.101	638.91667
2224.687	659.58333
2227.271	641.25
2229.853	622.91667
2232.433	629.58333
2235.012	637.91667
2237.589	629.91667
2240.164	638.91667
2242.738	627.58333
2245.309	620.25
2247.879	629.25
2250.448	632.25
2253.014	600.58333
2255.579	587.58333
2258.142	596.58333
2260.703	588.58333
2263.262	598.58333
2265.82	584.91667
2268.376	589.91667
2270.93	568.58333
2273.483	572.58333
2276.033	575.91667
2278.583	575.91667
2281.13	572.25
2283.675	563.25
2286.219	569.25
2288.761	560.91667
2291.302	565.58333
2293.841	569.91667
2296.377	551.91667
2298.913	552.25
2301.446	566.58333
2303.978	557.25
2306.508	537.91667
2309.037	555.25
2311.563	558.25
2314.088	552.25
2316.612	527.25
2319.133	540.25
2321.653	540.58333
2324.171	526.25
2326.688	546.91667
2329.202	524.58333
2331.715	530.25
2334.227	523.25
2336.736	520.25
2339.244	522.91667
2341.751	504.25
2344.255	516.91667
2346.758	523.58333
2349.259	510.25
2351.759	510.58333
2354.257	509.58333
2356.753	510.25
2359.247	502.25
2361.74	500.91667
2364.231	514.91667
2366.721	502.58333
2369.209	499.91667
2371.695	505.58333
2374.179	490.58333
2376.662	488.25
2379.143	501.25
2381.622	491.25
2384.1	518.58333
2386.576	497.25
2389.051	507.58333
2391.524	499.91667
2393.995	499.25
2396.464	486.91667
2398.932	479.91667
2401.398	485.25
2403.863	483.25
2406.325	484.58333
2408.787	478.91667
2411.246	469.91667
2413.704	477.58333
2416.16	468.58333
2418.615	471.25
2421.068	482.91667
2423.519	467.91667
2425.969	457.58333
2428.417	469.25
2430.863	492.91667
2433.308	485.25
2435.751	466.91667
2438.193	458.58333
2440.633	463.25
2443.071	462.58333
2445.508	461.91667
2447.943	455.91667
2450.376	454.25
2452.808	452.25
2455.238	455.25
2457.667	481.58333
2460.093	454.58333
2462.519	438.58333
2464.942	441.91667
2467.365	448.25
2469.785	450.91667
2472.204	453.58333
2474.621	431.25
2477.037	462.91667
2479.451	426.58333
2481.863	430.58333
2484.274	432.91667
2486.683	444.58333
2489.091	442.58333
2491.497	435.58333
2493.901	431.25
2496.304	428.91667
2498.705	434.58333
2501.105	431.58333
2503.503	452.58333
2505.899	416.58333
2508.294	441.25
2510.687	421.58333
2513.079	418.91667
2515.469	417.91667
2517.858	423.58333
2520.245	432.58333
2522.63	420.58333
2525.014	406.91667
2527.396	401.25
2529.776	404.25
2532.156	417.25
2534.533	397.58333
2536.909	405.25
2539.283	386.91667
2541.656	401.91667
2544.027	414.25
2546.397	401.58333
2548.765	398.25
2551.131	400.91667
2553.496	408.25
2555.86	405.91667
2558.221	401.91667
2560.582	390.25
2562.94	383.25
2565.298	388.58333
2567.653	406.25
2570.007	381.58333
2572.36	404.58333
2574.711	389.58333
2577.06	406.91667
2579.408	400.25
2581.754	394.91667
2584.099	396.91667
2586.442	390.91667
2588.784	393.25
2591.124	392.91667
2593.463	391.25
2595.8	387.58333
2598.135	375.91667
2600.469	374.25
2602.802	382.58333
2605.133	396.91667
2607.462	375.91667
2609.79	361.58333
2612.116	392.91667
2614.441	375.91667
2616.764	379.91667
2619.086	386.91667
2621.406	363.91667
2623.725	387.91667
2626.042	379.58333
2628.358	375.91667
2630.672	366.25
2632.985	388.91667
2635.296	371.58333
2637.606	373.91667
2639.914	366.25
2642.22	375.58333
2644.525	365.91667
2646.829	376.91667
2649.131	386.58333
2651.432	384.58333
2653.731	381.58333
2656.028	383.25
2658.324	378.25
2660.619	371.58333
2662.912	382.58333
2665.204	365.91667
2667.494	380.25
2669.782	372.58333
2672.07	371.58333
2674.355	383.58333
2676.639	386.91667
2678.922	367.58333
2681.203	369.58333
2683.483	361.25
2685.761	370.91667
2688.038	380.58333
2690.313	384.91667
2692.587	379.58333
2694.859	368.91667
2697.13	372.25
2699.399	388.58333
2701.667	403.25
2703.933	386.91667
2706.198	393.91667
2708.461	396.58333
2710.723	390.91667
2712.984	396.91667
2715.243	391.25
2717.5	393.91667
2719.757	406.58333
2722.011	399.91667
2724.264	406.91667
2726.516	406.91667
2728.766	392.91667
2731.015	404.58333
2733.262	407.25
2735.508	396.25
2737.753	393.58333
2739.996	389.91667
2742.237	387.91667
2744.477	397.58333
2746.716	393.91667
2748.953	387.91667
2751.189	388.58333
2753.423	378.58333
2755.656	367.58333
2757.887	366.91667
2760.117	365.91667
2762.346	363.25
2764.573	356.58333
2766.798	362.58333
2769.022	362.58333
2771.245	373.91667
2773.467	374.58333
2775.686	380.91667
2777.905	379.91667
2780.122	379.91667
2782.337	382.25
2784.552	383.91667
2786.764	373.91667
2788.976	390.91667
2791.186	389.58333
2793.394	393.25
2795.601	397.58333
2797.807	412.25
2800.011	408.58333
2802.214	412.58333
2804.415	411.58333
2806.615	412.58333
2808.814	409.91667
2811.011	420.91667
2813.206	422.25
2815.401	442.58333
2817.594	444.91667
2819.785	454.91667
2821.975	448.25
2824.164	453.58333
2826.351	457.91667
2828.537	483.25
2830.722	490.91667
2832.905	497.25
2835.086	520.58333
2837.267	547.25
2839.445	570.58333
2841.623	586.25
2843.799	613.25
2845.974	644.91667
2848.147	682.58333
2850.319	699.91667
2852.489	729.91667
2854.659	746.25
2856.826	747.25
2858.993	789.58333
2861.158	769.25
2863.321	764.25
2865.483	783.25
2867.644	789.91667
2869.804	777.58333
2871.962	803.91667
2874.118	815.25
2876.274	866.58333
2878.428	850.25
2880.58	810.91667
2882.731	796.58333
2884.881	796.91667
2887.03	802.91667
2889.177	795.25
2891.322	819.25
2893.467	794.58333
2895.61	797.25
2897.751	811.58333
2899.892	794.58333
2902.03	804.91667
2904.168	807.58333
2906.304	808.58333
2908.439	838.58333
2910.572	803.25
2912.704	833.58333
2914.835	833.91667
2916.965	831.25
2919.093	841.25
2921.219	807.58333
2923.345	830.91667
2925.469	806.25
2927.591	805.58333
2929.712	766.91667
2931.832	769.58333
2933.951	757.25
2936.068	743.91667
2938.184	714.91667
2940.299	688.91667
2942.412	679.25
2944.524	636.58333
2946.634	630.25
2948.744	584.25
2950.851	606.58333
2952.958	560.58333
2955.063	558.25
2957.167	538.25
2959.269	510.58333
2961.371	539.91667
2963.471	492.25
2965.569	498.58333
2967.666	472.58333
2969.762	468.91667
2971.857	453.25
2973.95	424.91667
2976.042	420.25
2978.133	417.58333
2980.222	409.58333
2982.31	384.58333
2984.396	369.25
2986.482	368.58333
2988.566	360.91667
2990.648	353.58333
2992.73	352.58333
2994.81	346.91667
2996.889	344.91667
2998.966	337.91667
3001.042	351.25
3003.117	334.58333
3005.191	342.58333
3007.263	338.91667
3009.334	319.25
3011.403	326.91667
3013.472	311.25
3015.539	308.91667
3017.604	328.91667
3019.669	285.91667
3021.732	297.91667
3023.794	298.91667
3025.854	290.25
3027.914	284.58333
3029.971	292.58333
3032.028	276.58333
3034.083	285.25
3036.137	277.58333
3038.19	268.91667
3040.242	267.25
3042.292	260.58333
3044.341	255.25
3046.388	265.58333
3048.435	237.25
3050.48	263.91667
3052.524	254.58333
3054.566	239.25
3056.607	250.25
3058.647	235.91667
3060.686	231.91667
3062.723	223.91667
3064.759	215.58333
3066.794	-0.41667
3068.828	3.91667
3070.86	1.25
