-0.839	477.20833
3.438	559.875
7.711	166.20833
11.981	58.875
16.247	42.875
20.509	49.20833
24.768	42.54167
29.024	52.54167
33.276	41.54167
37.524	48.54167
41.769	45.20833
46.01	29.875
50.247	45.875
54.481	59.20833
58.712	60.875
62.939	45.20833
67.162	56.875
71.382	55.54167
75.599	43.20833
79.812	63.875
84.021	80.20833
88.227	59.20833
92.429	58.54167
96.628	48.20833
100.823	72.54167
105.015	70.54167
109.204	62.54167
113.388	69.875
117.57	70.54167
121.748	82.20833
125.922	76.875
130.093	96.875
134.261	95.54167
138.425	96.875
142.585	127.54167
146.742	124.875
150.896	147.875
155.046	181.20833
159.193	282.20833
163.336	493.20833
167.476	889.20833
171.613	1633.20833
175.746	2722.875
179.875	4003.54167
184.002	5216.875
188.124	6000.875
192.244	6282.54167
196.36	6158.875
200.472	5989.20833
204.581	5757.20833
208.687	5581.875
212.79	5458.54167
216.889	5416.875
220.984	5370.875
225.077	5352.875
229.165	5348.54167
233.251	5346.875
237.333	5279.54167
241.412	5202.20833
245.487	5133.20833
249.559	5065.875
253.628	5046.54167
257.694	4997.54167
261.756	4999.20833
265.814	4879.20833
269.87	4703.875
273.922	4575.20833
277.97	4465.20833
282.016	4420.20833
286.058	4411.54167
290.097	4502.54167
294.132	4545.54167
298.164	4529.54167
302.193	4370.54167
306.219	4088.20833
310.241	3729.54167
314.26	3462.20833
318.276	3225.875
322.288	3053.875
326.297	2926.875
330.303	2851.875
334.305	2762.20833
338.305	2739.20833
342.301	2696.20833
346.294	2669.875
350.283	2662.875
354.269	2639.54167
358.252	2587.875
362.232	2579.20833
366.209	2572.875
370.182	2541.875
374.152	2552.54167
378.119	2556.20833
382.083	2524.54167
386.043	2553.54167
390	2532.875
393.954	2576.54167
397.905	2561.875
401.852	2541.875
405.797	2509.54167
409.738	2551.875
413.676	2573.54167
417.61	2581.54167
421.542	2520.20833
425.47	2449.875
429.396	2423.54167
433.318	2412.54167
437.236	2434.875
441.152	2427.54167
445.065	2380.875
448.974	2381.54167
452.88	2374.54167
456.783	2362.875
460.683	2330.54167
464.58	2334.54167
468.473	2333.875
472.364	2353.54167
476.251	2346.54167
480.135	2374.875
484.016	2394.20833
487.894	2420.875
491.769	2432.875
495.641	2435.54167
499.509	2420.20833
503.375	2414.20833
507.237	2397.20833
511.096	2417.20833
514.952	2431.20833
518.805	2464.20833
522.655	2479.20833
526.502	2426.875
530.346	2399.54167
534.187	2413.54167
538.024	2402.875
541.859	2433.20833
545.69	2445.20833
549.519	2436.875
553.344	2419.875
557.166	2398.875
560.985	2361.54167
564.802	2327.875
568.615	2298.54167
572.425	2270.875
576.232	2274.875
580.036	2286.875
583.836	2250.875
587.634	2256.875
591.429	2274.54167
595.221	2320.54167
599.01	2331.875
602.796	2357.875
606.578	2354.875
610.358	2364.54167
614.135	2360.54167
617.909	2353.875
621.679	2308.54167
625.447	2311.20833
629.212	2286.54167
632.973	2306.20833
636.732	2307.875
640.488	2318.54167
644.241	2270.20833
647.991	2266.875
651.737	2302.20833
655.481	2275.20833
659.222	2280.54167
662.96	2267.20833
666.695	2304.875
670.427	2299.54167
674.156	2303.20833
677.882	2286.54167
681.605	2308.54167
685.325	2268.20833
689.043	2284.875
692.757	2243.20833
696.468	2232.20833
700.177	2244.54167
703.882	2222.875
707.585	2229.875
711.284	2209.54167
714.981	2228.20833
718.675	2233.20833
722.366	2240.875
726.054	2212.54167
729.739	2239.875
733.421	2215.875
737.1	2209.20833
740.777	2249.54167
744.45	2227.54167
748.121	2249.20833
751.789	2293.54167
755.453	2292.875
759.115	2318.54167
762.774	2313.875
766.431	2333.20833
770.084	2337.54167
773.734	2359.20833
777.382	2382.20833
781.027	2399.54167
784.669	2399.875
788.308	2407.20833
791.944	2409.875
795.577	2442.20833
799.208	2482.20833
802.835	2481.875
806.46	2494.20833
810.082	2499.875
813.701	2525.54167
817.317	2520.54167
820.931	2522.875
824.542	2528.54167
828.149	2476.875
831.754	2463.54167
835.357	2464.54167
838.956	2478.20833
842.553	2487.20833
846.146	2480.54167
849.737	2450.20833
853.326	2430.54167
856.911	2408.875
860.493	2456.20833
864.073	2510.20833
867.65	2534.875
871.225	2552.20833
874.796	2492.875
878.365	2483.54167
881.931	2520.54167
885.494	2538.20833
889.054	2525.54167
892.612	2532.54167
896.166	2508.875
899.719	2495.875
903.268	2452.20833
906.814	2440.54167
910.358	2417.20833
913.899	2417.875
917.438	2439.875
920.973	2405.54167
924.506	2439.20833
928.036	2480.54167
931.564	2509.875
935.088	2540.20833
938.61	2541.20833
942.129	2549.54167
945.646	2613.875
949.16	2657.54167
952.671	2701.20833
956.179	2728.54167
959.685	2688.20833
963.188	2704.875
966.688	2690.875
970.185	2590.54167
973.68	2533.54167
977.173	2488.20833
980.662	2465.20833
984.149	2478.875
987.633	2440.54167
991.114	2502.54167
994.593	2538.20833
998.069	2609.54167
1001.542	2673.20833
1005.013	2637.875
1008.481	2496.54167
1011.947	2450.54167
1015.409	2412.875
1018.869	2442.54167
1022.327	2435.875
1025.782	2403.20833
1029.234	2391.20833
1032.683	2359.20833
1036.13	2300.54167
1039.574	2229.54167
1043.016	2169.54167
1046.455	2142.875
1049.891	2109.875
1053.325	2132.875
1056.756	2117.54167
1060.184	2156.54167
1063.61	2157.875
1067.033	2164.20833
1070.454	2145.875
1073.872	2198.54167
1077.287	2189.20833
1080.7	2190.20833
1084.11	2193.20833
1087.517	2152.875
1090.922	2107.20833
1094.325	2113.20833
1097.724	2092.20833
1101.122	2082.20833
1104.516	2098.20833
1107.908	2094.54167
1111.298	2111.875
1114.684	2117.875
1118.069	2157.54167
1121.45	2179.54167
1124.83	2175.20833
1128.206	2200.875
1131.58	2234.875
1134.951	2272.54167
1138.32	2339.20833
1141.687	2430.20833
1145.05	2473.875
1148.412	2467.875
1151.77	2452.54167
1155.126	2460.20833
1158.48	2441.20833
1161.831	2441.875
1165.18	2464.875
1168.525	2488.875
1171.869	2514.20833
1175.21	2519.875
1178.548	2583.54167
1181.884	2571.20833
1185.217	2600.54167
1188.548	2665.875
1191.877	2711.54167
1195.202	2796.875
1198.526	2844.875
1201.846	2856.20833
1205.165	2875.20833
1208.48	2848.54167
1211.794	2834.875
1215.104	2872.875
1218.413	2853.20833
1221.719	2874.54167
1225.022	2814.54167
1228.323	2757.875
1231.621	2752.20833
1234.917	2728.875
1238.21	2717.20833
1241.501	2711.875
1244.79	2697.20833
1248.076	2686.54167
1251.359	2718.20833
1254.64	2799.20833
1257.919	2797.875
1261.195	2869.54167
1264.468	2894.20833
1267.74	2924.20833
1271.008	2931.54167
1274.275	2952.54167
1277.538	2910.54167
1280.8	2897.875
1284.059	2902.875
1287.315	2924.20833
1290.569	2933.54167
1293.821	2952.20833
1297.07	2996.54167
1300.317	2980.875
1303.562	2986.875
1306.803	2951.54167
1310.043	2928.20833
1313.28	2902.20833
1316.515	2903.54167
1319.747	2887.20833
1322.977	2847.875
1326.204	2841.875
1329.429	2768.54167
1332.652	2779.875
1335.872	2762.875
1339.09	2725.54167
1342.306	2711.20833
1345.519	2701.20833
1348.729	2662.20833
1351.938	2656.20833
1355.144	2634.20833
1358.347	2603.875
1361.548	2578.875
1364.747	2565.875
1367.944	2558.20833
1371.138	2558.54167
1374.329	2558.54167
1377.518	2585.54167
1380.705	2616.875
1383.89	2576.54167
1387.072	2514.54167
1390.252	2417.54167
1393.429	2319.20833
1396.605	2258.20833
1399.777	2216.20833
1402.948	2179.20833
1406.116	2166.54167
1409.282	2163.20833
1412.445	2156.54167
1415.606	2195.875
1418.765	2198.20833
1421.921	2252.875
1425.075	2302.20833
1428.227	2372.20833
1431.376	2483.20833
1434.524	2570.54167
1437.668	2641.54167
1440.811	2661.20833
1443.951	2706.54167
1447.089	2708.20833
1450.224	2686.875
1453.357	2690.875
1456.488	2639.875
1459.617	2629.54167
1462.743	2572.20833
1465.867	2514.875
1468.989	2472.54167
1472.108	2463.20833
1475.225	2408.20833
1478.34	2380.875
1481.453	2356.20833
1484.563	2364.54167
1487.671	2375.54167
1490.776	2420.875
1493.88	2458.54167
1496.981	2493.875
1500.08	2516.875
1503.176	2533.20833
1506.271	2573.875
1509.363	2595.54167
1512.452	2627.875
1515.54	2685.875
1518.625	2687.875
1521.708	2784.20833
1524.789	2861.875
1527.867	2948.20833
1530.944	3075.54167
1534.018	3228.875
1537.089	3351.54167
1540.159	3410.875
1543.226	3373.20833
1546.291	3321.20833
1549.354	3241.54167
1552.415	3170.54167
1555.473	3089.20833
1558.529	3031.20833
1561.583	2998.875
1564.634	2959.875
1567.684	2987.20833
1570.731	3001.54167
1573.776	2994.875
1576.819	3058.20833
1579.859	3083.54167
1582.898	3134.875
1585.934	3164.20833
1588.968	3179.54167
1591.999	3197.875
1595.029	3193.875
1598.056	3207.875
1601.081	3199.54167
1604.104	3228.54167
1607.125	3196.54167
1610.144	3113.875
1613.16	3047.20833
1616.174	2997.20833
1619.186	2911.54167
1622.196	2852.54167
1625.203	2776.875
1628.209	2745.54167
1631.212	2729.54167
1634.213	2725.20833
1637.212	2734.20833
1640.209	2703.54167
1643.203	2618.875
1646.196	2529.875
1649.186	2424.875
1652.174	2349.54167
1655.16	2271.54167
1658.144	2215.875
1661.125	2147.54167
1664.105	2048.875
1667.082	1956.875
1670.057	1862.20833
1673.03	1748.54167
1676.001	1621.54167
1678.97	1540.875
1681.937	1427.875
1684.901	1370.54167
1687.863	1333.54167
1690.824	1257.20833
1693.782	1233.54167
1696.738	1191.20833
1699.692	1174.875
1702.643	1128.20833
1705.593	1108.54167
1708.54	1111.875
1711.486	1108.875
1714.429	1075.54167
1717.37	1097.875
1720.309	1052.54167
1723.246	1063.54167
1726.181	1046.20833
1729.113	1057.20833
1732.044	1022.875
1734.972	1012.54167
1737.899	1037.20833
1740.823	1023.20833
1743.745	1029.20833
1746.665	976.875
1749.583	958.20833
1752.499	954.875
1755.413	958.54167
1758.325	911.20833
1761.235	921.54167
1764.142	902.20833
1767.048	887.875
1769.951	893.875
1772.852	899.20833
1775.752	909.875
1778.649	934.20833
1781.544	896.54167
1784.437	863.54167
1787.328	883.875
1790.217	859.54167
1793.104	845.20833
1795.989	836.54167
1798.872	824.875
1801.753	852.20833
1804.631	837.875
1807.508	844.54167
1810.383	849.20833
1813.255	839.54167
1816.126	825.875
1818.994	834.20833
1821.861	809.875
1824.725	818.20833
1827.587	826.20833
1830.448	818.875
1833.306	789.875
1836.162	802.54167
1839.017	786.54167
1841.869	786.20833
1844.719	776.20833
1847.567	776.54167
1850.414	776.875
1853.258	767.20833
1856.1	785.20833
1858.94	775.20833
1861.778	769.54167
1864.614	764.875
1867.448	775.20833
1870.28	759.20833
1873.111	793.54167
1875.939	766.20833
1878.765	778.875
1881.589	761.875
1884.411	761.54167
1887.231	760.54167
1890.049	748.875
1892.865	752.54167
1895.68	753.20833
1898.492	751.875
1901.302	752.54167
1904.11	748.875
1906.916	723.54167
1909.721	720.54167
1912.523	734.54167
1915.323	725.20833
1918.122	710.20833
1920.918	733.54167
1923.712	707.54167
1926.505	713.875
1929.295	707.20833
1932.084	725.54167
1934.87	714.875
1937.655	707.54167
1940.438	705.54167
1943.218	710.54167
1945.997	709.54167
1948.774	714.54167
1951.549	723.20833
1954.322	709.54167
1957.093	692.875
1959.862	697.20833
1962.629	688.20833
1965.394	693.20833
1968.157	681.54167
1970.918	675.54167
1973.678	673.20833
1976.435	686.54167
1979.19	672.875
1981.944	667.20833
1984.696	677.875
1987.445	652.54167
1990.193	663.20833
1992.939	684.20833
1995.683	662.875
1998.425	647.20833
2001.165	676.54167
2003.903	653.875
2006.639	649.875
2009.374	660.875
2012.106	658.20833
2014.837	634.875
2017.566	654.20833
2020.292	669.875
2023.017	647.875
2025.74	649.54167
2028.461	639.54167
2031.18	637.875
2033.898	634.20833
2036.613	629.20833
2039.327	637.20833
2042.038	628.20833
2044.748	637.875
2047.456	633.54167
2050.162	623.20833
2052.866	623.875
2055.568	618.20833
2058.268	611.875
2060.967	619.875
2063.663	606.54167
2066.358	618.54167
2069.051	617.875
2071.742	615.54167
2074.431	613.54167
2077.118	609.54167
2079.804	603.20833
2082.487	608.875
2085.169	617.875
2087.849	634.54167
2090.527	599.54167
2093.203	606.54167
2095.877	627.20833
2098.55	613.20833
2101.22	622.20833
2103.889	628.54167
2106.556	625.54167
2109.221	643.54167
2111.884	644.875
2114.546	680.875
2117.205	726.875
2119.863	756.54167
2122.519	791.54167
2125.173	826.20833
2127.825	878.54167
2130.475	879.20833
2133.124	850.875
2135.771	829.875
2138.416	809.875
2141.059	749.54167
2143.7	734.20833
2146.339	696.54167
2148.977	650.54167
2151.613	654.20833
2154.247	635.54167
2156.879	619.20833
2159.51	604.54167
2162.138	604.875
2164.765	599.54167
2167.39	580.20833
2170.013	598.875
2172.634	585.875
2175.254	576.54167
2177.872	607.54167
2180.488	558.54167
2183.102	568.54167
2185.714	554.20833
2188.325	538.54167
2190.934	552.54167
2193.541	557.875
2196.146	538.875
2198.75	537.875
2201.351	527.54167
2203.951	520.20833
2206.549	535.54167
2209.146	525.20833
2211.74	524.875
2214.333	538.54167
2216.924	506.875
2219.514	516.54167
2222.101	509.54167
2224.687	529.875
2227.271	516.875
2229.853	504.875
2232.433	493.20833
2235.012	515.54167
2237.589	512.875
2240.164	529.54167
2242.738	506.54167
2245.309	497.20833
2247.879	504.54167
2250.448	511.875
2253.014	492.875
2255.579	465.875
2258.142	484.875
2260.703	474.54167
2263.262	481.875
2265.82	466.875
2268.376	484.20833
2270.93	458.875
2273.483	467.875
2276.033	466.20833
2278.583	470.875
2281.13	467.20833
2283.675	451.20833
2286.219	451.20833
2288.761	456.20833
2291.302	463.54167
2293.841	457.54167
2296.377	450.54167
2298.913	451.20833
2301.446	464.54167
2303.978	451.20833
2306.508	445.54167
2309.037	449.875
2311.563	451.875
2314.088	444.20833
2316.612	433.875
2319.133	442.54167
2321.653	443.54167
2324.171	429.875
2326.688	445.54167
2329.202	439.875
2331.715	436.20833
2334.227	430.20833
2336.736	433.20833
2339.244	433.875
2341.751	423.20833
2344.255	436.20833
2346.758	434.20833
2349.259	409.20833
2351.759	426.54167
2354.257	416.875
2356.753	408.875
2359.247	424.54167
2361.74	427.54167
2364.231	419.875
2366.721	424.54167
2369.209	415.54167
2371.695	417.54167
2374.179	407.54167
2376.662	404.20833
2379.143	427.54167
2381.622	411.875
2384.1	421.54167
2386.576	413.875
2389.051	426.20833
2391.524	429.54167
2393.995	416.20833
2396.464	400.54167
2398.932	403.54167
2401.398	399.20833
2403.863	398.20833
2406.325	402.20833
2408.787	399.20833
2411.246	400.875
2413.704	402.54167
2416.16	393.875
2418.615	400.20833
2421.068	407.54167
2423.519	406.875
2425.969	392.54167
2428.417	398.54167
2430.863	417.20833
2433.308	408.20833
2435.751	394.20833
2438.193	392.875
2440.633	403.20833
2443.071	401.20833
2445.508	397.20833
2447.943	391.875
2450.376	388.875
2452.808	391.875
2455.238	389.20833
2457.667	417.20833
2460.093	390.20833
2462.519	389.20833
2464.942	387.20833
2467.365	385.54167
2469.785	396.20833
2472.204	388.20833
2474.621	382.54167
2477.037	396.54167
2479.451	369.20833
2481.863	370.20833
2484.274	374.54167
2486.683	374.875
2489.091	381.54167
2491.497	382.20833
2493.901	384.20833
2496.304	378.20833
2498.705	384.875
2501.105	376.875
2503.503	397.54167
2505.899	362.54167
2508.294	395.875
2510.687	380.54167
2513.079	374.54167
2515.469	374.875
2517.858	371.20833
2520.245	388.20833
2522.63	368.20833
2525.014	372.20833
2527.396	363.20833
2529.776	359.875
2532.156	370.54167
2534.533	364.20833
2536.909	359.20833
2539.283	350.20833
2541.656	359.54167
2544.027	385.54167
2546.397	371.54167
2548.765	355.875
2551.131	366.875
2553.496	356.875
2555.86	369.875
2558.221	363.875
2560.582	356.20833
2562.94	354.20833
2565.298	356.875
2567.653	371.54167
2570.007	348.54167
2572.36	364.875
2574.711	361.20833
2577.06	367.54167
2579.408	365.20833
2581.754	359.875
2584.099	363.20833
2586.442	353.875
2588.784	367.20833
2591.124	360.875
2593.463	365.20833
2595.8	362.875
2598.135	352.20833
2600.469	350.54167
2602.802	358.875
2605.133	371.20833
2607.462	337.875
2609.79	341.54167
2612.116	361.875
2614.441	356.54167
2616.764	362.875
2619.086	361.54167
2621.406	347.54167
2623.725	369.875
2626.042	366.54167
2628.358	358.20833
2630.672	350.54167
2632.985	359.20833
2635.296	354.875
2637.606	355.20833
2639.914	345.54167
2642.22	348.875
2644.525	352.875
2646.829	363.54167
2649.131	371.875
2651.432	370.875
2653.731	361.875
2656.028	364.875
2658.324	361.875
2660.619	359.54167
2662.912	370.875
2665.204	350.54167
2667.494	365.54167
2669.782	358.875
2672.07	365.875
2674.355	357.875
2676.639	366.20833
2678.922	355.875
2681.203	360.20833
2683.483	356.20833
2685.761	354.875
2688.038	369.20833
2690.313	376.20833
2692.587	369.875
2694.859	361.54167
2697.13	364.875
2699.399	378.54167
2701.667	380.20833
2703.933	371.54167
2706.198	387.875
2708.461	385.875
2710.723	389.54167
2712.984	381.54167
2715.243	386.875
2717.5	378.875
2719.757	395.875
2722.011	389.54167
2724.264	400.20833
2726.516	407.54167
2728.766	393.875
2731.015	396.875
2733.262	393.20833
2735.508	395.875
2737.753	383.875
2739.996	381.54167
2742.237	376.875
2744.477	383.875
2746.716	396.54167
2748.953	377.20833
2751.189	389.875
2753.423	377.875
2755.656	371.875
2757.887	367.54167
2760.117	378.20833
2762.346	363.54167
2764.573	365.875
2766.798	366.20833
2769.022	373.20833
2771.245	377.20833
2773.467	381.20833
2775.686	385.20833
2777.905	380.54167
2780.122	383.20833
2782.337	385.875
2784.552	381.875
2786.764	382.875
2788.976	388.875
2791.186	392.20833
2793.394	384.875
2795.601	401.875
2797.807	407.875
2800.011	403.54167
2802.214	422.54167
2804.415	414.875
2806.615	409.54167
2808.814	412.875
2811.011	423.54167
2813.206	424.875
2815.401	445.20833
2817.594	450.54167
2819.785	446.875
2821.975	437.875
2824.164	443.875
2826.351	461.875
2828.537	483.875
2830.722	488.20833
2832.905	483.54167
2835.086	510.875
2837.267	525.20833
2839.445	535.875
2841.623	567.54167
2843.799	580.54167
2845.974	613.20833
2848.147	635.875
2850.319	654.54167
2852.489	684.54167
2854.659	686.20833
2856.826	696.20833
2858.993	731.20833
2861.158	709.20833
2863.321	714.20833
2865.483	734.875
2867.644	724.875
2869.804	721.20833
2871.962	729.54167
2874.118	735.20833
2876.274	740.875
2878.428	747.20833
2880.58	728.54167
2882.731	729.20833
2884.881	718.54167
2887.03	734.20833
2889.177	728.54167
2891.322	740.20833
2893.467	730.875
2895.61	725.54167
2897.751	745.54167
2899.892	744.20833
2902.03	746.875
2904.168	744.54167
2906.304	749.20833
2908.439	771.875
2910.572	760.875
2912.704	770.54167
2914.835	770.20833
2916.965	753.20833
2919.093	787.875
2921.219	756.20833
2923.345	773.54167
2925.469	749.54167
2927.591	742.875
2929.712	726.875
2931.832	723.875
2933.951	713.20833
2936.068	695.20833
2938.184	670.875
2940.299	657.54167
2942.412	644.54167
2944.524	620.54167
2946.634	611.875
2948.744	564.20833
2950.851	594.54167
2952.958	554.54167
2955.063	547.20833
2957.167	541.54167
2959.269	503.54167
2961.371	535.54167
2963.471	501.875
2965.569	502.875
2967.666	474.20833
2969.762	470.875
2971.857	469.54167
2973.95	442.20833
2976.042	446.20833
2978.133	438.54167
2980.222	426.875
2982.31	413.875
2984.396	396.20833
2986.482	393.875
2988.566	388.875
2990.648	388.54167
2992.73	383.875
2994.81	375.20833
2996.889	381.20833
2998.966	370.54167
3001.042	389.54167
3003.117	374.54167
3005.191	364.20833
3007.263	368.54167
3009.334	355.54167
3011.403	364.20833
3013.472	351.875
3015.539	355.875
3017.604	358.54167
3019.669	330.20833
3021.732	336.875
3023.794	333.54167
3025.854	328.875
3027.914	333.20833
3029.971	328.875
3032.028	328.20833
3034.083	327.20833
3036.137	324.20833
3038.19	307.875
3040.242	300.875
3042.292	296.875
3044.341	300.875
3046.388	311.54167
3048.435	290.20833
3050.48	306.875
3052.524	297.875
3054.566	284.875
3056.607	294.20833
3058.647	287.20833
3060.686	271.20833
3062.723	266.20833
3064.759	255.54167
3066.794	0.20833
3068.828	0.20833
3070.86	1.20833
