-0.839	393.79167
3.438	460.79167
7.711	145.45833
11.981	58.45833
16.247	39.79167
20.509	53.79167
24.768	44.125
29.024	55.79167
33.276	44.45833
37.524	48.45833
41.769	46.79167
46.01	32.45833
50.247	46.79167
54.481	57.79167
58.712	60.125
62.939	46.79167
67.162	63.45833
71.382	53.45833
75.599	46.125
79.812	62.125
84.021	74.79167
88.227	59.79167
92.429	59.79167
96.628	55.45833
100.823	72.125
105.015	73.125
109.204	64.45833
113.388	75.45833
117.57	73.45833
121.748	91.79167
125.922	77.125
130.093	97.125
134.261	97.45833
138.425	96.125
142.585	136.45833
146.742	126.79167
150.896	155.79167
155.046	200.45833
159.193	314.45833
163.336	526.125
167.476	979.45833
171.613	1816.45833
175.746	3025.125
179.875	4477.45833
184.002	5853.125
188.124	6729.79167
192.244	7043.45833
196.36	6914.79167
200.472	6658.125
204.581	6376.45833
208.687	6175.45833
212.79	6061.79167
216.889	5997.45833
220.984	5962.125
225.077	5912.125
229.165	5878.45833
233.251	5822.79167
237.333	5778.45833
241.412	5688.79167
245.487	5602.45833
249.559	5510.45833
253.628	5444.45833
257.694	5402.45833
261.756	5311.79167
265.814	5205.79167
269.87	5038.45833
273.922	4879.125
277.97	4777.79167
282.016	4734.125
286.058	4758.45833
290.097	4841.79167
294.132	4905.125
298.164	4845.45833
302.193	4626.79167
306.219	4256.79167
310.241	3931.79167
314.26	3640.79167
318.276	3376.45833
322.288	3186.45833
326.297	3047.79167
330.303	2926.45833
334.305	2882.125
338.305	2808.79167
342.301	2775.79167
346.294	2745.45833
350.283	2720.45833
354.269	2679.79167
358.252	2679.79167
362.232	2644.125
366.209	2597.79167
370.182	2591.79167
374.152	2561.79167
378.119	2550.79167
382.083	2547.79167
386.043	2553.79167
390	2527.125
393.954	2546.79167
397.905	2537.45833
401.852	2512.125
405.797	2466.125
409.738	2469.125
413.676	2488.79167
417.61	2470.79167
421.542	2444.125
425.47	2417.79167
429.396	2408.79167
433.318	2370.45833
437.236	2373.125
441.152	2403.79167
445.065	2345.79167
448.974	2351.125
452.88	2289.125
456.783	2298.45833
460.683	2256.79167
464.58	2268.45833
468.473	2264.45833
472.364	2300.45833
476.251	2279.79167
480.135	2298.79167
484.016	2333.45833
487.894	2334.125
491.769	2344.79167
495.641	2358.125
499.509	2342.45833
503.375	2328.45833
507.237	2325.125
511.096	2337.79167
514.952	2400.125
518.805	2506.125
522.655	2526.125
526.502	2410.79167
530.346	2344.125
534.187	2342.45833
538.024	2354.45833
541.859	2364.125
545.69	2409.125
549.519	2391.79167
553.344	2336.79167
557.166	2333.45833
560.985	2290.79167
564.802	2253.125
568.615	2201.79167
572.425	2159.45833
576.232	2167.125
580.036	2170.45833
583.836	2159.79167
587.634	2201.125
591.429	2182.125
595.221	2249.45833
599.01	2266.125
602.796	2276.125
606.578	2286.79167
610.358	2289.125
614.135	2255.125
617.909	2256.79167
621.679	2246.79167
625.447	2220.125
629.212	2213.125
632.973	2214.79167
636.732	2217.45833
640.488	2213.125
644.241	2204.79167
647.991	2195.125
651.737	2196.45833
655.481	2169.79167
659.222	2177.45833
662.96	2161.125
666.695	2199.125
670.427	2198.79167
674.156	2229.79167
677.882	2214.79167
681.605	2212.79167
685.325	2162.45833
689.043	2179.45833
692.757	2155.125
696.468	2162.45833
700.177	2164.79167
703.882	2149.79167
707.585	2131.79167
711.284	2126.79167
714.981	2132.45833
718.675	2140.45833
722.366	2144.45833
726.054	2125.45833
729.739	2141.125
733.421	2154.79167
737.1	2129.79167
740.777	2166.125
744.45	2190.125
748.121	2195.45833
751.789	2257.79167
755.453	2224.45833
759.115	2248.79167
762.774	2247.45833
766.431	2275.79167
770.084	2284.79167
773.734	2303.125
777.382	2363.79167
781.027	2355.45833
784.669	2374.45833
788.308	2392.125
791.944	2413.125
795.577	2402.45833
799.208	2442.45833
802.835	2446.79167
806.46	2460.79167
810.082	2473.79167
813.701	2468.79167
817.317	2487.79167
820.931	2522.79167
824.542	2516.125
828.149	2476.125
831.754	2458.79167
835.357	2437.79167
838.956	2446.79167
842.553	2459.125
846.146	2429.45833
849.737	2419.125
853.326	2440.125
856.911	2431.125
860.493	2463.79167
864.073	2491.45833
867.65	2522.45833
871.225	2532.79167
874.796	2545.125
878.365	2519.125
881.931	2545.45833
885.494	2591.125
889.054	2575.125
892.612	2583.45833
896.166	2545.125
899.719	2512.45833
903.268	2484.79167
906.814	2479.125
910.358	2462.79167
913.899	2420.45833
917.438	2437.125
920.973	2423.45833
924.506	2477.125
928.036	2505.45833
931.564	2561.79167
935.088	2590.79167
938.61	2599.125
942.129	2622.79167
945.646	2704.79167
949.16	2774.79167
952.671	2771.125
956.179	2806.79167
959.685	2747.125
963.188	2756.125
966.688	2696.125
970.185	2629.79167
973.68	2567.125
977.173	2534.125
980.662	2483.125
984.149	2494.79167
987.633	2487.125
991.114	2511.45833
994.593	2587.45833
998.069	2647.45833
1001.542	2719.45833
1005.013	2674.79167
1008.481	2537.45833
1011.947	2492.125
1015.409	2473.79167
1018.869	2459.125
1022.327	2488.125
1025.782	2454.125
1029.234	2428.125
1032.683	2387.45833
1036.13	2348.79167
1039.574	2240.79167
1043.016	2173.125
1046.455	2152.79167
1049.891	2131.45833
1053.325	2155.125
1056.756	2147.125
1060.184	2163.79167
1063.61	2161.79167
1067.033	2182.125
1070.454	2205.125
1073.872	2218.125
1077.287	2203.45833
1080.7	2181.79167
1084.11	2192.79167
1087.517	2166.45833
1090.922	2134.125
1094.325	2119.45833
1097.724	2094.125
1101.122	2128.45833
1104.516	2106.125
1107.908	2112.45833
1111.298	2155.45833
1114.684	2152.45833
1118.069	2200.125
1121.45	2236.45833
1124.83	2208.79167
1128.206	2232.45833
1131.58	2282.79167
1134.951	2331.45833
1138.32	2397.79167
1141.687	2506.45833
1145.05	2545.79167
1148.412	2549.125
1151.77	2534.79167
1155.126	2518.79167
1158.48	2519.125
1161.831	2536.79167
1165.18	2568.125
1168.525	2566.45833
1171.869	2626.125
1175.21	2640.125
1178.548	2660.125
1181.884	2698.45833
1185.217	2702.125
1188.548	2749.125
1191.877	2815.79167
1195.202	2880.125
1198.526	2968.79167
1201.846	2975.125
1205.165	2983.79167
1208.48	2973.45833
1211.794	2936.79167
1215.104	2952.79167
1218.413	2949.79167
1221.719	2968.45833
1225.022	2925.45833
1228.323	2858.79167
1231.621	2848.45833
1234.917	2802.125
1238.21	2844.45833
1241.501	2795.45833
1244.79	2800.125
1248.076	2797.125
1251.359	2824.79167
1254.64	2871.125
1257.919	2895.45833
1261.195	2965.125
1264.468	3023.45833
1267.74	3044.45833
1271.008	3062.125
1274.275	3045.79167
1277.538	3017.125
1280.8	3023.125
1284.059	2984.125
1287.315	3043.45833
1290.569	3064.79167
1293.821	3093.45833
1297.07	3106.45833
1300.317	3099.125
1303.562	3117.79167
1306.803	3076.45833
1310.043	3051.45833
1313.28	3027.45833
1316.515	3010.45833
1319.747	3004.79167
1322.977	2968.125
1326.204	2924.125
1329.429	2872.79167
1332.652	2855.45833
1335.872	2817.125
1339.09	2783.125
1342.306	2766.79167
1345.519	2755.79167
1348.729	2762.125
1351.938	2744.125
1355.144	2706.79167
1358.347	2687.79167
1361.548	2663.45833
1364.747	2649.45833
1367.944	2601.79167
1371.138	2634.79167
1374.329	2652.125
1377.518	2669.79167
1380.705	2670.45833
1383.89	2650.45833
1387.072	2562.125
1390.252	2460.125
1393.429	2394.45833
1396.605	2329.45833
1399.777	2264.45833
1402.948	2255.125
1406.116	2213.45833
1409.282	2216.125
1412.445	2216.125
1415.606	2222.45833
1418.765	2272.79167
1421.921	2317.125
1425.075	2395.45833
1428.227	2461.45833
1431.376	2563.79167
1434.524	2658.45833
1437.668	2715.79167
1440.811	2733.45833
1443.951	2780.125
1447.089	2779.79167
1450.224	2778.45833
1453.357	2779.125
1456.488	2748.45833
1459.617	2693.45833
1462.743	2657.45833
1465.867	2581.45833
1468.989	2538.45833
1472.108	2494.79167
1475.225	2450.125
1478.34	2436.45833
1481.453	2405.45833
1484.563	2423.45833
1487.671	2469.79167
1490.776	2485.125
1493.88	2544.79167
1496.981	2570.45833
1500.08	2628.79167
1503.176	2661.79167
1506.271	2672.79167
1509.363	2698.79167
1512.452	2730.125
1515.54	2747.45833
1518.625	2805.125
1521.708	2856.125
1524.789	2948.79167
1527.867	3043.79167
1530.944	3205.79167
1534.018	3319.125
1537.089	3490.125
1540.159	3538.79167
1543.226	3525.125
1546.291	3463.45833
1549.354	3378.79167
1552.415	3316.125
1555.473	3242.45833
1558.529	3177.79167
1561.583	3161.79167
1564.634	3114.45833
1567.684	3139.45833
1570.731	3156.45833
1573.776	3175.79167
1576.819	3233.125
1579.859	3271.45833
1582.898	3295.79167
1585.934	3345.45833
1588.968	3320.125
1591.999	3325.125
1595.029	3344.125
1598.056	3368.45833
1601.081	3390.45833
1604.104	3364.125
1607.125	3312.79167
1610.144	3239.79167
1613.16	3176.79167
1616.174	3090.79167
1619.186	3028.79167
1622.196	2939.125
1625.203	2835.79167
1628.209	2816.45833
1631.212	2778.79167
1634.213	2752.79167
1637.212	2731.125
1640.209	2677.125
1643.203	2642.79167
1646.196	2565.79167
1649.186	2457.45833
1652.174	2418.79167
1655.16	2309.79167
1658.144	2265.125
1661.125	2154.79167
1664.105	2065.125
1667.082	1959.79167
1670.057	1848.79167
1673.03	1751.45833
1676.001	1648.125
1678.97	1534.45833
1681.937	1437.125
1684.901	1372.79167
1687.863	1315.45833
1690.824	1255.125
1693.782	1256.45833
1696.738	1179.125
1699.692	1153.45833
1702.643	1129.125
1705.593	1115.125
1708.54	1095.79167
1711.486	1116.125
1714.429	1072.79167
1717.37	1065.125
1720.309	1038.79167
1723.246	1035.79167
1726.181	1014.125
1729.113	1026.45833
1732.044	1013.125
1734.972	1004.125
1737.899	1001.45833
1740.823	1006.79167
1743.745	971.125
1746.665	967.125
1749.583	945.45833
1752.499	933.45833
1755.413	927.125
1758.325	918.125
1761.235	899.125
1764.142	882.79167
1767.048	867.125
1769.951	873.45833
1772.852	875.125
1775.752	865.125
1778.649	863.45833
1781.544	870.45833
1784.437	836.79167
1787.328	856.79167
1790.217	840.79167
1793.104	815.45833
1795.989	819.125
1798.872	805.45833
1801.753	830.79167
1804.631	820.45833
1807.508	822.125
1810.383	819.79167
1813.255	808.79167
1816.126	806.45833
1818.994	806.45833
1821.861	799.45833
1824.725	796.79167
1827.587	795.125
1830.448	795.79167
1833.306	771.79167
1836.162	780.79167
1839.017	779.79167
1841.869	763.45833
1844.719	773.125
1847.567	763.125
1850.414	752.125
1853.258	752.45833
1856.1	778.125
1858.94	768.45833
1861.778	766.79167
1864.614	751.45833
1867.448	749.125
1870.28	735.125
1873.111	767.125
1875.939	746.79167
1878.765	765.125
1881.589	744.45833
1884.411	738.125
1887.231	754.125
1890.049	751.79167
1892.865	740.79167
1895.68	730.45833
1898.492	739.45833
1901.302	744.125
1904.11	732.45833
1906.916	727.45833
1909.721	712.125
1912.523	719.45833
1915.323	708.45833
1918.122	715.125
1920.918	725.45833
1923.712	702.125
1926.505	701.125
1929.295	694.79167
1932.084	712.79167
1934.87	704.125
1937.655	697.125
1940.438	694.79167
1943.218	698.79167
1945.997	705.79167
1948.774	711.79167
1951.549	716.45833
1954.322	697.45833
1957.093	695.125
1959.862	690.45833
1962.629	685.125
1965.394	694.79167
1968.157	680.79167
1970.918	681.45833
1973.678	667.79167
1976.435	681.45833
1979.19	671.45833
1981.944	669.125
1984.696	671.45833
1987.445	648.125
1990.193	660.79167
1992.939	679.125
1995.683	660.45833
1998.425	641.45833
2001.165	687.125
2003.903	652.125
2006.639	653.45833
2009.374	658.125
2012.106	672.79167
2014.837	643.125
2017.566	656.125
2020.292	659.45833
2023.017	656.79167
2025.74	654.45833
2028.461	642.125
2031.18	649.79167
2033.898	636.45833
2036.613	638.45833
2039.327	642.125
2042.038	641.79167
2044.748	634.79167
2047.456	639.125
2050.162	632.45833
2052.866	627.45833
2055.568	637.125
2058.268	629.125
2060.967	625.45833
2063.663	609.125
2066.358	614.45833
2069.051	619.79167
2071.742	627.79167
2074.431	635.45833
2077.118	623.45833
2079.804	621.45833
2082.487	629.125
2085.169	625.79167
2087.849	646.45833
2090.527	617.45833
2093.203	625.45833
2095.877	639.45833
2098.55	633.125
2101.22	644.45833
2103.889	651.79167
2106.556	650.45833
2109.221	670.79167
2111.884	665.125
2114.546	733.79167
2117.205	762.45833
2119.863	816.79167
2122.519	843.125
2125.173	888.79167
2127.825	941.125
2130.475	933.45833
2133.124	903.79167
2135.771	874.79167
2138.416	844.45833
2141.059	789.45833
2143.7	760.79167
2146.339	727.79167
2148.977	683.125
2151.613	684.79167
2154.247	659.79167
2156.879	651.79167
2159.51	637.45833
2162.138	622.79167
2164.765	615.45833
2167.39	608.125
2170.013	634.125
2172.634	619.125
2175.254	607.125
2177.872	632.79167
2180.488	585.79167
2183.102	601.79167
2185.714	587.45833
2188.325	572.125
2190.934	584.79167
2193.541	589.125
2196.146	585.45833
2198.75	562.79167
2201.351	567.45833
2203.951	552.45833
2206.549	576.79167
2209.146	566.125
2211.74	561.45833
2214.333	565.125
2216.924	548.125
2219.514	561.125
2222.101	551.79167
2224.687	556.79167
2227.271	551.45833
2229.853	541.45833
2232.433	532.79167
2235.012	555.45833
2237.589	554.79167
2240.164	553.45833
2242.738	546.125
2245.309	526.79167
2247.879	551.79167
2250.448	537.125
2253.014	531.79167
2255.579	517.125
2258.142	520.79167
2260.703	524.45833
2263.262	529.79167
2265.82	514.125
2268.376	526.45833
2270.93	511.45833
2273.483	515.45833
2276.033	523.125
2278.583	503.79167
2281.13	504.45833
2283.675	492.45833
2286.219	510.45833
2288.761	515.45833
2291.302	517.79167
2293.841	514.125
2296.377	494.45833
2298.913	498.45833
2301.446	511.79167
2303.978	508.79167
2306.508	500.79167
2309.037	501.125
2311.563	498.45833
2314.088	505.125
2316.612	478.79167
2319.133	496.125
2321.653	503.45833
2324.171	486.79167
2326.688	502.79167
2329.202	490.45833
2331.715	492.125
2334.227	484.79167
2336.736	491.45833
2339.244	497.45833
2341.751	479.45833
2344.255	499.79167
2346.758	490.45833
2349.259	479.125
2351.759	484.125
2354.257	484.125
2356.753	481.79167
2359.247	487.79167
2361.74	494.125
2364.231	491.125
2366.721	484.45833
2369.209	476.125
2371.695	488.45833
2374.179	473.79167
2376.662	475.79167
2379.143	498.79167
2381.622	478.79167
2384.1	489.45833
2386.576	476.125
2389.051	494.79167
2391.524	503.125
2393.995	490.45833
2396.464	477.79167
2398.932	474.79167
2401.398	474.45833
2403.863	483.125
2406.325	478.79167
2408.787	480.125
2411.246	479.45833
2413.704	477.125
2416.16	469.79167
2418.615	478.45833
2421.068	497.79167
2423.519	488.79167
2425.969	465.125
2428.417	472.79167
2430.863	505.125
2433.308	494.45833
2435.751	497.79167
2438.193	481.125
2440.633	488.125
2443.071	483.45833
2445.508	481.125
2447.943	474.125
2450.376	474.79167
2452.808	478.125
2455.238	475.45833
2457.667	515.125
2460.093	481.125
2462.519	469.45833
2464.942	476.79167
2467.365	491.79167
2469.785	490.45833
2472.204	477.45833
2474.621	474.45833
2477.037	489.79167
2479.451	468.79167
2481.863	465.45833
2484.274	476.125
2486.683	479.79167
2489.091	483.45833
2491.497	477.45833
2493.901	478.79167
2496.304	478.45833
2498.705	483.45833
2501.105	478.45833
2503.503	501.125
2505.899	478.125
2508.294	495.125
2510.687	475.79167
2513.079	484.125
2515.469	480.45833
2517.858	479.45833
2520.245	494.125
2522.63	465.45833
2525.014	474.125
2527.396	476.125
2529.776	469.79167
2532.156	501.79167
2534.533	473.125
2536.909	471.45833
2539.283	465.125
2541.656	482.45833
2544.027	493.45833
2546.397	477.125
2548.765	478.79167
2551.131	484.79167
2553.496	478.125
2555.86	481.125
2558.221	479.125
2560.582	480.79167
2562.94	474.45833
2565.298	480.79167
2567.653	503.125
2570.007	473.45833
2572.36	493.79167
2574.711	475.125
2577.06	504.45833
2579.408	496.45833
2581.754	490.125
2584.099	496.45833
2586.442	487.79167
2588.784	494.79167
2591.124	496.45833
2593.463	497.125
2595.8	501.79167
2598.135	480.45833
2600.469	488.79167
2602.802	509.125
2605.133	515.125
2607.462	491.125
2609.79	478.125
2612.116	501.45833
2614.441	495.125
2616.764	504.125
2619.086	492.45833
2621.406	481.125
2623.725	524.125
2626.042	514.45833
2628.358	493.79167
2630.672	500.45833
2632.985	518.45833
2635.296	504.125
2637.606	517.45833
2639.914	497.125
2642.22	511.125
2644.525	511.45833
2646.829	502.79167
2649.131	527.79167
2651.432	529.125
2653.731	513.79167
2656.028	534.45833
2658.324	534.125
2660.619	512.79167
2662.912	538.125
2665.204	518.45833
2667.494	528.125
2669.782	521.45833
2672.07	534.125
2674.355	537.125
2676.639	531.125
2678.922	519.45833
2681.203	526.125
2683.483	526.45833
2685.761	525.125
2688.038	537.125
2690.313	547.45833
2692.587	534.45833
2694.859	526.45833
2697.13	545.45833
2699.399	547.45833
2701.667	549.79167
2703.933	542.45833
2706.198	553.125
2708.461	565.125
2710.723	563.45833
2712.984	560.79167
2715.243	565.125
2717.5	550.45833
2719.757	571.45833
2722.011	565.45833
2724.264	576.79167
2726.516	587.125
2728.766	568.125
2731.015	581.45833
2733.262	575.45833
2735.508	583.45833
2737.753	581.125
2739.996	563.79167
2742.237	559.45833
2744.477	577.79167
2746.716	583.125
2748.953	575.79167
2751.189	583.45833
2753.423	562.45833
2755.656	552.45833
2757.887	566.79167
2760.117	556.125
2762.346	554.45833
2764.573	547.125
2766.798	562.79167
2769.022	562.79167
2771.245	572.125
2773.467	576.125
2775.686	575.45833
2777.905	570.125
2780.122	576.79167
2782.337	593.45833
2784.552	584.125
2786.764	586.45833
2788.976	587.125
2791.186	591.79167
2793.394	604.45833
2795.601	616.79167
2797.807	619.45833
2800.011	621.79167
2802.214	632.45833
2804.415	626.125
2806.615	628.125
2808.814	632.125
2811.011	638.45833
2813.206	629.45833
2815.401	652.125
2817.594	646.79167
2819.785	669.79167
2821.975	655.45833
2824.164	653.45833
2826.351	688.45833
2828.537	676.125
2830.722	702.79167
2832.905	695.125
2835.086	724.45833
2837.267	751.125
2839.445	756.79167
2841.623	766.45833
2843.799	793.79167
2845.974	819.79167
2848.147	847.125
2850.319	853.125
2852.489	894.125
2854.659	905.45833
2856.826	913.45833
2858.993	943.79167
2861.158	926.79167
2863.321	911.125
2865.483	941.79167
2867.644	932.125
2869.804	914.45833
2871.962	929.45833
2874.118	917.79167
2876.274	935.79167
2878.428	935.79167
2880.58	925.79167
2882.731	900.45833
2884.881	904.125
2887.03	918.45833
2889.177	899.79167
2891.322	937.79167
2893.467	928.45833
2895.61	928.125
2897.751	960.79167
2899.892	941.125
2902.03	943.45833
2904.168	951.79167
2906.304	954.125
2908.439	980.79167
2910.572	959.45833
2912.704	983.45833
2914.835	974.79167
2916.965	961.125
2919.093	963.79167
2921.219	957.79167
2923.345	978.125
2925.469	960.125
2927.591	956.45833
2929.712	918.79167
2931.832	927.125
2933.951	903.79167
2936.068	887.79167
2938.184	879.125
2940.299	862.45833
2942.412	858.125
2944.524	817.45833
2946.634	817.79167
2948.744	764.45833
2950.851	803.45833
2952.958	769.79167
2955.063	768.79167
2957.167	751.45833
2959.269	737.45833
2961.371	755.79167
2963.471	721.79167
2965.569	729.45833
2967.666	705.45833
2969.762	693.79167
2971.857	682.125
2973.95	682.45833
2976.042	680.45833
2978.133	668.125
2980.222	650.125
2982.31	632.125
2984.396	624.45833
2986.482	617.125
2988.566	601.45833
2990.648	619.45833
2992.73	611.125
2994.81	601.125
2996.889	611.125
2998.966	595.125
3001.042	608.79167
3003.117	610.125
3005.191	615.79167
3007.263	603.79167
3009.334	588.45833
3011.403	590.45833
3013.472	577.79167
3015.539	591.125
3017.604	592.45833
3019.669	554.79167
3021.732	559.45833
3023.794	557.79167
3025.854	556.79167
3027.914	556.45833
3029.971	558.79167
3032.028	552.79167
3034.083	552.45833
3036.137	550.125
3038.19	534.79167
3040.242	518.45833
3042.292	511.45833
3044.341	510.125
3046.388	519.79167
3048.435	492.125
3050.48	515.79167
3052.524	503.45833
3054.566	493.79167
3056.607	507.125
3058.647	479.79167
3060.686	467.45833
3062.723	452.125
3064.759	434.45833
3066.794	-0.875
3068.828	3.45833
3070.86	2.45833
