-0.839	563.91667
3.438	671.58333
7.711	193.25
11.981	66.58333
16.247	48.91667
20.509	52.58333
24.768	46.58333
29.024	56.25
33.276	48.91667
37.524	54.91667
41.769	48.91667
46.01	36.25
50.247	47.58333
54.481	57.91667
58.712	59.91667
62.939	51.91667
67.162	69.58333
71.382	55.25
75.599	47.25
79.812	65.25
84.021	81.58333
88.227	60.25
92.429	62.58333
96.628	57.25
100.823	73.91667
105.015	80.91667
109.204	75.58333
113.388	82.25
117.57	83.25
121.748	89.25
125.922	85.58333
130.093	105.25
134.261	108.25
138.425	107.58333
142.585	152.58333
146.742	146.25
150.896	178.58333
155.046	233.91667
159.193	367.58333
163.336	635.58333
167.476	1178.91667
171.613	2133.58333
175.746	3553.91667
179.875	5191.25
184.002	6742.25
188.124	7759.91667
192.244	8039.58333
196.36	7945.91667
200.472	7657.91667
204.581	7345.25
208.687	7128.25
212.79	7015.25
216.889	6926.25
220.984	6935.58333
225.077	6880.91667
229.165	6866.58333
233.251	6825.25
237.333	6773.91667
241.412	6705.25
245.487	6625.25
249.559	6558.25
253.628	6489.25
257.694	6422.58333
261.756	6390.58333
265.814	6277.58333
269.87	6030.58333
273.922	5844.91667
277.97	5718.58333
282.016	5609.91667
286.058	5571.91667
290.097	5636.58333
294.132	5710.58333
298.164	5690.91667
302.193	5475.91667
306.219	5127.91667
310.241	4756.25
314.26	4391.91667
318.276	4116.58333
322.288	3953.25
326.297	3816.25
330.303	3698.91667
334.305	3631.25
338.305	3581.25
342.301	3548.91667
346.294	3526.91667
350.283	3491.91667
354.269	3476.58333
358.252	3425.25
362.232	3419.25
366.209	3400.25
370.182	3391.58333
374.152	3341.58333
378.119	3370.91667
382.083	3354.58333
386.043	3397.25
390	3381.91667
393.954	3419.91667
397.905	3438.58333
401.852	3430.91667
405.797	3370.58333
409.738	3509.25
413.676	3627.58333
417.61	3707.25
421.542	3442.91667
425.47	3307.58333
429.396	3268.91667
433.318	3233.58333
437.236	3202.25
441.152	3257.25
445.065	3174.58333
448.974	3189.25
452.88	3147.58333
456.783	3127.25
460.683	3120.58333
464.58	3122.25
468.473	3130.25
472.364	3168.91667
476.251	3138.91667
480.135	3160.91667
484.016	3217.91667
487.894	3233.25
491.769	3244.25
495.641	3244.58333
499.509	3262.25
503.375	3228.58333
507.237	3230.25
511.096	3202.25
514.952	3210.25
518.805	3193.25
522.655	3202.58333
526.502	3191.91667
530.346	3204.91667
534.187	3224.58333
538.024	3230.91667
541.859	3261.25
545.69	3263.58333
549.519	3266.91667
553.344	3243.91667
557.166	3176.91667
560.985	3168.58333
564.802	3153.91667
568.615	3097.91667
572.425	3039.25
576.232	3027.25
580.036	3031.25
583.836	3031.25
587.634	3024.25
591.429	3037.58333
595.221	3101.25
599.01	3121.25
602.796	3168.58333
606.578	3166.58333
610.358	3161.25
614.135	3174.58333
617.909	3158.25
621.679	3135.25
625.447	3109.25
629.212	3106.58333
632.973	3112.91667
636.732	3152.25
640.488	3125.91667
644.241	3089.25
647.991	3041.25
651.737	3093.58333
655.481	3073.91667
659.222	3071.91667
662.96	3073.58333
666.695	3103.25
670.427	3102.91667
674.156	3102.58333
677.882	3105.25
681.605	3073.25
685.325	3040.25
689.043	3076.91667
692.757	3047.58333
696.468	3034.58333
700.177	3019.25
703.882	3003.91667
707.585	2974.25
711.284	2991.91667
714.981	2998.58333
718.675	2975.91667
722.366	2989.58333
726.054	2953.91667
729.739	2989.25
733.421	2991.58333
737.1	2958.58333
740.777	2986.25
744.45	3016.91667
748.121	3033.91667
751.789	3077.25
755.453	3061.58333
759.115	3083.58333
762.774	3094.25
766.431	3097.91667
770.084	3132.25
773.734	3126.91667
777.382	3196.91667
781.027	3193.91667
784.669	3222.91667
788.308	3229.25
791.944	3205.91667
795.577	3239.91667
799.208	3270.91667
802.835	3301.91667
806.46	3281.91667
810.082	3303.58333
813.701	3320.25
817.317	3358.91667
820.931	3354.58333
824.542	3309.91667
828.149	3302.25
831.754	3251.25
835.357	3267.25
838.956	3270.25
842.553	3316.91667
846.146	3338.91667
849.737	3247.58333
853.326	3199.58333
856.911	3202.25
860.493	3221.58333
864.073	3302.25
867.65	3446.58333
871.225	3455.25
874.796	3325.58333
878.365	3314.91667
881.931	3313.58333
885.494	3339.25
889.054	3321.25
892.612	3342.91667
896.166	3300.25
899.719	3238.58333
903.268	3260.91667
906.814	3218.25
910.358	3217.58333
913.899	3181.91667
917.438	3189.58333
920.973	3158.91667
924.506	3195.91667
928.036	3252.25
931.564	3270.25
935.088	3303.58333
938.61	3304.91667
942.129	3356.58333
945.646	3413.25
949.16	3467.58333
952.671	3520.58333
956.179	3532.91667
959.685	3525.58333
963.188	3539.25
966.688	3494.91667
970.185	3419.58333
973.68	3356.91667
977.173	3258.58333
980.662	3222.91667
984.149	3241.58333
987.633	3233.58333
991.114	3274.91667
994.593	3342.91667
998.069	3406.25
1001.542	3511.58333
1005.013	3480.25
1008.481	3260.25
1011.947	3210.91667
1015.409	3170.58333
1018.869	3181.91667
1022.327	3171.58333
1025.782	3143.58333
1029.234	3142.58333
1032.683	3110.58333
1036.13	3002.58333
1039.574	2901.91667
1043.016	2867.91667
1046.455	2798.25
1049.891	2775.91667
1053.325	2772.91667
1056.756	2792.58333
1060.184	2793.58333
1063.61	2811.25
1067.033	2840.58333
1070.454	2831.91667
1073.872	2893.25
1077.287	2841.25
1080.7	2854.25
1084.11	2849.58333
1087.517	2831.58333
1090.922	2793.25
1094.325	2757.25
1097.724	2731.91667
1101.122	2732.58333
1104.516	2705.58333
1107.908	2722.91667
1111.298	2745.25
1114.684	2780.58333
1118.069	2805.25
1121.45	2851.25
1124.83	2821.91667
1128.206	2849.58333
1131.58	2892.58333
1134.951	2967.91667
1138.32	3031.58333
1141.687	3127.91667
1145.05	3195.25
1148.412	3192.58333
1151.77	3187.58333
1155.126	3167.25
1158.48	3134.91667
1161.831	3161.91667
1165.18	3158.91667
1168.525	3219.58333
1171.869	3259.25
1175.21	3251.58333
1178.548	3300.25
1181.884	3308.25
1185.217	3357.25
1188.548	3424.58333
1191.877	3495.58333
1195.202	3602.91667
1198.526	3650.58333
1201.846	3684.58333
1205.165	3677.91667
1208.48	3686.91667
1211.794	3674.25
1215.104	3658.91667
1218.413	3653.25
1221.719	3630.91667
1225.022	3601.25
1228.323	3531.91667
1231.621	3513.91667
1234.917	3488.58333
1238.21	3486.91667
1241.501	3477.25
1244.79	3487.25
1248.076	3483.58333
1251.359	3496.91667
1254.64	3578.91667
1257.919	3610.91667
1261.195	3655.91667
1264.468	3726.91667
1267.74	3760.91667
1271.008	3782.58333
1274.275	3777.25
1277.538	3725.91667
1280.8	3723.91667
1284.059	3716.58333
1287.315	3773.58333
1290.569	3767.91667
1293.821	3767.25
1297.07	3793.91667
1300.317	3795.25
1303.562	3777.58333
1306.803	3752.25
1310.043	3710.91667
1313.28	3713.58333
1316.515	3690.25
1319.747	3662.58333
1322.977	3655.58333
1326.204	3580.25
1329.429	3582.58333
1332.652	3549.58333
1335.872	3532.91667
1339.09	3534.58333
1342.306	3509.25
1345.519	3466.58333
1348.729	3455.91667
1351.938	3445.25
1355.144	3404.25
1358.347	3359.25
1361.548	3346.58333
1364.747	3321.25
1367.944	3289.25
1371.138	3320.91667
1374.329	3308.91667
1377.518	3303.91667
1380.705	3351.91667
1383.89	3329.25
1387.072	3242.25
1390.252	3109.25
1393.429	3010.25
1396.605	2928.91667
1399.777	2855.25
1402.948	2810.91667
1406.116	2784.25
1409.282	2781.58333
1412.445	2777.58333
1415.606	2818.58333
1418.765	2861.25
1421.921	2901.58333
1425.075	2979.58333
1428.227	3039.91667
1431.376	3165.91667
1434.524	3276.25
1437.668	3363.25
1440.811	3399.58333
1443.951	3429.58333
1447.089	3414.91667
1450.224	3439.58333
1453.357	3408.91667
1456.488	3396.58333
1459.617	3326.25
1462.743	3264.25
1465.867	3230.25
1468.989	3202.25
1472.108	3143.58333
1475.225	3087.91667
1478.34	3043.58333
1481.453	3045.58333
1484.563	3062.25
1487.671	3068.91667
1490.776	3085.25
1493.88	3157.91667
1496.981	3189.91667
1500.08	3234.25
1503.176	3279.58333
1506.271	3333.25
1509.363	3348.91667
1512.452	3393.91667
1515.54	3432.91667
1518.625	3504.58333
1521.708	3568.58333
1524.789	3682.91667
1527.867	3816.58333
1530.944	4009.25
1534.018	4164.58333
1537.089	4307.58333
1540.159	4342.58333
1543.226	4321.25
1546.291	4252.25
1549.354	4127.58333
1552.415	4042.58333
1555.473	3935.91667
1558.529	3849.58333
1561.583	3801.25
1564.634	3816.91667
1567.684	3803.58333
1570.731	3839.25
1573.776	3869.91667
1576.819	3906.58333
1579.859	3955.25
1582.898	4002.58333
1585.934	4069.91667
1588.968	4056.91667
1591.999	4044.91667
1595.029	4049.58333
1598.056	4109.91667
1601.081	4082.91667
1604.104	4074.58333
1607.125	4049.91667
1610.144	3964.91667
1613.16	3891.58333
1616.174	3815.25
1619.186	3755.58333
1622.196	3645.91667
1625.203	3576.25
1628.209	3549.25
1631.212	3526.25
1634.213	3549.25
1637.212	3562.58333
1640.209	3511.25
1643.203	3446.25
1646.196	3351.58333
1649.186	3193.58333
1652.174	3072.25
1655.16	2955.91667
1658.144	2881.91667
1661.125	2759.58333
1664.105	2627.58333
1667.082	2516.58333
1670.057	2394.91667
1673.03	2242.91667
1676.001	2107.25
1678.97	1983.58333
1681.937	1877.25
1684.901	1774.91667
1687.863	1718.25
1690.824	1636.25
1693.782	1597.25
1696.738	1561.58333
1699.692	1525.58333
1702.643	1484.91667
1705.593	1450.91667
1708.54	1452.25
1711.486	1452.25
1714.429	1415.58333
1717.37	1402.25
1720.309	1383.58333
1723.246	1385.91667
1726.181	1363.25
1729.113	1360.58333
1732.044	1347.58333
1734.972	1337.91667
1737.899	1347.25
1740.823	1339.25
1743.745	1339.25
1746.665	1289.58333
1749.583	1275.58333
1752.499	1245.25
1755.413	1238.25
1758.325	1221.58333
1761.235	1204.58333
1764.142	1193.91667
1767.048	1173.58333
1769.951	1178.91667
1772.852	1202.25
1775.752	1246.91667
1778.649	1324.25
1781.544	1223.58333
1784.437	1151.25
1787.328	1156.58333
1790.217	1135.91667
1793.104	1104.58333
1795.989	1105.58333
1798.872	1113.25
1801.753	1107.91667
1804.631	1111.58333
1807.508	1104.91667
1810.383	1102.25
1813.255	1097.25
1816.126	1092.58333
1818.994	1096.58333
1821.861	1085.25
1824.725	1068.58333
1827.587	1076.91667
1830.448	1068.25
1833.306	1050.25
1836.162	1049.91667
1839.017	1042.25
1841.869	1038.91667
1844.719	1026.91667
1847.567	1013.25
1850.414	1013.91667
1853.258	1033.25
1856.1	1032.25
1858.94	1032.25
1861.778	1014.25
1864.614	1002.91667
1867.448	1027.25
1870.28	1004.25
1873.111	1034.58333
1875.939	1012.25
1878.765	1008.58333
1881.589	998.91667
1884.411	1002.25
1887.231	992.91667
1890.049	990.58333
1892.865	990.91667
1895.68	992.58333
1898.492	1019.25
1901.302	999.25
1904.11	965.91667
1906.916	968.25
1909.721	952.58333
1912.523	963.91667
1915.323	935.58333
1918.122	947.91667
1920.918	964.58333
1923.712	933.91667
1926.505	929.25
1929.295	926.25
1932.084	942.58333
1934.87	928.58333
1937.655	924.91667
1940.438	922.25
1943.218	928.25
1945.997	934.58333
1948.774	928.91667
1951.549	928.58333
1954.322	920.91667
1957.093	913.58333
1959.862	918.25
1962.629	899.91667
1965.394	900.25
1968.157	889.91667
1970.918	895.58333
1973.678	880.58333
1976.435	892.91667
1979.19	874.58333
1981.944	880.91667
1984.696	881.58333
1987.445	853.25
1990.193	878.25
1992.939	889.25
1995.683	873.58333
1998.425	844.25
2001.165	878.58333
2003.903	851.25
2006.639	845.91667
2009.374	872.58333
2012.106	855.25
2014.837	832.91667
2017.566	851.58333
2020.292	847.91667
2023.017	839.91667
2025.74	833.25
2028.461	826.25
2031.18	838.25
2033.898	819.58333
2036.613	822.58333
2039.327	833.58333
2042.038	818.91667
2044.748	812.91667
2047.456	824.25
2050.162	806.58333
2052.866	817.58333
2055.568	820.58333
2058.268	814.25
2060.967	791.91667
2063.663	796.58333
2066.358	785.25
2069.051	793.58333
2071.742	795.58333
2074.431	793.25
2077.118	790.25
2079.804	780.25
2082.487	797.25
2085.169	787.91667
2087.849	811.25
2090.527	785.25
2093.203	793.91667
2095.877	794.91667
2098.55	795.91667
2101.22	805.58333
2103.889	799.91667
2106.556	807.25
2109.221	818.91667
2111.884	825.58333
2114.546	874.25
2117.205	915.91667
2119.863	964.58333
2122.519	994.58333
2125.173	1066.91667
2127.825	1129.25
2130.475	1142.91667
2133.124	1113.91667
2135.771	1069.91667
2138.416	1048.58333
2141.059	972.58333
2143.7	933.58333
2146.339	891.25
2148.977	827.58333
2151.613	832.58333
2154.247	810.25
2156.879	795.58333
2159.51	771.25
2162.138	759.58333
2164.765	759.58333
2167.39	750.91667
2170.013	759.58333
2172.634	741.58333
2175.254	731.91667
2177.872	764.58333
2180.488	716.91667
2183.102	724.25
2185.714	697.91667
2188.325	694.25
2190.934	686.25
2193.541	706.25
2196.146	697.58333
2198.75	679.58333
2201.351	670.25
2203.951	666.25
2206.549	674.58333
2209.146	666.25
2211.74	665.91667
2214.333	665.58333
2216.924	648.91667
2219.514	647.25
2222.101	647.91667
2224.687	656.91667
2227.271	647.91667
2229.853	636.91667
2232.433	634.91667
2235.012	650.91667
2237.589	632.91667
2240.164	646.58333
2242.738	633.58333
2245.309	626.91667
2247.879	631.25
2250.448	628.25
2253.014	615.25
2255.579	599.25
2258.142	606.58333
2260.703	598.25
2263.262	589.58333
2265.82	595.58333
2268.376	595.25
2270.93	590.25
2273.483	579.91667
2276.033	581.58333
2278.583	578.91667
2281.13	583.25
2283.675	579.91667
2286.219	573.91667
2288.761	562.91667
2291.302	564.25
2293.841	581.91667
2296.377	547.91667
2298.913	556.25
2301.446	565.58333
2303.978	565.91667
2306.508	556.58333
2309.037	562.58333
2311.563	544.58333
2314.088	559.58333
2316.612	535.25
2319.133	543.58333
2321.653	543.25
2324.171	536.25
2326.688	550.91667
2329.202	534.58333
2331.715	537.58333
2334.227	538.25
2336.736	540.58333
2339.244	531.91667
2341.751	514.58333
2344.255	529.58333
2346.758	528.91667
2349.259	499.91667
2351.759	529.25
2354.257	513.91667
2356.753	509.91667
2359.247	520.58333
2361.74	516.25
2364.231	513.91667
2366.721	514.25
2369.209	507.25
2371.695	504.25
2374.179	498.25
2376.662	489.25
2379.143	510.91667
2381.622	498.25
2384.1	526.58333
2386.576	512.58333
2389.051	510.91667
2391.524	511.25
2393.995	509.25
2396.464	484.91667
2398.932	495.58333
2401.398	484.58333
2403.863	486.91667
2406.325	479.58333
2408.787	490.58333
2411.246	484.58333
2413.704	477.91667
2416.16	475.25
2418.615	474.58333
2421.068	480.58333
2423.519	491.58333
2425.969	472.58333
2428.417	475.91667
2430.863	500.25
2433.308	484.25
2435.751	471.91667
2438.193	471.91667
2440.633	468.58333
2443.071	469.25
2445.508	467.25
2447.943	462.91667
2450.376	457.91667
2452.808	458.25
2455.238	460.58333
2457.667	489.25
2460.093	445.25
2462.519	444.58333
2464.942	456.25
2467.365	456.25
2469.785	459.91667
2472.204	445.25
2474.621	435.25
2477.037	461.25
2479.451	430.58333
2481.863	428.25
2484.274	436.58333
2486.683	440.25
2489.091	449.58333
2491.497	432.91667
2493.901	445.58333
2496.304	431.58333
2498.705	439.58333
2501.105	428.58333
2503.503	452.91667
2505.899	420.58333
2508.294	443.25
2510.687	439.25
2513.079	434.91667
2515.469	427.25
2517.858	433.91667
2520.245	434.91667
2522.63	428.25
2525.014	413.91667
2527.396	413.25
2529.776	410.91667
2532.156	418.58333
2534.533	411.25
2536.909	404.58333
2539.283	396.58333
2541.656	407.91667
2544.027	426.91667
2546.397	408.25
2548.765	402.58333
2551.131	413.25
2553.496	401.58333
2555.86	406.91667
2558.221	415.58333
2560.582	400.25
2562.94	391.25
2565.298	407.25
2567.653	418.25
2570.007	390.91667
2572.36	410.91667
2574.711	387.91667
2577.06	409.25
2579.408	407.25
2581.754	394.91667
2584.099	395.58333
2586.442	397.58333
2588.784	404.58333
2591.124	393.91667
2593.463	394.58333
2595.8	406.58333
2598.135	381.25
2600.469	379.91667
2602.802	391.58333
2605.133	396.91667
2607.462	384.91667
2609.79	380.25
2612.116	393.25
2614.441	389.91667
2616.764	381.91667
2619.086	388.58333
2621.406	371.25
2623.725	393.25
2626.042	381.58333
2628.358	374.58333
2630.672	375.25
2632.985	395.58333
2635.296	384.58333
2637.606	385.91667
2639.914	365.91667
2642.22	368.25
2644.525	379.58333
2646.829	385.58333
2649.131	395.25
2651.432	388.25
2653.731	379.58333
2656.028	397.25
2658.324	391.91667
2660.619	381.58333
2662.912	386.58333
2665.204	363.25
2667.494	388.25
2669.782	369.91667
2672.07	388.58333
2674.355	389.91667
2676.639	381.25
2678.922	368.58333
2681.203	376.91667
2683.483	366.58333
2685.761	371.58333
2688.038	380.58333
2690.313	384.91667
2692.587	386.91667
2694.859	377.58333
2697.13	389.91667
2699.399	394.91667
2701.667	398.25
2703.933	388.91667
2706.198	391.25
2708.461	398.25
2710.723	402.25
2712.984	395.91667
2715.243	404.91667
2717.5	387.91667
2719.757	404.58333
2722.011	390.25
2724.264	407.58333
2726.516	426.91667
2728.766	403.58333
2731.015	407.25
2733.262	403.91667
2735.508	401.58333
2737.753	397.58333
2739.996	388.25
2742.237	380.25
2744.477	394.25
2746.716	395.58333
2748.953	379.91667
2751.189	388.25
2753.423	375.91667
2755.656	369.91667
2757.887	366.91667
2760.117	374.58333
2762.346	359.58333
2764.573	355.91667
2766.798	367.25
2769.022	366.58333
2771.245	377.25
2773.467	370.91667
2775.686	381.25
2777.905	383.25
2780.122	381.91667
2782.337	380.91667
2784.552	375.91667
2786.764	374.91667
2788.976	381.58333
2791.186	383.25
2793.394	396.25
2795.601	390.25
2797.807	404.91667
2800.011	406.58333
2802.214	406.91667
2804.415	405.25
2806.615	413.91667
2808.814	414.58333
2811.011	427.58333
2813.206	417.91667
2815.401	437.25
2817.594	433.91667
2819.785	449.91667
2821.975	451.58333
2824.164	451.58333
2826.351	471.58333
2828.537	485.91667
2830.722	494.91667
2832.905	499.91667
2835.086	521.58333
2837.267	551.91667
2839.445	568.91667
2841.623	589.25
2843.799	618.25
2845.974	645.58333
2848.147	666.91667
2850.319	697.91667
2852.489	730.25
2854.659	741.25
2856.826	747.91667
2858.993	793.91667
2861.158	764.25
2863.321	767.91667
2865.483	788.25
2867.644	802.25
2869.804	791.58333
2871.962	796.58333
2874.118	814.25
2876.274	863.58333
2878.428	844.91667
2880.58	800.91667
2882.731	801.58333
2884.881	798.25
2887.03	799.58333
2889.177	784.25
2891.322	800.25
2893.467	786.25
2895.61	788.91667
2897.751	808.91667
2899.892	793.91667
2902.03	793.25
2904.168	799.91667
2906.304	806.25
2908.439	827.58333
2910.572	808.91667
2912.704	819.91667
2914.835	831.91667
2916.965	838.58333
2919.093	848.58333
2921.219	812.91667
2923.345	822.25
2925.469	801.58333
2927.591	804.25
2929.712	778.91667
2931.832	772.25
2933.951	752.58333
2936.068	742.91667
2938.184	717.91667
2940.299	686.91667
2942.412	676.91667
2944.524	639.25
2946.634	636.58333
2948.744	593.58333
2950.851	607.25
2952.958	566.25
2955.063	563.25
2957.167	544.58333
2959.269	501.91667
2961.371	536.25
2963.471	498.58333
2965.569	499.58333
2967.666	465.25
2969.762	460.91667
2971.857	453.25
2973.95	433.58333
2976.042	429.25
2978.133	407.58333
2980.222	404.25
2982.31	383.25
2984.396	368.58333
2986.482	372.58333
2988.566	361.91667
2990.648	360.91667
2992.73	359.58333
2994.81	344.25
2996.889	348.58333
2998.966	350.25
3001.042	343.25
3003.117	338.58333
3005.191	338.58333
3007.263	329.91667
3009.334	317.25
3011.403	332.25
3013.472	313.58333
3015.539	317.91667
3017.604	322.58333
3019.669	285.58333
3021.732	292.58333
3023.794	291.58333
3025.854	285.25
3027.914	293.25
3029.971	293.25
3032.028	283.91667
3034.083	280.58333
3036.137	283.58333
3038.19	266.25
3040.242	263.58333
3042.292	258.58333
3044.341	261.25
3046.388	268.58333
3048.435	253.25
3050.48	265.25
3052.524	254.91667
3054.566	242.58333
3056.607	254.25
3058.647	246.58333
3060.686	231.58333
3062.723	223.25
3064.759	216.25
3066.794	-2.41667
3068.828	2.58333
3070.86	2.25
