-0.839	632.91667
3.438	731.58333
7.711	214.58333
11.981	66.58333
16.247	46.25
20.509	53.58333
24.768	46.58333
29.024	58.25
33.276	46.58333
37.524	54.58333
41.769	48.25
46.01	38.25
50.247	50.91667
54.481	59.91667
58.712	64.91667
62.939	51.58333
67.162	63.91667
71.382	60.58333
75.599	49.58333
79.812	65.25
84.021	79.25
88.227	60.58333
92.429	62.91667
96.628	55.25
100.823	73.91667
105.015	77.25
109.204	71.58333
113.388	79.91667
117.57	84.25
121.748	88.58333
125.922	86.91667
130.093	106.25
134.261	104.25
138.425	106.58333
142.585	149.91667
146.742	143.25
150.896	165.91667
155.046	219.58333
159.193	347.25
163.336	572.25
167.476	1063.25
171.613	1951.25
175.746	3263.25
179.875	4808.25
184.002	6271.91667
188.124	7255.58333
192.244	7596.58333
196.36	7543.91667
200.472	7341.58333
204.581	7096.58333
208.687	6939.58333
212.79	6836.91667
216.889	6810.58333
220.984	6848.58333
225.077	6864.91667
229.165	6865.58333
233.251	6887.25
237.333	6870.91667
241.412	6848.91667
245.487	6766.91667
249.559	6681.58333
253.628	6633.58333
257.694	6607.91667
261.756	6552.91667
265.814	6386.25
269.87	6186.91667
273.922	5965.58333
277.97	5836.58333
282.016	5727.25
286.058	5691.58333
290.097	5788.91667
294.132	5830.25
298.164	5841.25
302.193	5555.58333
306.219	5236.91667
310.241	4850.58333
314.26	4450.25
318.276	4170.25
322.288	4011.91667
326.297	3795.58333
330.303	3719.58333
334.305	3613.25
338.305	3573.58333
342.301	3528.25
346.294	3510.25
350.283	3516.25
354.269	3463.25
358.252	3427.91667
362.232	3432.58333
366.209	3414.91667
370.182	3404.58333
374.152	3350.25
378.119	3367.91667
382.083	3363.91667
386.043	3403.25
390	3401.91667
393.954	3434.91667
397.905	3435.25
401.852	3443.58333
405.797	3357.25
409.738	3458.25
413.676	3541.91667
417.61	3644.58333
421.542	3428.91667
425.47	3284.25
429.396	3260.91667
433.318	3226.25
437.236	3225.91667
441.152	3247.25
445.065	3187.58333
448.974	3172.91667
452.88	3169.58333
456.783	3144.25
460.683	3121.91667
464.58	3134.25
468.473	3125.91667
472.364	3154.91667
476.251	3141.91667
480.135	3190.58333
484.016	3216.25
487.894	3236.58333
491.769	3249.25
495.641	3246.58333
499.509	3246.58333
503.375	3240.91667
507.237	3233.58333
511.096	3202.25
514.952	3193.58333
518.805	3188.91667
522.655	3171.91667
526.502	3177.58333
530.346	3198.25
534.187	3203.25
538.024	3230.25
541.859	3249.25
545.69	3271.25
549.519	3258.91667
553.344	3234.58333
557.166	3197.58333
560.985	3158.91667
564.802	3096.91667
568.615	3070.91667
572.425	3042.25
576.232	3033.25
580.036	3010.25
583.836	3025.91667
587.634	3033.58333
591.429	3031.58333
595.221	3099.91667
599.01	3126.58333
602.796	3137.25
606.578	3174.25
610.358	3177.91667
614.135	3122.25
617.909	3136.58333
621.679	3112.58333
625.447	3088.25
629.212	3074.91667
632.973	3094.91667
636.732	3100.25
640.488	3119.58333
644.241	3045.91667
647.991	3025.58333
651.737	3060.91667
655.481	3017.91667
659.222	3053.58333
662.96	3026.91667
666.695	3031.25
670.427	3085.25
674.156	3087.91667
677.882	3075.91667
681.605	3064.91667
685.325	3028.25
689.043	3036.91667
692.757	3008.91667
696.468	2997.91667
700.177	3004.91667
703.882	2952.25
707.585	2965.25
711.284	2931.25
714.981	2949.91667
718.675	2947.58333
722.366	2962.58333
726.054	2942.91667
729.739	2945.91667
733.421	2960.25
737.1	2922.91667
740.777	2956.91667
744.45	2972.25
748.121	2978.91667
751.789	3046.91667
755.453	3015.91667
759.115	3043.58333
762.774	3068.58333
766.431	3077.25
770.084	3098.91667
773.734	3109.58333
777.382	3137.25
781.027	3170.58333
784.669	3179.25
788.308	3196.58333
791.944	3213.25
795.577	3228.25
799.208	3237.91667
802.835	3256.25
806.46	3278.91667
810.082	3295.91667
813.701	3340.58333
817.317	3332.91667
820.931	3333.25
824.542	3321.25
828.149	3276.58333
831.754	3256.58333
835.357	3240.91667
838.956	3250.58333
842.553	3278.25
846.146	3290.58333
849.737	3192.91667
853.326	3175.58333
856.911	3162.91667
860.493	3219.25
864.073	3259.58333
867.65	3404.58333
871.225	3391.58333
874.796	3292.58333
878.365	3281.58333
881.931	3303.25
885.494	3313.91667
889.054	3339.91667
892.612	3306.91667
896.166	3267.58333
899.719	3275.58333
903.268	3220.25
906.814	3211.58333
910.358	3173.25
913.899	3160.91667
917.438	3180.25
920.973	3140.58333
924.506	3192.58333
928.036	3254.91667
931.564	3278.58333
935.088	3306.58333
938.61	3333.91667
942.129	3347.25
945.646	3423.58333
949.16	3477.58333
952.671	3518.58333
956.179	3557.91667
959.685	3533.25
963.188	3518.58333
966.688	3504.91667
970.185	3410.58333
973.68	3304.91667
977.173	3263.25
980.662	3237.91667
984.149	3245.91667
987.633	3220.91667
991.114	3236.91667
994.593	3304.25
998.069	3383.58333
1001.542	3483.25
1005.013	3442.25
1008.481	3250.25
1011.947	3184.91667
1015.409	3159.58333
1018.869	3146.58333
1022.327	3158.58333
1025.782	3126.91667
1029.234	3138.58333
1032.683	3098.91667
1036.13	3020.58333
1039.574	2911.25
1043.016	2824.25
1046.455	2778.25
1049.891	2763.91667
1053.325	2771.58333
1056.756	2734.58333
1060.184	2775.91667
1063.61	2768.91667
1067.033	2788.91667
1070.454	2788.58333
1073.872	2816.25
1077.287	2819.58333
1080.7	2805.58333
1084.11	2798.25
1087.517	2790.25
1090.922	2748.25
1094.325	2732.58333
1097.724	2694.25
1101.122	2716.58333
1104.516	2693.58333
1107.908	2677.25
1111.298	2715.25
1114.684	2749.91667
1118.069	2754.58333
1121.45	2832.58333
1124.83	2801.25
1128.206	2817.25
1131.58	2872.25
1134.951	2909.91667
1138.32	3027.91667
1141.687	3137.91667
1145.05	3175.25
1148.412	3201.58333
1151.77	3190.25
1155.126	3159.91667
1158.48	3126.58333
1161.831	3129.58333
1165.18	3154.25
1168.525	3191.91667
1171.869	3227.91667
1175.21	3270.25
1178.548	3285.58333
1181.884	3326.58333
1185.217	3340.91667
1188.548	3432.25
1191.877	3475.58333
1195.202	3590.25
1198.526	3656.91667
1201.846	3668.91667
1205.165	3665.58333
1208.48	3658.91667
1211.794	3645.25
1215.104	3667.25
1218.413	3658.91667
1221.719	3642.91667
1225.022	3605.25
1228.323	3533.91667
1231.621	3489.91667
1234.917	3501.58333
1238.21	3490.58333
1241.501	3474.91667
1244.79	3468.58333
1248.076	3470.25
1251.359	3479.91667
1254.64	3573.58333
1257.919	3579.58333
1261.195	3679.58333
1264.468	3705.58333
1267.74	3774.25
1271.008	3762.91667
1274.275	3754.91667
1277.538	3733.91667
1280.8	3709.25
1284.059	3712.91667
1287.315	3750.25
1290.569	3757.25
1293.821	3733.91667
1297.07	3773.25
1300.317	3779.58333
1303.562	3756.58333
1306.803	3739.25
1310.043	3714.25
1313.28	3683.91667
1316.515	3662.25
1319.747	3650.25
1322.977	3633.25
1326.204	3592.25
1329.429	3542.91667
1332.652	3534.58333
1335.872	3504.58333
1339.09	3517.25
1342.306	3474.25
1345.519	3422.25
1348.729	3406.91667
1351.938	3367.25
1355.144	3367.58333
1358.347	3313.91667
1361.548	3298.58333
1364.747	3270.58333
1367.944	3253.58333
1371.138	3267.58333
1374.329	3236.58333
1377.518	3274.25
1380.705	3310.25
1383.89	3281.91667
1387.072	3205.91667
1390.252	3090.58333
1393.429	2970.58333
1396.605	2878.91667
1399.777	2809.58333
1402.948	2770.58333
1406.116	2753.58333
1409.282	2738.58333
1412.445	2727.25
1415.606	2751.91667
1418.765	2811.58333
1421.921	2842.91667
1425.075	2891.58333
1428.227	2993.58333
1431.376	3116.25
1434.524	3232.25
1437.668	3295.58333
1440.811	3356.91667
1443.951	3361.25
1447.089	3382.58333
1450.224	3395.58333
1453.357	3404.58333
1456.488	3347.58333
1459.617	3299.91667
1462.743	3239.91667
1465.867	3170.25
1468.989	3116.25
1472.108	3090.25
1475.225	3028.58333
1478.34	3004.58333
1481.453	3003.91667
1484.563	2976.25
1487.671	3006.58333
1490.776	3067.25
1493.88	3109.91667
1496.981	3120.25
1500.08	3198.58333
1503.176	3230.58333
1506.271	3274.58333
1509.363	3308.25
1512.452	3354.25
1515.54	3390.25
1518.625	3453.58333
1521.708	3525.91667
1524.789	3613.91667
1527.867	3762.58333
1530.944	3949.25
1534.018	4095.91667
1537.089	4255.25
1540.159	4325.58333
1543.226	4267.25
1546.291	4197.91667
1549.354	4101.91667
1552.415	3990.25
1555.473	3886.58333
1558.529	3842.91667
1561.583	3792.58333
1564.634	3762.25
1567.684	3750.58333
1570.731	3762.91667
1573.776	3824.58333
1576.819	3862.58333
1579.859	3925.91667
1582.898	3942.58333
1585.934	4021.25
1588.968	3981.58333
1591.999	3997.58333
1595.029	4013.91667
1598.056	4025.91667
1601.081	4032.91667
1604.104	4054.91667
1607.125	4003.91667
1610.144	3901.58333
1613.16	3836.25
1616.174	3764.91667
1619.186	3693.58333
1622.196	3603.91667
1625.203	3493.91667
1628.209	3495.91667
1631.212	3456.25
1634.213	3474.25
1637.212	3501.25
1640.209	3451.91667
1643.203	3355.25
1646.196	3263.91667
1649.186	3112.25
1652.174	2992.25
1655.16	2885.91667
1658.144	2822.25
1661.125	2688.91667
1664.105	2577.25
1667.082	2451.91667
1670.057	2337.25
1673.03	2209.91667
1676.001	2059.58333
1678.97	1933.91667
1681.937	1799.91667
1684.901	1724.58333
1687.863	1664.58333
1690.824	1581.58333
1693.782	1565.58333
1696.738	1503.58333
1699.692	1472.91667
1702.643	1427.91667
1705.593	1414.25
1708.54	1406.91667
1711.486	1389.91667
1714.429	1357.91667
1717.37	1360.58333
1720.309	1318.58333
1723.246	1334.25
1726.181	1293.58333
1729.113	1310.91667
1732.044	1287.91667
1734.972	1281.58333
1737.899	1280.25
1740.823	1285.91667
1743.745	1270.91667
1746.665	1225.58333
1749.583	1206.58333
1752.499	1202.91667
1755.413	1189.25
1758.325	1147.58333
1761.235	1139.25
1764.142	1142.58333
1767.048	1128.58333
1769.951	1135.58333
1772.852	1125.58333
1775.752	1178.91667
1778.649	1223.91667
1781.544	1141.91667
1784.437	1092.58333
1787.328	1096.58333
1790.217	1071.91667
1793.104	1050.91667
1795.989	1053.58333
1798.872	1040.25
1801.753	1055.91667
1804.631	1050.58333
1807.508	1051.25
1810.383	1048.25
1813.255	1033.25
1816.126	1035.58333
1818.994	1051.25
1821.861	1021.25
1824.725	1025.58333
1827.587	1017.91667
1830.448	992.25
1833.306	988.91667
1836.162	990.91667
1839.017	990.58333
1841.869	979.91667
1844.719	973.91667
1847.567	968.91667
1850.414	950.91667
1853.258	959.58333
1856.1	975.25
1858.94	973.58333
1861.778	960.25
1864.614	960.25
1867.448	957.91667
1870.28	944.91667
1873.111	981.58333
1875.939	952.58333
1878.765	958.91667
1881.589	943.58333
1884.411	940.91667
1887.231	946.25
1890.049	952.58333
1892.865	940.91667
1895.68	932.91667
1898.492	956.91667
1901.302	940.91667
1904.11	931.25
1906.916	906.91667
1909.721	898.58333
1912.523	916.58333
1915.323	892.91667
1918.122	897.25
1920.918	899.25
1923.712	885.91667
1926.505	878.58333
1929.295	872.91667
1932.084	881.25
1934.87	883.25
1937.655	871.91667
1940.438	862.91667
1943.218	881.91667
1945.997	873.91667
1948.774	888.91667
1951.549	886.58333
1954.322	860.58333
1957.093	863.58333
1959.862	849.25
1962.629	852.91667
1965.394	845.58333
1968.157	847.25
1970.918	840.58333
1973.678	831.25
1976.435	841.58333
1979.19	821.25
1981.944	813.58333
1984.696	832.91667
1987.445	798.58333
1990.193	817.25
1992.939	834.91667
1995.683	809.58333
1998.425	793.25
2001.165	832.58333
2003.903	796.58333
2006.639	813.58333
2009.374	807.25
2012.106	819.25
2014.837	783.91667
2017.566	808.58333
2020.292	799.58333
2023.017	809.58333
2025.74	795.58333
2028.461	787.58333
2031.18	779.25
2033.898	780.91667
2036.613	787.25
2039.327	787.58333
2042.038	759.91667
2044.748	769.91667
2047.456	773.91667
2050.162	759.58333
2052.866	758.91667
2055.568	771.25
2058.268	741.91667
2060.967	763.91667
2063.663	748.25
2066.358	746.91667
2069.051	740.58333
2071.742	745.25
2074.431	754.91667
2077.118	745.25
2079.804	734.25
2082.487	743.91667
2085.169	755.91667
2087.849	761.91667
2090.527	729.58333
2093.203	742.58333
2095.877	760.91667
2098.55	752.58333
2101.22	753.91667
2103.889	758.91667
2106.556	748.91667
2109.221	787.25
2111.884	773.58333
2114.546	832.25
2117.205	861.25
2119.863	910.25
2122.519	969.91667
2125.173	1013.91667
2127.825	1075.58333
2130.475	1086.25
2133.124	1054.91667
2135.771	1031.91667
2138.416	980.91667
2141.059	928.91667
2143.7	880.25
2146.339	840.58333
2148.977	795.58333
2151.613	781.58333
2154.247	763.91667
2156.879	753.58333
2159.51	731.25
2162.138	720.25
2164.765	716.91667
2167.39	686.91667
2170.013	717.58333
2172.634	700.25
2175.254	702.91667
2177.872	715.58333
2180.488	673.91667
2183.102	680.25
2185.714	664.25
2188.325	645.91667
2190.934	653.58333
2193.541	656.25
2196.146	638.25
2198.75	638.25
2201.351	638.25
2203.951	630.58333
2206.549	645.91667
2209.146	625.25
2211.74	616.58333
2214.333	624.58333
2216.924	607.91667
2219.514	624.25
2222.101	599.25
2224.687	622.58333
2227.271	605.91667
2229.853	596.25
2232.433	581.25
2235.012	600.91667
2237.589	600.91667
2240.164	612.58333
2242.738	589.91667
2245.309	589.58333
2247.879	586.58333
2250.448	590.25
2253.014	566.58333
2255.579	558.58333
2258.142	566.25
2260.703	555.91667
2263.262	564.91667
2265.82	562.58333
2268.376	552.58333
2270.93	550.25
2273.483	537.58333
2276.033	549.58333
2278.583	539.91667
2281.13	534.25
2283.675	525.58333
2286.219	528.25
2288.761	528.91667
2291.302	537.25
2293.841	539.25
2296.377	511.25
2298.913	512.91667
2301.446	533.58333
2303.978	522.58333
2306.508	502.25
2309.037	519.25
2311.563	512.58333
2314.088	516.25
2316.612	495.58333
2319.133	520.25
2321.653	503.58333
2324.171	502.58333
2326.688	511.25
2329.202	497.25
2331.715	500.91667
2334.227	501.58333
2336.736	494.91667
2339.244	491.91667
2341.751	473.91667
2344.255	499.25
2346.758	490.25
2349.259	477.58333
2351.759	486.25
2354.257	480.58333
2356.753	468.25
2359.247	474.91667
2361.74	487.58333
2364.231	476.58333
2366.721	478.58333
2369.209	465.25
2371.695	471.25
2374.179	470.91667
2376.662	455.91667
2379.143	473.58333
2381.622	461.91667
2384.1	483.25
2386.576	472.25
2389.051	476.25
2391.524	479.91667
2393.995	463.58333
2396.464	454.25
2398.932	451.25
2401.398	445.58333
2403.863	446.25
2406.325	450.58333
2408.787	450.91667
2411.246	447.91667
2413.704	439.25
2416.16	436.25
2418.615	447.58333
2421.068	451.58333
2423.519	448.91667
2425.969	433.25
2428.417	443.25
2430.863	450.91667
2433.308	440.91667
2435.751	439.25
2438.193	436.25
2440.633	430.58333
2443.071	425.25
2445.508	425.25
2447.943	427.25
2450.376	417.58333
2452.808	419.91667
2455.238	422.25
2457.667	449.25
2460.093	413.91667
2462.519	412.58333
2464.942	411.91667
2467.365	420.25
2469.785	418.25
2472.204	417.91667
2474.621	398.91667
2477.037	425.91667
2479.451	393.25
2481.863	397.91667
2484.274	410.58333
2486.683	406.91667
2489.091	413.25
2491.497	408.91667
2493.901	414.91667
2496.304	398.58333
2498.705	401.91667
2501.105	388.91667
2503.503	427.25
2505.899	380.58333
2508.294	415.25
2510.687	397.25
2513.079	393.58333
2515.469	381.25
2517.858	389.25
2520.245	392.25
2522.63	385.91667
2525.014	374.58333
2527.396	379.91667
2529.776	371.91667
2532.156	392.25
2534.533	369.91667
2536.909	369.91667
2539.283	371.91667
2541.656	363.25
2544.027	391.25
2546.397	373.25
2548.765	370.91667
2551.131	370.58333
2553.496	373.25
2555.86	374.91667
2558.221	369.58333
2560.582	367.58333
2562.94	357.58333
2565.298	360.25
2567.653	384.58333
2570.007	354.91667
2572.36	383.58333
2574.711	351.58333
2577.06	373.25
2579.408	368.25
2581.754	356.25
2584.099	364.91667
2586.442	355.91667
2588.784	357.25
2591.124	352.91667
2593.463	360.91667
2595.8	366.58333
2598.135	348.91667
2600.469	349.25
2602.802	363.91667
2605.133	363.58333
2607.462	353.58333
2609.79	338.91667
2612.116	355.58333
2614.441	351.58333
2616.764	349.91667
2619.086	347.91667
2621.406	335.91667
2623.725	357.91667
2626.042	352.58333
2628.358	339.58333
2630.672	342.58333
2632.985	356.25
2635.296	349.25
2637.606	338.58333
2639.914	337.25
2642.22	338.91667
2644.525	342.91667
2646.829	348.91667
2649.131	353.91667
2651.432	357.91667
2653.731	340.58333
2656.028	353.58333
2658.324	367.58333
2660.619	344.58333
2662.912	354.91667
2665.204	338.25
2667.494	349.25
2669.782	337.25
2672.07	350.91667
2674.355	345.91667
2676.639	330.58333
2678.922	338.25
2681.203	344.91667
2683.483	327.91667
2685.761	340.25
2688.038	352.58333
2690.313	350.58333
2692.587	347.91667
2694.859	339.58333
2697.13	349.91667
2699.399	348.58333
2701.667	351.58333
2703.933	354.25
2706.198	355.58333
2708.461	360.58333
2710.723	369.91667
2712.984	361.58333
2715.243	362.58333
2717.5	350.91667
2719.757	373.91667
2722.011	350.25
2724.264	374.25
2726.516	378.58333
2728.766	365.25
2731.015	372.58333
2733.262	358.25
2735.508	358.91667
2737.753	364.58333
2739.996	351.25
2742.237	346.91667
2744.477	359.58333
2746.716	354.58333
2748.953	343.58333
2751.189	358.58333
2753.423	347.58333
2755.656	335.91667
2757.887	341.91667
2760.117	334.25
2762.346	328.58333
2764.573	326.58333
2766.798	334.58333
2769.022	323.58333
2771.245	334.58333
2773.467	336.58333
2775.686	344.25
2777.905	340.58333
2780.122	341.91667
2782.337	345.58333
2784.552	343.58333
2786.764	344.25
2788.976	348.58333
2791.186	356.25
2793.394	359.25
2795.601	359.25
2797.807	375.58333
2800.011	368.25
2802.214	371.58333
2804.415	370.58333
2806.615	377.58333
2808.814	370.58333
2811.011	381.25
2813.206	383.58333
2815.401	401.25
2817.594	399.91667
2819.785	411.91667
2821.975	404.25
2824.164	401.91667
2826.351	421.58333
2828.537	433.91667
2830.722	444.58333
2832.905	444.91667
2835.086	478.58333
2837.267	499.25
2839.445	513.25
2841.623	536.25
2843.799	552.25
2845.974	591.25
2848.147	612.58333
2850.319	637.91667
2852.489	665.25
2854.659	683.58333
2856.826	676.58333
2858.993	719.58333
2861.158	699.91667
2863.321	703.91667
2865.483	710.58333
2867.644	727.58333
2869.804	725.25
2871.962	715.25
2874.118	740.91667
2876.274	777.25
2878.428	774.25
2880.58	726.25
2882.731	723.25
2884.881	722.25
2887.03	712.25
2889.177	717.58333
2891.322	725.25
2893.467	715.25
2895.61	725.91667
2897.751	742.25
2899.892	740.91667
2902.03	739.25
2904.168	749.25
2906.304	740.58333
2908.439	761.91667
2910.572	756.91667
2912.704	758.91667
2914.835	762.91667
2916.965	759.91667
2919.093	771.25
2921.219	751.91667
2923.345	767.91667
2925.469	735.58333
2927.591	731.58333
2929.712	702.58333
2931.832	702.25
2933.951	695.25
2936.068	677.58333
2938.184	644.91667
2940.299	636.91667
2942.412	624.25
2944.524	589.91667
2946.634	581.91667
2948.744	523.25
2950.851	561.25
2952.958	513.25
2955.063	509.58333
2957.167	498.91667
2959.269	472.25
2961.371	494.91667
2963.471	453.58333
2965.569	453.58333
2967.666	428.58333
2969.762	416.58333
2971.857	404.58333
2973.95	387.25
2976.042	385.58333
2978.133	373.58333
2980.222	357.58333
2982.31	349.58333
2984.396	332.58333
2986.482	337.25
2988.566	329.25
2990.648	326.58333
2992.73	316.91667
2994.81	304.25
2996.889	321.58333
2998.966	309.25
3001.042	320.91667
3003.117	300.91667
3005.191	295.58333
3007.263	309.25
3009.334	285.58333
3011.403	289.58333
3013.472	282.91667
3015.539	287.58333
3017.604	289.91667
3019.669	255.91667
3021.732	261.58333
3023.794	264.58333
3025.854	259.91667
3027.914	256.58333
3029.971	262.91667
3032.028	254.91667
3034.083	255.25
3036.137	257.58333
3038.19	249.58333
3040.242	240.25
3042.292	234.58333
3044.341	234.91667
3046.388	250.91667
3048.435	227.25
3050.48	238.58333
3052.524	234.91667
3054.566	211.91667
3056.607	233.58333
3058.647	219.58333
3060.686	211.91667
3062.723	209.25
3064.759	193.58333
3066.794	0.91667
3068.828	0.91667
3070.86	3.58333
