-0.839	391.04167
3.438	460.70833
7.711	140.70833
11.981	61.70833
16.247	43.70833
20.509	45.70833
24.768	44.04167
29.024	51.375
33.276	42.375
37.524	47.04167
41.769	48.04167
46.01	32.375
50.247	48.04167
54.481	59.375
58.712	57.70833
62.939	47.70833
67.162	66.70833
71.382	56.04167
75.599	49.375
79.812	65.375
84.021	79.375
88.227	59.04167
92.429	58.375
96.628	52.375
100.823	68.375
105.015	75.04167
109.204	66.70833
113.388	74.375
117.57	75.04167
121.748	86.375
125.922	81.375
130.093	97.04167
134.261	91.375
138.425	95.375
142.585	140.04167
146.742	129.375
150.896	163.70833
155.046	195.70833
159.193	313.375
163.336	535.375
167.476	991.70833
171.613	1835.04167
175.746	3051.375
179.875	4542.375
184.002	5908.70833
188.124	6827.70833
192.244	7066.375
196.36	6986.375
200.472	6748.375
204.581	6453.04167
208.687	6263.375
212.79	6150.04167
216.889	6060.04167
220.984	6017.375
225.077	5997.04167
229.165	5957.70833
233.251	5930.375
237.333	5877.375
241.412	5725.375
245.487	5683.375
249.559	5577.70833
253.628	5536.04167
257.694	5489.04167
261.756	5411.04167
265.814	5260.70833
269.87	5104.04167
273.922	4940.70833
277.97	4862.04167
282.016	4797.70833
286.058	4840.04167
290.097	4909.375
294.132	4966.04167
298.164	4906.70833
302.193	4656.70833
306.219	4320.70833
310.241	3995.375
314.26	3675.70833
318.276	3418.70833
322.288	3252.375
326.297	3121.04167
330.303	3002.375
334.305	2901.70833
338.305	2866.70833
342.301	2830.375
346.294	2777.04167
350.283	2766.70833
354.269	2746.375
358.252	2709.70833
362.232	2695.375
366.209	2668.375
370.182	2637.375
374.152	2610.04167
378.119	2638.70833
382.083	2626.04167
386.043	2617.375
390	2597.70833
393.954	2598.04167
397.905	2582.04167
401.852	2563.70833
405.797	2541.04167
409.738	2519.375
413.676	2556.04167
417.61	2532.375
421.542	2514.70833
425.47	2477.04167
429.396	2472.375
433.318	2451.375
437.236	2421.04167
441.152	2470.04167
445.065	2382.04167
448.974	2390.04167
452.88	2361.04167
456.783	2332.70833
460.683	2342.375
464.58	2329.375
468.473	2335.70833
472.364	2353.04167
476.251	2363.375
480.135	2356.04167
484.016	2393.375
487.894	2380.70833
491.769	2418.70833
495.641	2422.04167
499.509	2402.375
503.375	2393.375
507.237	2415.375
511.096	2409.04167
514.952	2479.375
518.805	2551.70833
522.655	2589.04167
526.502	2459.04167
530.346	2394.04167
534.187	2403.70833
538.024	2405.70833
541.859	2429.70833
545.69	2455.70833
549.519	2433.70833
553.344	2426.04167
557.166	2366.375
560.985	2332.375
564.802	2302.04167
568.615	2277.375
572.425	2214.375
576.232	2225.70833
580.036	2196.375
583.836	2218.375
587.634	2252.70833
591.429	2235.375
595.221	2311.04167
599.01	2316.04167
602.796	2324.04167
606.578	2363.70833
610.358	2327.375
614.135	2322.70833
617.909	2329.04167
621.679	2261.70833
625.447	2259.375
629.212	2274.375
632.973	2259.70833
636.732	2285.375
640.488	2286.04167
644.241	2244.375
647.991	2242.04167
651.737	2259.04167
655.481	2237.70833
659.222	2256.70833
662.96	2237.70833
666.695	2250.70833
670.427	2274.70833
674.156	2277.375
677.882	2261.70833
681.605	2239.04167
685.325	2227.70833
689.043	2221.375
692.757	2220.04167
696.468	2210.04167
700.177	2205.70833
703.882	2191.70833
707.585	2185.70833
711.284	2185.375
714.981	2187.70833
718.675	2206.04167
722.366	2195.70833
726.054	2184.70833
729.739	2200.04167
733.421	2201.70833
737.1	2211.375
740.777	2211.04167
744.45	2215.70833
748.121	2224.70833
751.789	2292.70833
755.453	2299.375
759.115	2295.04167
762.774	2306.04167
766.431	2309.70833
770.084	2348.04167
773.734	2337.375
777.382	2380.70833
781.027	2411.70833
784.669	2425.04167
788.308	2444.04167
791.944	2473.375
795.577	2487.04167
799.208	2491.70833
802.835	2516.04167
806.46	2521.04167
810.082	2537.375
813.701	2543.04167
817.317	2564.375
820.931	2559.04167
824.542	2545.04167
828.149	2527.375
831.754	2500.70833
835.357	2506.70833
838.956	2496.70833
842.553	2494.70833
846.146	2484.375
849.737	2465.04167
853.326	2464.70833
856.911	2492.04167
860.493	2507.70833
864.073	2522.375
867.65	2560.04167
871.225	2580.375
874.796	2591.04167
878.365	2606.375
881.931	2592.04167
885.494	2601.70833
889.054	2612.70833
892.612	2624.375
896.166	2589.375
899.719	2553.375
903.268	2529.04167
906.814	2515.04167
910.358	2488.375
913.899	2474.70833
917.438	2474.375
920.973	2478.04167
924.506	2502.375
928.036	2547.04167
931.564	2586.04167
935.088	2629.04167
938.61	2655.04167
942.129	2685.04167
945.646	2755.70833
949.16	2798.04167
952.671	2831.375
956.179	2826.375
959.685	2818.04167
963.188	2809.04167
966.688	2763.70833
970.185	2684.04167
973.68	2607.04167
977.173	2585.70833
980.662	2535.375
984.149	2542.375
987.633	2538.04167
991.114	2603.375
994.593	2620.04167
998.069	2695.375
1001.542	2760.04167
1005.013	2702.04167
1008.481	2561.04167
1011.947	2529.375
1015.409	2506.375
1018.869	2510.70833
1022.327	2507.375
1025.782	2493.04167
1029.234	2476.70833
1032.683	2452.70833
1036.13	2365.04167
1039.574	2262.70833
1043.016	2220.70833
1046.455	2153.375
1049.891	2169.70833
1053.325	2189.375
1056.756	2179.375
1060.184	2187.70833
1063.61	2208.04167
1067.033	2208.70833
1070.454	2219.70833
1073.872	2246.04167
1077.287	2255.04167
1080.7	2246.70833
1084.11	2220.04167
1087.517	2232.70833
1090.922	2192.375
1094.325	2156.04167
1097.724	2140.04167
1101.122	2151.375
1104.516	2136.04167
1107.908	2163.375
1111.298	2181.04167
1114.684	2202.70833
1118.069	2230.70833
1121.45	2252.375
1124.83	2242.04167
1128.206	2268.375
1131.58	2322.375
1134.951	2380.70833
1138.32	2427.70833
1141.687	2549.04167
1145.05	2579.375
1148.412	2580.375
1151.77	2565.04167
1155.126	2547.375
1158.48	2546.375
1161.831	2570.70833
1165.18	2563.04167
1168.525	2601.375
1171.869	2641.04167
1175.21	2665.70833
1178.548	2689.375
1181.884	2715.375
1185.217	2712.70833
1188.548	2822.375
1191.877	2831.375
1195.202	2953.375
1198.526	2981.70833
1201.846	3022.04167
1205.165	3025.375
1208.48	3019.70833
1211.794	3006.70833
1215.104	2992.04167
1218.413	3016.70833
1221.719	3010.375
1225.022	2968.04167
1228.323	2926.04167
1231.621	2897.04167
1234.917	2854.04167
1238.21	2880.70833
1241.501	2832.04167
1244.79	2847.375
1248.076	2831.70833
1251.359	2858.375
1254.64	2929.04167
1257.919	2939.04167
1261.195	2990.04167
1264.468	3047.70833
1267.74	3074.04167
1271.008	3100.375
1274.275	3074.04167
1277.538	3046.375
1280.8	3035.70833
1284.059	3037.04167
1287.315	3073.70833
1290.569	3110.375
1293.821	3119.70833
1297.07	3171.70833
1300.317	3152.375
1303.562	3137.70833
1306.803	3115.375
1310.043	3104.04167
1313.28	3057.375
1316.515	3055.375
1319.747	3013.04167
1322.977	2963.70833
1326.204	2959.375
1329.429	2913.04167
1332.652	2905.375
1335.872	2855.375
1339.09	2807.04167
1342.306	2806.70833
1345.519	2779.375
1348.729	2774.04167
1351.938	2776.04167
1355.144	2745.04167
1358.347	2706.375
1361.548	2722.375
1364.747	2706.70833
1367.944	2656.375
1371.138	2689.04167
1374.329	2700.375
1377.518	2723.70833
1380.705	2741.70833
1383.89	2708.70833
1387.072	2607.04167
1390.252	2506.04167
1393.429	2438.375
1396.605	2349.375
1399.777	2292.04167
1402.948	2270.04167
1406.116	2250.375
1409.282	2260.04167
1412.445	2249.04167
1415.606	2286.04167
1418.765	2312.375
1421.921	2363.70833
1425.075	2404.04167
1428.227	2488.375
1431.376	2582.04167
1434.524	2707.375
1437.668	2783.375
1440.811	2779.70833
1443.951	2807.375
1447.089	2816.70833
1450.224	2812.375
1453.357	2809.04167
1456.488	2752.70833
1459.617	2734.04167
1462.743	2673.70833
1465.867	2626.04167
1468.989	2592.375
1472.108	2522.375
1475.225	2475.04167
1478.34	2451.375
1481.453	2450.375
1484.563	2450.70833
1487.671	2483.70833
1490.776	2520.04167
1493.88	2591.04167
1496.981	2602.04167
1500.08	2627.375
1503.176	2679.375
1506.271	2684.375
1509.363	2737.70833
1512.452	2760.70833
1515.54	2800.04167
1518.625	2828.04167
1521.708	2909.04167
1524.789	2972.04167
1527.867	3081.70833
1530.944	3244.04167
1534.018	3366.70833
1537.089	3529.70833
1540.159	3579.70833
1543.226	3568.375
1546.291	3488.70833
1549.354	3437.70833
1552.415	3361.375
1555.473	3267.375
1558.529	3230.04167
1561.583	3192.70833
1564.634	3163.375
1567.684	3162.375
1570.731	3176.375
1573.776	3211.375
1576.819	3232.375
1579.859	3264.04167
1582.898	3323.375
1585.934	3316.70833
1588.968	3350.04167
1591.999	3345.375
1595.029	3380.70833
1598.056	3387.375
1601.081	3415.04167
1604.104	3395.04167
1607.125	3360.04167
1610.144	3298.375
1613.16	3213.70833
1616.174	3119.04167
1619.186	3061.70833
1622.196	2971.375
1625.203	2896.70833
1628.209	2842.70833
1631.212	2813.375
1634.213	2785.04167
1637.212	2788.70833
1640.209	2773.375
1643.203	2706.375
1646.196	2622.375
1649.186	2535.70833
1652.174	2434.04167
1655.16	2353.04167
1658.144	2304.70833
1661.125	2199.375
1664.105	2114.375
1667.082	2021.04167
1670.057	1901.04167
1673.03	1781.70833
1676.001	1658.70833
1678.97	1547.70833
1681.937	1456.70833
1684.901	1374.04167
1687.863	1338.375
1690.824	1278.375
1693.782	1259.70833
1696.738	1201.04167
1699.692	1183.04167
1702.643	1147.04167
1705.593	1128.04167
1708.54	1132.375
1711.486	1118.70833
1714.429	1088.375
1717.37	1091.04167
1720.309	1065.70833
1723.246	1066.375
1726.181	1044.70833
1729.113	1039.70833
1732.044	1026.375
1734.972	1022.70833
1737.899	1028.04167
1740.823	1025.70833
1743.745	1001.375
1746.665	983.04167
1749.583	979.375
1752.499	958.375
1755.413	951.04167
1758.325	927.04167
1761.235	917.375
1764.142	897.375
1767.048	880.04167
1769.951	900.375
1772.852	885.70833
1775.752	880.375
1778.649	877.70833
1781.544	892.375
1784.437	866.04167
1787.328	870.04167
1790.217	857.375
1793.104	831.375
1795.989	842.04167
1798.872	832.70833
1801.753	847.375
1804.631	830.375
1807.508	843.04167
1810.383	844.04167
1813.255	824.70833
1816.126	839.70833
1818.994	833.375
1821.861	833.375
1824.725	824.70833
1827.587	827.70833
1830.448	818.70833
1833.306	793.04167
1836.162	794.375
1839.017	788.70833
1841.869	794.04167
1844.719	792.70833
1847.567	765.375
1850.414	767.04167
1853.258	774.04167
1856.1	782.04167
1858.94	779.70833
1861.778	780.375
1864.614	770.375
1867.448	772.375
1870.28	754.70833
1873.111	780.375
1875.939	782.04167
1878.765	786.70833
1881.589	768.70833
1884.411	765.04167
1887.231	769.70833
1890.049	762.70833
1892.865	769.70833
1895.68	753.04167
1898.492	765.70833
1901.302	750.70833
1904.11	754.04167
1906.916	729.375
1909.721	732.04167
1912.523	752.04167
1915.323	730.04167
1918.122	725.04167
1920.918	739.375
1923.712	721.375
1926.505	718.04167
1929.295	710.375
1932.084	731.375
1934.87	724.04167
1937.655	726.375
1940.438	714.70833
1943.218	716.70833
1945.997	715.375
1948.774	730.375
1951.549	717.70833
1954.322	713.04167
1957.093	721.70833
1959.862	701.70833
1962.629	706.70833
1965.394	700.70833
1968.157	693.04167
1970.918	705.04167
1973.678	686.70833
1976.435	710.70833
1979.19	689.04167
1981.944	682.04167
1984.696	694.70833
1987.445	676.70833
1990.193	678.70833
1992.939	690.70833
1995.683	683.70833
1998.425	664.70833
2001.165	692.375
2003.903	661.70833
2006.639	664.375
2009.374	678.70833
2012.106	674.375
2014.837	653.70833
2017.566	670.70833
2020.292	678.04167
2023.017	673.04167
2025.74	675.375
2028.461	664.04167
2031.18	663.70833
2033.898	658.04167
2036.613	668.04167
2039.327	652.70833
2042.038	645.375
2044.748	644.375
2047.456	651.70833
2050.162	643.375
2052.866	640.375
2055.568	656.375
2058.268	641.70833
2060.967	646.375
2063.663	636.375
2066.358	632.375
2069.051	640.04167
2071.742	647.375
2074.431	635.375
2077.118	641.04167
2079.804	621.375
2082.487	634.70833
2085.169	650.70833
2087.849	657.70833
2090.527	623.375
2093.203	643.375
2095.877	654.04167
2098.55	647.04167
2101.22	656.70833
2103.889	662.04167
2106.556	660.70833
2109.221	691.04167
2111.884	692.04167
2114.546	739.70833
2117.205	769.04167
2119.863	819.375
2122.519	847.375
2125.173	898.04167
2127.825	946.70833
2130.475	945.70833
2133.124	926.70833
2135.771	889.375
2138.416	858.375
2141.059	795.70833
2143.7	774.04167
2146.339	734.70833
2148.977	698.375
2151.613	697.04167
2154.247	679.375
2156.879	657.04167
2159.51	640.70833
2162.138	636.04167
2164.765	628.70833
2167.39	609.04167
2170.013	637.04167
2172.634	631.375
2175.254	611.70833
2177.872	651.70833
2180.488	616.375
2183.102	611.375
2185.714	607.375
2188.325	592.375
2190.934	596.04167
2193.541	608.04167
2196.146	590.04167
2198.75	576.70833
2201.351	579.04167
2203.951	573.04167
2206.549	585.70833
2209.146	573.375
2211.74	573.04167
2214.333	579.70833
2216.924	557.70833
2219.514	572.04167
2222.101	556.04167
2224.687	570.70833
2227.271	568.70833
2229.853	559.04167
2232.433	548.375
2235.012	565.04167
2237.589	566.04167
2240.164	571.70833
2242.738	551.375
2245.309	552.375
2247.879	561.04167
2250.448	552.04167
2253.014	539.04167
2255.579	527.375
2258.142	530.70833
2260.703	522.70833
2263.262	535.375
2265.82	521.04167
2268.376	532.375
2270.93	512.375
2273.483	525.04167
2276.033	532.375
2278.583	528.375
2281.13	526.375
2283.675	504.375
2286.219	509.04167
2288.761	518.375
2291.302	510.375
2293.841	525.70833
2296.377	506.70833
2298.913	511.375
2301.446	515.70833
2303.978	507.70833
2306.508	510.04167
2309.037	515.04167
2311.563	515.375
2314.088	513.375
2316.612	491.04167
2319.133	497.70833
2321.653	510.70833
2324.171	494.04167
2326.688	512.375
2329.202	501.375
2331.715	502.70833
2334.227	491.70833
2336.736	505.375
2339.244	493.70833
2341.751	482.04167
2344.255	503.70833
2346.758	502.04167
2349.259	483.70833
2351.759	492.70833
2354.257	494.70833
2356.753	493.375
2359.247	494.04167
2361.74	507.70833
2364.231	493.375
2366.721	492.04167
2369.209	489.375
2371.695	493.70833
2374.179	485.04167
2376.662	485.70833
2379.143	501.04167
2381.622	489.70833
2384.1	491.04167
2386.576	495.375
2389.051	500.70833
2391.524	499.70833
2393.995	500.70833
2396.464	483.375
2398.932	487.70833
2401.398	486.70833
2403.863	490.04167
2406.325	483.375
2408.787	491.04167
2411.246	487.375
2413.704	478.70833
2416.16	481.375
2418.615	487.70833
2421.068	498.04167
2423.519	487.70833
2425.969	483.04167
2428.417	491.04167
2430.863	502.04167
2433.308	496.04167
2435.751	494.04167
2438.193	494.04167
2440.633	496.70833
2443.071	493.70833
2445.508	487.04167
2447.943	489.70833
2450.376	485.04167
2452.808	486.70833
2455.238	481.375
2457.667	519.70833
2460.093	487.70833
2462.519	482.04167
2464.942	488.375
2467.365	491.70833
2469.785	493.04167
2472.204	488.70833
2474.621	475.04167
2477.037	509.70833
2479.451	479.04167
2481.863	469.04167
2484.274	487.04167
2486.683	478.70833
2489.091	496.04167
2491.497	488.375
2493.901	482.70833
2496.304	484.70833
2498.705	498.04167
2501.105	478.70833
2503.503	508.375
2505.899	481.375
2508.294	505.375
2510.687	489.70833
2513.079	487.70833
2515.469	486.375
2517.858	484.04167
2520.245	500.375
2522.63	485.04167
2525.014	486.70833
2527.396	487.375
2529.776	482.70833
2532.156	495.70833
2534.533	482.04167
2536.909	473.70833
2539.283	469.04167
2541.656	481.375
2544.027	500.375
2546.397	481.375
2548.765	484.375
2551.131	488.70833
2553.496	479.70833
2555.86	503.70833
2558.221	490.04167
2560.582	487.375
2562.94	479.70833
2565.298	492.04167
2567.653	515.04167
2570.007	480.70833
2572.36	499.375
2574.711	489.70833
2577.06	504.70833
2579.408	499.375
2581.754	486.375
2584.099	493.70833
2586.442	496.375
2588.784	504.375
2591.124	501.04167
2593.463	501.375
2595.8	504.70833
2598.135	482.375
2600.469	480.375
2602.802	506.04167
2605.133	513.04167
2607.462	492.70833
2609.79	485.04167
2612.116	501.70833
2614.441	509.375
2616.764	504.70833
2619.086	501.375
2621.406	494.70833
2623.725	515.375
2626.042	516.04167
2628.358	507.70833
2630.672	501.70833
2632.985	519.70833
2635.296	518.04167
2637.606	512.375
2639.914	484.375
2642.22	519.70833
2644.525	509.04167
2646.829	525.375
2649.131	522.375
2651.432	539.375
2653.731	513.70833
2656.028	537.04167
2658.324	529.375
2660.619	521.375
2662.912	525.04167
2665.204	524.04167
2667.494	549.04167
2669.782	519.375
2672.07	541.04167
2674.355	540.375
2676.639	537.375
2678.922	536.375
2681.203	532.04167
2683.483	530.70833
2685.761	525.70833
2688.038	536.70833
2690.313	556.04167
2692.587	539.70833
2694.859	527.70833
2697.13	546.04167
2699.399	549.375
2701.667	553.70833
2703.933	551.375
2706.198	553.04167
2708.461	559.70833
2710.723	559.375
2712.984	567.375
2715.243	565.04167
2717.5	554.375
2719.757	586.70833
2722.011	571.04167
2724.264	596.70833
2726.516	590.04167
2728.766	584.04167
2731.015	591.04167
2733.262	582.375
2735.508	585.70833
2737.753	587.04167
2739.996	584.375
2742.237	573.375
2744.477	586.70833
2746.716	588.70833
2748.953	579.70833
2751.189	580.70833
2753.423	572.375
2755.656	561.04167
2757.887	555.70833
2760.117	574.04167
2762.346	562.375
2764.573	557.375
2766.798	561.375
2769.022	563.04167
2771.245	579.04167
2773.467	573.04167
2775.686	583.70833
2777.905	578.04167
2780.122	580.375
2782.337	594.375
2784.552	587.04167
2786.764	585.375
2788.976	598.04167
2791.186	594.70833
2793.394	607.04167
2795.601	619.70833
2797.807	623.70833
2800.011	623.04167
2802.214	629.375
2804.415	625.375
2806.615	638.70833
2808.814	625.375
2811.011	648.04167
2813.206	640.375
2815.401	653.375
2817.594	663.70833
2819.785	669.375
2821.975	661.70833
2824.164	656.375
2826.351	677.375
2828.537	686.375
2830.722	691.70833
2832.905	704.70833
2835.086	732.70833
2837.267	750.04167
2839.445	760.70833
2841.623	786.70833
2843.799	794.70833
2845.974	817.70833
2848.147	852.375
2850.319	859.70833
2852.489	897.04167
2854.659	909.375
2856.826	910.04167
2858.993	947.70833
2861.158	922.375
2863.321	912.70833
2865.483	941.04167
2867.644	933.70833
2869.804	942.70833
2871.962	928.70833
2874.118	924.375
2876.274	931.70833
2878.428	927.375
2880.58	909.70833
2882.731	909.70833
2884.881	916.70833
2887.03	916.375
2889.177	916.04167
2891.322	928.70833
2893.467	934.04167
2895.61	934.375
2897.751	957.04167
2899.892	941.04167
2902.03	946.375
2904.168	955.70833
2906.304	952.04167
2908.439	984.375
2910.572	960.04167
2912.704	965.375
2914.835	978.70833
2916.965	972.375
2919.093	979.70833
2921.219	950.70833
2923.345	982.70833
2925.469	951.04167
2927.591	951.04167
2929.712	930.70833
2931.832	915.375
2933.951	908.375
2936.068	898.70833
2938.184	885.04167
2940.299	878.375
2942.412	843.04167
2944.524	821.04167
2946.634	824.04167
2948.744	770.375
2950.851	810.375
2952.958	769.70833
2955.063	775.70833
2957.167	762.04167
2959.269	740.70833
2961.371	766.04167
2963.471	724.70833
2965.569	725.70833
2967.666	707.375
2969.762	705.375
2971.857	694.04167
2973.95	676.70833
2976.042	675.70833
2978.133	668.04167
2980.222	654.04167
2982.31	626.375
2984.396	620.04167
2986.482	622.04167
2988.566	620.375
2990.648	608.375
2992.73	612.04167
2994.81	607.04167
2996.889	608.70833
2998.966	613.375
3001.042	614.70833
3003.117	608.70833
3005.191	602.70833
3007.263	608.70833
3009.334	600.375
3011.403	602.70833
3013.472	576.04167
3015.539	585.375
3017.604	592.04167
3019.669	554.375
3021.732	560.04167
3023.794	560.04167
3025.854	560.375
3027.914	566.70833
3029.971	557.375
3032.028	562.70833
3034.083	552.70833
3036.137	556.70833
3038.19	527.375
3040.242	518.70833
3042.292	504.70833
3044.341	505.70833
3046.388	523.04167
3048.435	496.375
3050.48	515.04167
3052.524	503.04167
3054.566	487.375
3056.607	501.04167
3058.647	483.375
3060.686	471.70833
3062.723	453.70833
3064.759	444.04167
3066.794	0.375
3068.828	4.04167
3070.86	2.04167
