-0.839	488.58333
3.438	556.25
7.711	171.58333
11.981	60.58333
16.247	44.91667
20.509	47.25
24.768	45.91667
29.024	47.91667
33.276	43.91667
37.524	49.58333
41.769	47.25
46.01	35.91667
50.247	45.58333
54.481	60.58333
58.712	59.91667
62.939	45.91667
67.162	60.58333
71.382	57.25
75.599	42.58333
79.812	64.25
84.021	81.91667
88.227	58.91667
92.429	57.25
96.628	49.58333
100.823	67.91667
105.015	73.91667
109.204	63.91667
113.388	72.91667
117.57	72.91667
121.748	82.58333
125.922	73.25
130.093	91.58333
134.261	91.58333
138.425	94.91667
142.585	126.91667
146.742	117.91667
150.896	153.58333
155.046	187.91667
159.193	296.25
163.336	483.25
167.476	893.91667
171.613	1648.58333
175.746	2692.58333
179.875	3977.58333
184.002	5190.25
188.124	5981.91667
192.244	6231.91667
196.36	6143.25
200.472	5915.91667
204.581	5738.58333
208.687	5539.25
212.79	5434.58333
216.889	5344.25
220.984	5308.25
225.077	5278.25
229.165	5281.58333
233.251	5230.58333
237.333	5207.25
241.412	5158.58333
245.487	5089.91667
249.559	5043.91667
253.628	4997.58333
257.694	4945.25
261.756	4919.58333
265.814	4778.91667
269.87	4645.91667
273.922	4500.58333
277.97	4423.91667
282.016	4371.58333
286.058	4384.91667
290.097	4422.25
294.132	4507.91667
298.164	4482.58333
302.193	4288.91667
306.219	3982.91667
310.241	3703.25
314.26	3395.58333
318.276	3148.91667
322.288	3028.58333
326.297	2890.91667
330.303	2794.25
334.305	2714.25
338.305	2699.91667
342.301	2654.91667
346.294	2622.25
350.283	2620.58333
354.269	2591.91667
358.252	2556.58333
362.232	2552.25
366.209	2536.58333
370.182	2498.91667
374.152	2476.91667
378.119	2501.91667
382.083	2472.25
386.043	2500.91667
390	2481.91667
393.954	2505.91667
397.905	2476.58333
401.852	2487.91667
405.797	2442.58333
409.738	2480.25
413.676	2518.91667
417.61	2537.58333
421.542	2455.25
425.47	2393.58333
429.396	2378.91667
433.318	2356.91667
437.236	2359.58333
441.152	2377.91667
445.065	2336.58333
448.974	2323.91667
452.88	2301.25
456.783	2283.25
460.683	2265.58333
464.58	2293.58333
468.473	2273.91667
472.364	2292.58333
476.251	2291.25
480.135	2313.91667
484.016	2335.25
487.894	2347.58333
491.769	2362.25
495.641	2381.25
499.509	2350.91667
503.375	2375.91667
507.237	2356.58333
511.096	2337.91667
514.952	2378.58333
518.805	2389.25
522.655	2437.91667
526.502	2371.58333
530.346	2353.58333
534.187	2373.91667
538.024	2378.25
541.859	2379.58333
545.69	2415.25
549.519	2393.91667
553.344	2372.91667
557.166	2338.91667
560.985	2318.25
564.802	2293.25
568.615	2265.58333
572.425	2221.91667
576.232	2224.58333
580.036	2210.58333
583.836	2231.58333
587.634	2222.91667
591.429	2202.91667
595.221	2262.91667
599.01	2268.25
602.796	2281.25
606.578	2302.58333
610.358	2314.58333
614.135	2303.25
617.909	2282.91667
621.679	2271.58333
625.447	2255.58333
629.212	2256.91667
632.973	2254.58333
636.732	2252.58333
640.488	2285.25
644.241	2231.25
647.991	2235.91667
651.737	2260.25
655.481	2206.91667
659.222	2223.91667
662.96	2212.58333
666.695	2232.25
670.427	2248.58333
674.156	2266.25
677.882	2243.91667
681.605	2226.25
685.325	2233.58333
689.043	2237.91667
692.757	2190.91667
696.468	2187.25
700.177	2166.91667
703.882	2177.25
707.585	2171.58333
711.284	2154.91667
714.981	2168.91667
718.675	2142.25
722.366	2193.91667
726.054	2168.91667
729.739	2149.91667
733.421	2165.25
737.1	2163.25
740.777	2201.91667
744.45	2205.58333
748.121	2211.58333
751.789	2261.91667
755.453	2232.25
759.115	2263.91667
762.774	2265.91667
766.431	2287.25
770.084	2286.91667
773.734	2309.25
777.382	2348.58333
781.027	2366.25
784.669	2361.58333
788.308	2365.91667
791.944	2386.91667
795.577	2403.25
799.208	2421.58333
802.835	2428.25
806.46	2444.91667
810.082	2454.25
813.701	2464.91667
817.317	2475.91667
820.931	2471.58333
824.542	2452.58333
828.149	2458.25
831.754	2402.58333
835.357	2422.91667
838.956	2430.91667
842.553	2449.25
846.146	2439.58333
849.737	2414.58333
853.326	2395.25
856.911	2371.91667
860.493	2442.25
864.073	2459.91667
867.65	2498.25
871.225	2517.25
874.796	2462.25
878.365	2466.58333
881.931	2499.25
885.494	2497.91667
889.054	2484.25
892.612	2497.58333
896.166	2461.91667
899.719	2457.58333
903.268	2416.58333
906.814	2413.25
910.358	2383.25
913.899	2372.25
917.438	2361.25
920.973	2367.91667
924.506	2396.91667
928.036	2442.58333
931.564	2442.91667
935.088	2485.25
938.61	2489.25
942.129	2522.91667
945.646	2580.58333
949.16	2619.58333
952.671	2663.25
956.179	2690.58333
959.685	2656.25
963.188	2643.58333
966.688	2621.58333
970.185	2554.91667
973.68	2492.25
977.173	2451.58333
980.662	2432.58333
984.149	2439.25
987.633	2424.91667
991.114	2456.25
994.593	2496.25
998.069	2579.91667
1001.542	2646.91667
1005.013	2594.25
1008.481	2464.91667
1011.947	2406.91667
1015.409	2403.91667
1018.869	2387.58333
1022.327	2384.58333
1025.782	2377.58333
1029.234	2377.91667
1032.683	2327.91667
1036.13	2280.25
1039.574	2195.58333
1043.016	2129.58333
1046.455	2104.91667
1049.891	2071.58333
1053.325	2103.58333
1056.756	2098.25
1060.184	2123.25
1063.61	2114.91667
1067.033	2124.91667
1070.454	2132.58333
1073.872	2176.58333
1077.287	2125.91667
1080.7	2145.91667
1084.11	2148.58333
1087.517	2122.58333
1090.922	2102.58333
1094.325	2091.91667
1097.724	2060.25
1101.122	2068.58333
1104.516	2054.25
1107.908	2060.25
1111.298	2098.91667
1114.684	2121.91667
1118.069	2139.91667
1121.45	2172.58333
1124.83	2157.58333
1128.206	2176.58333
1131.58	2202.91667
1134.951	2260.58333
1138.32	2318.25
1141.687	2408.58333
1145.05	2460.91667
1148.412	2445.58333
1151.77	2421.25
1155.126	2415.25
1158.48	2404.25
1161.831	2420.58333
1165.18	2445.58333
1168.525	2469.25
1171.869	2493.58333
1175.21	2496.91667
1178.548	2544.58333
1181.884	2563.25
1185.217	2585.58333
1188.548	2634.91667
1191.877	2672.91667
1195.202	2756.91667
1198.526	2830.58333
1201.846	2851.58333
1205.165	2843.25
1208.48	2834.91667
1211.794	2826.58333
1215.104	2831.25
1218.413	2832.25
1221.719	2806.25
1225.022	2809.58333
1228.323	2742.91667
1231.621	2723.91667
1234.917	2725.58333
1238.21	2721.25
1241.501	2701.58333
1244.79	2681.58333
1248.076	2662.91667
1251.359	2709.91667
1254.64	2783.25
1257.919	2797.58333
1261.195	2825.58333
1264.468	2876.91667
1267.74	2915.25
1271.008	2909.91667
1274.275	2904.91667
1277.538	2905.58333
1280.8	2886.58333
1284.059	2877.58333
1287.315	2923.25
1290.569	2927.91667
1293.821	2933.25
1297.07	2944.91667
1300.317	2954.58333
1303.562	2948.91667
1306.803	2928.58333
1310.043	2913.91667
1313.28	2881.25
1316.515	2869.58333
1319.747	2863.58333
1322.977	2836.91667
1326.204	2799.25
1329.429	2752.25
1332.652	2739.91667
1335.872	2701.58333
1339.09	2711.91667
1342.306	2688.25
1345.519	2666.91667
1348.729	2633.58333
1351.938	2642.58333
1355.144	2594.91667
1358.347	2538.58333
1361.548	2551.25
1364.747	2552.91667
1367.944	2505.58333
1371.138	2519.91667
1374.329	2520.58333
1377.518	2551.91667
1380.705	2547.91667
1383.89	2547.58333
1387.072	2464.91667
1390.252	2365.91667
1393.429	2291.91667
1396.605	2234.91667
1399.777	2178.25
1402.948	2152.58333
1406.116	2151.58333
1409.282	2161.91667
1412.445	2143.91667
1415.606	2159.91667
1418.765	2184.91667
1421.921	2227.58333
1425.075	2278.91667
1428.227	2363.25
1431.376	2475.25
1434.524	2543.25
1437.668	2618.91667
1440.811	2638.91667
1443.951	2650.58333
1447.089	2688.25
1450.224	2674.25
1453.357	2643.25
1456.488	2629.58333
1459.617	2594.58333
1462.743	2559.58333
1465.867	2491.58333
1468.989	2465.25
1472.108	2398.25
1475.225	2382.25
1478.34	2318.58333
1481.453	2321.91667
1484.563	2325.58333
1487.671	2351.58333
1490.776	2408.91667
1493.88	2421.25
1496.981	2448.91667
1500.08	2509.25
1503.176	2537.58333
1506.271	2566.58333
1509.363	2594.91667
1512.452	2617.25
1515.54	2637.91667
1518.625	2668.58333
1521.708	2751.25
1524.789	2813.25
1527.867	2916.91667
1530.944	3088.91667
1534.018	3190.58333
1537.089	3330.25
1540.159	3374.25
1543.226	3342.91667
1546.291	3296.58333
1549.354	3226.25
1552.415	3144.25
1555.473	3069.25
1558.529	3011.58333
1561.583	2974.58333
1564.634	2944.25
1567.684	2957.91667
1570.731	2974.91667
1573.776	3014.58333
1576.819	3040.25
1579.859	3058.91667
1582.898	3120.91667
1585.934	3149.58333
1588.968	3167.91667
1591.999	3140.25
1595.029	3167.58333
1598.056	3210.25
1601.081	3223.25
1604.104	3191.58333
1607.125	3152.25
1610.144	3101.91667
1613.16	3030.58333
1616.174	2967.91667
1619.186	2880.58333
1622.196	2821.91667
1625.203	2760.25
1628.209	2692.58333
1631.212	2691.58333
1634.213	2679.91667
1637.212	2685.58333
1640.209	2648.91667
1643.203	2578.25
1646.196	2475.91667
1649.186	2380.25
1652.174	2317.91667
1655.16	2252.25
1658.144	2186.91667
1661.125	2083.91667
1664.105	2022.25
1667.082	1923.25
1670.057	1832.58333
1673.03	1711.91667
1676.001	1610.25
1678.97	1504.25
1681.937	1420.25
1684.901	1336.25
1687.863	1303.91667
1690.824	1246.25
1693.782	1217.58333
1696.738	1169.25
1699.692	1145.91667
1702.643	1108.25
1705.593	1106.91667
1708.54	1099.58333
1711.486	1087.58333
1714.429	1058.91667
1717.37	1066.58333
1720.309	1031.25
1723.246	1051.25
1726.181	1022.25
1729.113	1029.91667
1732.044	1002.58333
1734.972	1000.91667
1737.899	1004.91667
1740.823	1004.58333
1743.745	998.58333
1746.665	959.91667
1749.583	945.25
1752.499	933.58333
1755.413	924.91667
1758.325	901.25
1761.235	896.58333
1764.142	879.58333
1767.048	875.25
1769.951	888.25
1772.852	878.91667
1775.752	893.58333
1778.649	904.91667
1781.544	873.25
1784.437	851.58333
1787.328	857.91667
1790.217	845.58333
1793.104	817.91667
1795.989	818.58333
1798.872	810.58333
1801.753	821.58333
1804.631	815.58333
1807.508	816.58333
1810.383	823.58333
1813.255	815.25
1816.126	811.91667
1818.994	816.91667
1821.861	806.25
1824.725	807.58333
1827.587	806.25
1830.448	793.91667
1833.306	769.58333
1836.162	788.58333
1839.017	781.25
1841.869	782.58333
1844.719	768.58333
1847.567	755.91667
1850.414	757.58333
1853.258	756.58333
1856.1	753.58333
1858.94	769.25
1861.778	744.58333
1864.614	759.91667
1867.448	759.91667
1870.28	741.25
1873.111	766.25
1875.939	750.91667
1878.765	758.91667
1881.589	747.58333
1884.411	748.58333
1887.231	754.58333
1890.049	746.58333
1892.865	749.91667
1895.68	741.91667
1898.492	753.58333
1901.302	738.25
1904.11	722.58333
1906.916	721.58333
1909.721	716.58333
1912.523	719.58333
1915.323	695.91667
1918.122	703.25
1920.918	717.25
1923.712	703.25
1926.505	697.91667
1929.295	686.91667
1932.084	706.91667
1934.87	701.25
1937.655	698.25
1940.438	695.91667
1943.218	694.25
1945.997	695.91667
1948.774	702.58333
1951.549	700.58333
1954.322	692.91667
1957.093	680.91667
1959.862	671.91667
1962.629	681.25
1965.394	673.91667
1968.157	671.25
1970.918	666.91667
1973.678	655.25
1976.435	680.25
1979.19	668.58333
1981.944	658.25
1984.696	654.91667
1987.445	660.91667
1990.193	652.58333
1992.939	664.58333
1995.683	644.58333
1998.425	638.91667
2001.165	671.91667
2003.903	637.58333
2006.639	644.91667
2009.374	648.25
2012.106	643.25
2014.837	633.91667
2017.566	644.58333
2020.292	635.58333
2023.017	637.25
2025.74	626.91667
2028.461	624.91667
2031.18	623.58333
2033.898	618.58333
2036.613	617.58333
2039.327	620.58333
2042.038	609.58333
2044.748	618.25
2047.456	634.25
2050.162	608.91667
2052.866	618.25
2055.568	626.25
2058.268	603.58333
2060.967	611.91667
2063.663	605.91667
2066.358	598.58333
2069.051	588.58333
2071.742	612.91667
2074.431	609.25
2077.118	598.91667
2079.804	594.25
2082.487	599.91667
2085.169	609.58333
2087.849	612.91667
2090.527	596.91667
2093.203	597.58333
2095.877	613.25
2098.55	611.25
2101.22	623.58333
2103.889	605.91667
2106.556	613.58333
2109.221	630.58333
2111.884	639.25
2114.546	678.25
2117.205	706.25
2119.863	751.25
2122.519	776.25
2125.173	826.91667
2127.825	872.25
2130.475	879.58333
2133.124	853.58333
2135.771	817.25
2138.416	785.91667
2141.059	739.91667
2143.7	712.25
2146.339	685.58333
2148.977	641.91667
2151.613	640.58333
2154.247	631.58333
2156.879	610.58333
2159.51	600.58333
2162.138	574.25
2164.765	591.91667
2167.39	560.91667
2170.013	579.25
2172.634	577.91667
2175.254	567.25
2177.872	601.91667
2180.488	543.91667
2183.102	563.91667
2185.714	552.25
2188.325	531.25
2190.934	547.25
2193.541	536.25
2196.146	527.58333
2198.75	520.58333
2201.351	523.58333
2203.951	510.91667
2206.549	523.91667
2209.146	518.25
2211.74	513.58333
2214.333	515.91667
2216.924	503.25
2219.514	509.58333
2222.101	507.25
2224.687	516.58333
2227.271	514.91667
2229.853	490.25
2232.433	498.58333
2235.012	505.25
2237.589	507.58333
2240.164	512.58333
2242.738	496.91667
2245.309	483.25
2247.879	504.91667
2250.448	501.25
2253.014	473.25
2255.579	474.25
2258.142	477.25
2260.703	468.58333
2263.262	462.58333
2265.82	463.58333
2268.376	466.91667
2270.93	443.25
2273.483	455.91667
2276.033	461.91667
2278.583	455.91667
2281.13	454.25
2283.675	454.58333
2286.219	448.58333
2288.761	455.25
2291.302	450.91667
2293.841	468.58333
2296.377	432.91667
2298.913	440.58333
2301.446	456.91667
2303.978	442.25
2306.508	449.91667
2309.037	457.25
2311.563	441.58333
2314.088	449.91667
2316.612	431.58333
2319.133	433.58333
2321.653	437.58333
2324.171	430.58333
2326.688	441.25
2329.202	433.58333
2331.715	429.25
2334.227	427.25
2336.736	433.58333
2339.244	425.25
2341.751	409.58333
2344.255	425.91667
2346.758	424.58333
2349.259	408.91667
2351.759	417.58333
2354.257	411.58333
2356.753	410.25
2359.247	418.91667
2361.74	420.25
2364.231	417.25
2366.721	423.25
2369.209	410.58333
2371.695	414.25
2374.179	412.91667
2376.662	399.91667
2379.143	423.25
2381.622	402.25
2384.1	415.91667
2386.576	408.91667
2389.051	418.25
2391.524	415.25
2393.995	413.58333
2396.464	406.91667
2398.932	398.58333
2401.398	403.91667
2403.863	402.58333
2406.325	395.58333
2408.787	403.58333
2411.246	397.25
2413.704	392.91667
2416.16	397.58333
2418.615	388.58333
2421.068	408.25
2423.519	396.25
2425.969	392.58333
2428.417	393.91667
2430.863	420.58333
2433.308	403.91667
2435.751	393.58333
2438.193	384.91667
2440.633	396.91667
2443.071	390.58333
2445.508	390.58333
2447.943	384.58333
2450.376	381.25
2452.808	384.25
2455.238	377.25
2457.667	415.25
2460.093	379.25
2462.519	373.91667
2464.942	382.25
2467.365	384.25
2469.785	387.58333
2472.204	375.58333
2474.621	366.58333
2477.037	395.58333
2479.451	368.91667
2481.863	362.25
2484.274	379.25
2486.683	377.58333
2489.091	388.25
2491.497	377.91667
2493.901	378.25
2496.304	377.58333
2498.705	383.91667
2501.105	377.91667
2503.503	405.91667
2505.899	364.58333
2508.294	389.91667
2510.687	372.91667
2513.079	371.91667
2515.469	363.91667
2517.858	372.91667
2520.245	378.25
2522.63	365.25
2525.014	359.91667
2527.396	356.91667
2529.776	353.58333
2532.156	367.91667
2534.533	363.25
2536.909	354.58333
2539.283	346.25
2541.656	355.25
2544.027	382.91667
2546.397	364.25
2548.765	355.25
2551.131	356.91667
2553.496	354.58333
2555.86	368.58333
2558.221	360.91667
2560.582	365.25
2562.94	340.25
2565.298	353.25
2567.653	372.91667
2570.007	340.25
2572.36	371.58333
2574.711	344.25
2577.06	366.58333
2579.408	365.25
2581.754	360.25
2584.099	356.91667
2586.442	354.58333
2588.784	362.91667
2591.124	354.58333
2593.463	350.58333
2595.8	367.91667
2598.135	343.58333
2600.469	342.91667
2602.802	364.58333
2605.133	369.91667
2607.462	342.25
2609.79	336.91667
2612.116	355.25
2614.441	352.25
2616.764	356.58333
2619.086	350.25
2621.406	339.58333
2623.725	364.25
2626.042	356.91667
2628.358	349.91667
2630.672	344.58333
2632.985	367.25
2635.296	359.58333
2637.606	349.58333
2639.914	335.91667
2642.22	351.91667
2644.525	347.91667
2646.829	351.25
2649.131	365.91667
2651.432	364.58333
2653.731	350.25
2656.028	357.91667
2658.324	364.58333
2660.619	342.25
2662.912	369.91667
2665.204	346.91667
2667.494	364.58333
2669.782	358.25
2672.07	373.91667
2674.355	367.25
2676.639	367.25
2678.922	351.25
2681.203	369.58333
2683.483	348.91667
2685.761	348.25
2688.038	361.25
2690.313	370.58333
2692.587	370.58333
2694.859	349.25
2697.13	360.91667
2699.399	366.58333
2701.667	380.25
2703.933	371.25
2706.198	370.25
2708.461	384.91667
2710.723	387.58333
2712.984	376.25
2715.243	387.58333
2717.5	366.91667
2719.757	391.91667
2722.011	380.91667
2724.264	398.91667
2726.516	394.91667
2728.766	385.91667
2731.015	388.91667
2733.262	390.25
2735.508	395.58333
2737.753	391.25
2739.996	376.25
2742.237	373.58333
2744.477	387.91667
2746.716	389.58333
2748.953	371.58333
2751.189	377.58333
2753.423	378.91667
2755.656	368.58333
2757.887	365.91667
2760.117	362.91667
2762.346	358.91667
2764.573	356.58333
2766.798	373.25
2769.022	368.91667
2771.245	366.58333
2773.467	372.91667
2775.686	375.91667
2777.905	378.91667
2780.122	382.91667
2782.337	385.91667
2784.552	383.58333
2786.764	383.91667
2788.976	386.58333
2791.186	382.25
2793.394	396.25
2795.601	395.58333
2797.807	408.58333
2800.011	408.91667
2802.214	416.58333
2804.415	399.58333
2806.615	411.91667
2808.814	408.25
2811.011	419.58333
2813.206	427.58333
2815.401	442.58333
2817.594	433.91667
2819.785	450.58333
2821.975	439.91667
2824.164	448.91667
2826.351	459.58333
2828.537	468.25
2830.722	480.91667
2832.905	485.91667
2835.086	507.58333
2837.267	535.58333
2839.445	539.25
2841.623	550.58333
2843.799	572.91667
2845.974	612.25
2848.147	634.58333
2850.319	661.25
2852.489	681.91667
2854.659	693.91667
2856.826	701.25
2858.993	725.58333
2861.158	707.25
2863.321	716.25
2865.483	736.25
2867.644	722.91667
2869.804	728.91667
2871.962	732.91667
2874.118	728.91667
2876.274	750.58333
2878.428	748.91667
2880.58	719.91667
2882.731	717.58333
2884.881	715.91667
2887.03	721.91667
2889.177	711.58333
2891.322	731.25
2893.467	728.58333
2895.61	724.91667
2897.751	748.25
2899.892	740.25
2902.03	736.58333
2904.168	752.58333
2906.304	756.25
2908.439	773.58333
2910.572	741.58333
2912.704	774.91667
2914.835	765.58333
2916.965	756.58333
2919.093	772.58333
2921.219	754.25
2923.345	774.91667
2925.469	744.91667
2927.591	749.91667
2929.712	717.25
2931.832	723.91667
2933.951	705.58333
2936.068	698.25
2938.184	676.25
2940.299	653.25
2942.412	647.91667
2944.524	616.58333
2946.634	612.91667
2948.744	556.58333
2950.851	594.91667
2952.958	548.91667
2955.063	546.25
2957.167	542.91667
2959.269	518.91667
2961.371	543.25
2963.471	493.58333
2965.569	505.25
2967.666	470.91667
2969.762	466.25
2971.857	458.58333
2973.95	439.58333
2976.042	443.25
2978.133	434.25
2980.222	422.91667
2982.31	415.58333
2984.396	438.58333
2986.482	405.58333
2988.566	393.58333
2990.648	386.25
2992.73	387.58333
2994.81	374.91667
2996.889	382.58333
2998.966	375.58333
3001.042	379.58333
3003.117	373.58333
3005.191	375.25
3007.263	377.58333
3009.334	362.25
3011.403	362.58333
3013.472	342.58333
3015.539	360.25
3017.604	364.91667
3019.669	325.91667
3021.732	335.25
3023.794	341.25
3025.854	327.91667
3027.914	326.25
3029.971	332.91667
3032.028	317.91667
3034.083	323.58333
3036.137	322.91667
3038.19	307.58333
3040.242	303.58333
3042.292	299.91667
3044.341	295.58333
3046.388	309.91667
3048.435	281.25
3050.48	303.91667
3052.524	297.25
3054.566	280.25
3056.607	292.25
3058.647	283.91667
3060.686	262.91667
3062.723	263.91667
3064.759	245.58333
3066.794	-0.41667
3068.828	1.25
3070.86	2.25
