-0.839	470.08333
3.438	558.75
7.711	162.41667
11.981	60.75
16.247	45.41667
20.509	50.41667
24.768	47.08333
29.024	55.41667
33.276	43.41667
37.524	48.41667
41.769	47.08333
46.01	33.08333
50.247	41.41667
54.481	56.08333
58.712	62.75
62.939	50.41667
67.162	66.08333
71.382	57.08333
75.599	43.08333
79.812	63.08333
84.021	77.75
88.227	62.75
92.429	60.75
96.628	50.41667
100.823	73.41667
105.015	75.41667
109.204	66.08333
113.388	75.41667
117.57	78.75
121.748	88.08333
125.922	80.41667
130.093	101.08333
134.261	104.41667
138.425	102.41667
142.585	138.41667
146.742	137.41667
150.896	168.41667
155.046	207.41667
159.193	333.75
163.336	584.08333
167.476	1096.08333
171.613	2010.08333
175.746	3354.08333
179.875	4954.75
184.002	6470.08333
188.124	7418.08333
192.244	7679.41667
196.36	7530.41667
200.472	7198.41667
204.581	6890.08333
208.687	6582.75
212.79	6414.75
216.889	6236.08333
220.984	6173.75
225.077	6090.08333
229.165	5990.08333
233.251	5911.75
237.333	5848.08333
241.412	5713.75
245.487	5605.41667
249.559	5498.41667
253.628	5423.08333
257.694	5356.75
261.756	5284.41667
265.814	5164.08333
269.87	4993.08333
273.922	4778.08333
277.97	4721.08333
282.016	4651.08333
286.058	4658.41667
290.097	4729.41667
294.132	4737.41667
298.164	4673.08333
302.193	4490.75
306.219	4190.75
310.241	3909.75
314.26	3629.75
318.276	3392.08333
322.288	3260.41667
326.297	3135.75
330.303	3031.08333
334.305	2965.08333
338.305	2898.75
342.301	2870.08333
346.294	2842.75
350.283	2802.08333
354.269	2766.41667
358.252	2741.08333
362.232	2712.75
366.209	2708.08333
370.182	2663.08333
374.152	2650.08333
378.119	2645.75
382.083	2651.41667
386.043	2668.08333
390	2631.41667
393.954	2658.41667
397.905	2651.08333
401.852	2643.08333
405.797	2580.08333
409.738	2614.08333
413.676	2600.08333
417.61	2620.75
421.542	2560.08333
425.47	2514.08333
429.396	2499.75
433.318	2478.41667
437.236	2453.41667
441.152	2483.75
445.065	2412.08333
448.974	2437.08333
452.88	2391.41667
456.783	2368.75
460.683	2347.75
464.58	2365.08333
468.473	2360.41667
472.364	2360.08333
476.251	2380.41667
480.135	2382.08333
484.016	2430.75
487.894	2438.75
491.769	2421.75
495.641	2447.41667
499.509	2436.41667
503.375	2431.41667
507.237	2419.41667
511.096	2438.41667
514.952	2498.08333
518.805	2577.08333
522.655	2600.75
526.502	2487.08333
530.346	2434.75
534.187	2441.75
538.024	2447.41667
541.859	2443.41667
545.69	2476.08333
549.519	2449.08333
553.344	2441.08333
557.166	2409.75
560.985	2372.08333
564.802	2324.75
568.615	2312.08333
572.425	2273.75
576.232	2270.08333
580.036	2262.41667
583.836	2261.08333
587.634	2280.75
591.429	2267.75
595.221	2326.41667
599.01	2343.41667
602.796	2357.41667
606.578	2375.41667
610.358	2372.41667
614.135	2360.41667
617.909	2344.08333
621.679	2318.08333
625.447	2311.41667
629.212	2303.08333
632.973	2332.41667
636.732	2318.08333
640.488	2316.41667
644.241	2275.75
647.991	2273.75
651.737	2289.75
655.481	2279.08333
659.222	2281.08333
662.96	2247.08333
666.695	2268.41667
670.427	2305.75
674.156	2314.75
677.882	2288.41667
681.605	2286.75
685.325	2240.75
689.043	2264.08333
692.757	2259.08333
696.468	2271.08333
700.177	2246.75
703.882	2240.75
707.585	2225.75
711.284	2229.41667
714.981	2228.75
718.675	2208.75
722.366	2220.41667
726.054	2204.41667
729.739	2209.75
733.421	2223.08333
737.1	2217.08333
740.777	2237.75
744.45	2262.08333
748.121	2265.75
751.789	2311.75
755.453	2287.41667
759.115	2298.75
762.774	2325.75
766.431	2346.41667
770.084	2361.08333
773.734	2361.41667
777.382	2422.41667
781.027	2404.41667
784.669	2454.75
788.308	2436.41667
791.944	2447.75
795.577	2487.75
799.208	2476.08333
802.835	2488.41667
806.46	2497.08333
810.082	2537.08333
813.701	2507.41667
817.317	2531.75
820.931	2517.75
824.542	2516.08333
828.149	2507.75
831.754	2491.75
835.357	2502.75
838.956	2512.41667
842.553	2501.08333
846.146	2479.41667
849.737	2460.41667
853.326	2440.08333
856.911	2468.08333
860.493	2489.41667
864.073	2509.08333
867.65	2580.41667
871.225	2582.08333
874.796	2577.08333
878.365	2570.08333
881.931	2583.41667
885.494	2609.75
889.054	2608.75
892.612	2582.41667
896.166	2546.75
899.719	2547.41667
903.268	2519.08333
906.814	2496.41667
910.358	2466.08333
913.899	2464.41667
917.438	2457.75
920.973	2438.08333
924.506	2473.41667
928.036	2513.08333
931.564	2536.41667
935.088	2570.75
938.61	2580.75
942.129	2623.08333
945.646	2674.08333
949.16	2726.08333
952.671	2744.41667
956.179	2739.08333
959.685	2721.75
963.188	2709.08333
966.688	2684.75
970.185	2613.41667
973.68	2555.75
977.173	2524.41667
980.662	2481.08333
984.149	2505.41667
987.633	2470.75
991.114	2533.75
994.593	2580.08333
998.069	2636.75
1001.542	2697.08333
1005.013	2662.75
1008.481	2524.75
1011.947	2465.08333
1015.409	2479.08333
1018.869	2457.75
1022.327	2446.75
1025.782	2432.08333
1029.234	2438.75
1032.683	2386.41667
1036.13	2321.41667
1039.574	2237.08333
1043.016	2193.75
1046.455	2141.08333
1049.891	2147.08333
1053.325	2138.08333
1056.756	2142.08333
1060.184	2155.41667
1063.61	2166.08333
1067.033	2168.41667
1070.454	2164.75
1073.872	2216.75
1077.287	2214.08333
1080.7	2184.41667
1084.11	2171.75
1087.517	2175.41667
1090.922	2140.75
1094.325	2112.08333
1097.724	2120.41667
1101.122	2125.41667
1104.516	2107.08333
1107.908	2103.75
1111.298	2140.08333
1114.684	2154.75
1118.069	2184.75
1121.45	2211.75
1124.83	2201.08333
1128.206	2256.75
1131.58	2266.75
1134.951	2319.41667
1138.32	2393.08333
1141.687	2487.08333
1145.05	2511.41667
1148.412	2507.08333
1151.77	2490.75
1155.126	2499.41667
1158.48	2482.08333
1161.831	2503.41667
1165.18	2504.41667
1168.525	2548.08333
1171.869	2569.75
1175.21	2594.41667
1178.548	2601.75
1181.884	2637.75
1185.217	2661.41667
1188.548	2721.75
1191.877	2756.41667
1195.202	2820.41667
1198.526	2895.41667
1201.846	2909.75
1205.165	2932.41667
1208.48	2898.08333
1211.794	2885.75
1215.104	2899.41667
1218.413	2883.41667
1221.719	2874.41667
1225.022	2838.41667
1228.323	2816.75
1231.621	2797.41667
1234.917	2803.08333
1238.21	2786.75
1241.501	2782.41667
1244.79	2775.41667
1248.076	2786.41667
1251.359	2794.75
1254.64	2866.08333
1257.919	2869.08333
1261.195	2920.75
1264.468	2969.41667
1267.74	2991.75
1271.008	3015.41667
1274.275	3027.41667
1277.538	2977.08333
1280.8	2965.75
1284.059	2935.08333
1287.315	2997.41667
1290.569	3019.08333
1293.821	3033.08333
1297.07	3058.75
1300.317	3046.08333
1303.562	3025.75
1306.803	2995.75
1310.043	3013.41667
1313.28	2975.75
1316.515	2946.08333
1319.747	2911.08333
1322.977	2923.75
1326.204	2878.41667
1329.429	2797.75
1332.652	2798.75
1335.872	2777.41667
1339.09	2754.41667
1342.306	2745.08333
1345.519	2701.08333
1348.729	2678.08333
1351.938	2671.75
1355.144	2653.08333
1358.347	2624.41667
1361.548	2619.75
1364.747	2619.75
1367.944	2607.75
1371.138	2599.41667
1374.329	2602.75
1377.518	2609.41667
1380.705	2653.75
1383.89	2621.41667
1387.072	2556.41667
1390.252	2463.08333
1393.429	2348.75
1396.605	2316.08333
1399.777	2231.75
1402.948	2205.08333
1406.116	2200.75
1409.282	2205.75
1412.445	2158.41667
1415.606	2189.08333
1418.765	2227.08333
1421.921	2293.75
1425.075	2347.08333
1428.227	2392.08333
1431.376	2502.08333
1434.524	2578.41667
1437.668	2660.41667
1440.811	2687.08333
1443.951	2703.41667
1447.089	2699.75
1450.224	2723.75
1453.357	2706.41667
1456.488	2687.08333
1459.617	2646.08333
1462.743	2594.08333
1465.867	2526.08333
1468.989	2491.08333
1472.108	2469.75
1475.225	2416.75
1478.34	2406.75
1481.453	2369.08333
1484.563	2386.75
1487.671	2436.08333
1490.776	2473.41667
1493.88	2498.41667
1496.981	2533.08333
1500.08	2565.08333
1503.176	2606.08333
1506.271	2621.41667
1509.363	2655.41667
1512.452	2659.75
1515.54	2699.75
1518.625	2736.08333
1521.708	2810.75
1524.789	2883.08333
1527.867	2987.75
1530.944	3121.41667
1534.018	3253.75
1537.089	3394.41667
1540.159	3439.75
1543.226	3443.75
1546.291	3397.08333
1549.354	3313.08333
1552.415	3247.41667
1555.473	3155.75
1558.529	3101.08333
1561.583	3064.41667
1564.634	3055.08333
1567.684	3031.75
1570.731	3054.41667
1573.776	3082.75
1576.819	3101.08333
1579.859	3164.75
1582.898	3194.41667
1585.934	3233.75
1588.968	3236.41667
1591.999	3229.75
1595.029	3233.41667
1598.056	3251.08333
1601.081	3283.75
1604.104	3261.08333
1607.125	3246.08333
1610.144	3170.75
1613.16	3099.08333
1616.174	3026.75
1619.186	2952.08333
1622.196	2877.75
1625.203	2810.75
1628.209	2758.41667
1631.212	2747.08333
1634.213	2721.08333
1637.212	2724.41667
1640.209	2681.08333
1643.203	2613.08333
1646.196	2537.75
1649.186	2415.41667
1652.174	2373.08333
1655.16	2284.41667
1658.144	2224.08333
1661.125	2102.75
1664.105	2023.41667
1667.082	1934.41667
1670.057	1842.41667
1673.03	1736.41667
1676.001	1626.08333
1678.97	1540.41667
1681.937	1445.41667
1684.901	1367.08333
1687.863	1330.75
1690.824	1284.08333
1693.782	1249.08333
1696.738	1187.41667
1699.692	1162.75
1702.643	1131.75
1705.593	1105.41667
1708.54	1111.08333
1711.486	1094.08333
1714.429	1074.41667
1717.37	1080.41667
1720.309	1046.08333
1723.246	1063.08333
1726.181	1023.41667
1729.113	1021.75
1732.044	1014.41667
1734.972	1015.41667
1737.899	1017.08333
1740.823	1009.75
1743.745	978.41667
1746.665	962.41667
1749.583	942.75
1752.499	929.08333
1755.413	933.75
1758.325	900.41667
1761.235	914.41667
1764.142	885.08333
1767.048	869.41667
1769.951	886.41667
1772.852	880.08333
1775.752	881.75
1778.649	883.75
1781.544	889.75
1784.437	848.08333
1787.328	851.75
1790.217	845.75
1793.104	820.08333
1795.989	836.08333
1798.872	812.08333
1801.753	831.08333
1804.631	815.41667
1807.508	831.08333
1810.383	815.75
1813.255	821.08333
1816.126	810.08333
1818.994	809.75
1821.861	800.08333
1824.725	800.75
1827.587	810.41667
1830.448	788.08333
1833.306	775.08333
1836.162	783.08333
1839.017	773.75
1841.869	778.08333
1844.719	773.75
1847.567	763.75
1850.414	765.75
1853.258	765.08333
1856.1	770.75
1858.94	766.08333
1861.778	753.75
1864.614	742.08333
1867.448	757.08333
1870.28	739.41667
1873.111	773.75
1875.939	755.41667
1878.765	775.08333
1881.589	752.75
1884.411	748.75
1887.231	745.75
1890.049	740.41667
1892.865	745.41667
1895.68	731.08333
1898.492	749.08333
1901.302	736.75
1904.11	736.08333
1906.916	725.75
1909.721	711.41667
1912.523	723.41667
1915.323	709.75
1918.122	701.75
1920.918	707.41667
1923.712	709.75
1926.505	700.75
1929.295	701.41667
1932.084	709.41667
1934.87	706.75
1937.655	700.75
1940.438	697.75
1943.218	694.75
1945.997	703.75
1948.774	711.41667
1951.549	707.41667
1954.322	692.08333
1957.093	701.75
1959.862	684.08333
1962.629	682.41667
1965.394	684.41667
1968.157	667.08333
1970.918	680.75
1973.678	663.41667
1976.435	688.41667
1979.19	673.75
1981.944	658.75
1984.696	670.08333
1987.445	649.41667
1990.193	657.08333
1992.939	685.41667
1995.683	656.08333
1998.425	642.08333
2001.165	681.75
2003.903	652.75
2006.639	649.08333
2009.374	662.75
2012.106	663.08333
2014.837	635.75
2017.566	643.41667
2020.292	665.41667
2023.017	647.41667
2025.74	647.08333
2028.461	639.75
2031.18	643.75
2033.898	633.08333
2036.613	636.08333
2039.327	643.75
2042.038	633.75
2044.748	625.08333
2047.456	638.08333
2050.162	623.08333
2052.866	629.75
2055.568	643.75
2058.268	625.41667
2060.967	629.08333
2063.663	628.41667
2066.358	628.75
2069.051	626.75
2071.742	629.75
2074.431	631.75
2077.118	627.75
2079.804	606.08333
2082.487	617.08333
2085.169	630.08333
2087.849	645.75
2090.527	620.75
2093.203	619.75
2095.877	635.41667
2098.55	630.75
2101.22	640.41667
2103.889	651.08333
2106.556	654.75
2109.221	671.08333
2111.884	678.41667
2114.546	745.75
2117.205	773.75
2119.863	846.41667
2122.519	875.41667
2125.173	937.08333
2127.825	983.08333
2130.475	987.08333
2133.124	943.41667
2135.771	917.75
2138.416	869.75
2141.059	819.41667
2143.7	789.08333
2146.339	736.41667
2148.977	702.75
2151.613	699.08333
2154.247	670.08333
2156.879	650.08333
2159.51	645.75
2162.138	627.75
2164.765	630.75
2167.39	605.08333
2170.013	630.08333
2172.634	603.75
2175.254	605.08333
2177.872	635.41667
2180.488	594.41667
2183.102	598.08333
2185.714	581.41667
2188.325	572.75
2190.934	575.08333
2193.541	572.41667
2196.146	568.41667
2198.75	564.75
2201.351	563.41667
2203.951	545.41667
2206.549	563.08333
2209.146	554.75
2211.74	549.75
2214.333	559.75
2216.924	531.08333
2219.514	544.08333
2222.101	542.41667
2224.687	557.08333
2227.271	536.75
2229.853	533.41667
2232.433	537.75
2235.012	553.41667
2237.589	543.75
2240.164	555.41667
2242.738	535.41667
2245.309	531.75
2247.879	546.75
2250.448	542.41667
2253.014	512.75
2255.579	502.08333
2258.142	518.08333
2260.703	506.41667
2263.262	520.75
2265.82	511.41667
2268.376	507.41667
2270.93	502.08333
2273.483	499.41667
2276.033	507.75
2278.583	496.08333
2281.13	503.41667
2283.675	495.41667
2286.219	506.08333
2288.761	502.41667
2291.302	502.75
2293.841	504.41667
2296.377	486.41667
2298.913	483.41667
2301.446	508.75
2303.978	492.75
2306.508	497.08333
2309.037	494.08333
2311.563	497.75
2314.088	496.08333
2316.612	466.41667
2319.133	496.41667
2321.653	486.41667
2324.171	481.75
2326.688	495.75
2329.202	483.75
2331.715	483.41667
2334.227	481.41667
2336.736	489.08333
2339.244	478.08333
2341.751	476.41667
2344.255	483.41667
2346.758	478.41667
2349.259	462.41667
2351.759	476.08333
2354.257	473.75
2356.753	471.75
2359.247	468.75
2361.74	480.41667
2364.231	475.08333
2366.721	478.75
2369.209	470.08333
2371.695	478.41667
2374.179	475.08333
2376.662	468.08333
2379.143	488.41667
2381.622	470.41667
2384.1	486.41667
2386.576	476.75
2389.051	489.75
2391.524	485.41667
2393.995	477.08333
2396.464	471.75
2398.932	465.75
2401.398	468.75
2403.863	477.41667
2406.325	459.75
2408.787	468.75
2411.246	463.08333
2413.704	469.75
2416.16	466.75
2418.615	465.41667
2421.068	481.75
2423.519	475.41667
2425.969	471.75
2428.417	471.75
2430.863	482.08333
2433.308	475.75
2435.751	473.75
2438.193	466.41667
2440.633	472.08333
2443.071	485.75
2445.508	466.75
2447.943	458.08333
2450.376	459.08333
2452.808	468.75
2455.238	466.08333
2457.667	502.41667
2460.093	464.41667
2462.519	455.08333
2464.942	466.08333
2467.365	470.75
2469.785	475.41667
2472.204	468.08333
2474.621	463.41667
2477.037	493.75
2479.451	459.08333
2481.863	457.75
2484.274	456.75
2486.683	472.75
2489.091	473.75
2491.497	473.75
2493.901	479.41667
2496.304	468.75
2498.705	475.75
2501.105	462.08333
2503.503	498.08333
2505.899	456.75
2508.294	488.08333
2510.687	477.41667
2513.079	470.41667
2515.469	448.75
2517.858	467.41667
2520.245	478.75
2522.63	465.08333
2525.014	467.75
2527.396	457.75
2529.776	454.41667
2532.156	480.08333
2534.533	462.75
2536.909	453.41667
2539.283	449.41667
2541.656	456.08333
2544.027	474.41667
2546.397	460.75
2548.765	468.41667
2551.131	465.08333
2553.496	469.08333
2555.86	472.08333
2558.221	471.08333
2560.582	467.08333
2562.94	461.75
2565.298	469.41667
2567.653	479.41667
2570.007	461.75
2572.36	480.75
2574.711	474.08333
2577.06	485.08333
2579.408	475.08333
2581.754	478.41667
2584.099	475.08333
2586.442	468.75
2588.784	474.75
2591.124	476.08333
2593.463	477.08333
2595.8	486.08333
2598.135	474.41667
2600.469	471.41667
2602.802	490.41667
2605.133	489.75
2607.462	467.41667
2609.79	465.75
2612.116	485.08333
2614.441	488.75
2616.764	492.08333
2619.086	475.75
2621.406	466.41667
2623.725	496.08333
2626.042	478.08333
2628.358	475.75
2630.672	476.75
2632.985	492.41667
2635.296	488.75
2637.606	495.75
2639.914	487.75
2642.22	482.08333
2644.525	486.75
2646.829	493.41667
2649.131	498.08333
2651.432	506.75
2653.731	498.41667
2656.028	509.41667
2658.324	515.08333
2660.619	505.41667
2662.912	508.75
2665.204	497.41667
2667.494	511.41667
2669.782	502.08333
2672.07	514.75
2674.355	510.41667
2676.639	502.75
2678.922	499.75
2681.203	501.08333
2683.483	500.75
2685.761	502.41667
2688.038	512.75
2690.313	531.41667
2692.587	519.75
2694.859	502.41667
2697.13	513.75
2699.399	530.75
2701.667	528.41667
2703.933	534.08333
2706.198	533.08333
2708.461	540.75
2710.723	535.41667
2712.984	538.41667
2715.243	534.41667
2717.5	530.75
2719.757	547.75
2722.011	544.41667
2724.264	551.41667
2726.516	572.75
2728.766	542.75
2731.015	556.41667
2733.262	558.08333
2735.508	565.08333
2737.753	563.41667
2739.996	548.41667
2742.237	541.75
2744.477	567.08333
2746.716	560.41667
2748.953	550.75
2751.189	556.08333
2753.423	542.08333
2755.656	535.41667
2757.887	530.41667
2760.117	540.75
2762.346	535.08333
2764.573	529.41667
2766.798	546.08333
2769.022	539.75
2771.245	542.08333
2773.467	552.41667
2775.686	562.08333
2777.905	563.08333
2780.122	562.41667
2782.337	554.41667
2784.552	565.75
2786.764	557.41667
2788.976	573.08333
2791.186	567.08333
2793.394	585.41667
2795.601	581.75
2797.807	598.41667
2800.011	598.41667
2802.214	601.08333
2804.415	600.41667
2806.615	597.08333
2808.814	607.08333
2811.011	616.75
2813.206	613.75
2815.401	625.75
2817.594	628.08333
2819.785	640.75
2821.975	634.41667
2824.164	631.08333
2826.351	645.41667
2828.537	676.08333
2830.722	677.08333
2832.905	663.41667
2835.086	700.75
2837.267	731.75
2839.445	727.75
2841.623	742.08333
2843.799	757.75
2845.974	789.41667
2848.147	811.75
2850.319	827.08333
2852.489	852.41667
2854.659	878.08333
2856.826	876.75
2858.993	912.41667
2861.158	896.08333
2863.321	870.41667
2865.483	903.41667
2867.644	895.75
2869.804	892.08333
2871.962	886.41667
2874.118	888.75
2876.274	905.08333
2878.428	900.75
2880.58	892.75
2882.731	875.08333
2884.881	879.75
2887.03	889.08333
2889.177	889.41667
2891.322	897.08333
2893.467	898.08333
2895.61	891.08333
2897.751	914.08333
2899.892	893.41667
2902.03	902.75
2904.168	907.08333
2906.304	925.75
2908.439	939.75
2910.572	922.75
2912.704	947.41667
2914.835	936.75
2916.965	920.75
2919.093	946.08333
2921.219	933.08333
2923.345	951.08333
2925.469	925.08333
2927.591	913.08333
2929.712	903.75
2931.832	894.08333
2933.951	878.08333
2936.068	869.75
2938.184	847.75
2940.299	839.75
2942.412	823.41667
2944.524	805.41667
2946.634	803.75
2948.744	745.41667
2950.851	786.75
2952.958	748.08333
2955.063	746.41667
2957.167	738.08333
2959.269	714.41667
2961.371	738.75
2963.471	694.41667
2965.569	706.41667
2967.666	692.08333
2969.762	683.08333
2971.857	669.08333
2973.95	641.41667
2976.042	657.08333
2978.133	638.08333
2980.222	630.08333
2982.31	615.75
2984.396	600.41667
2986.482	609.75
2988.566	591.08333
2990.648	590.41667
2992.73	586.41667
2994.81	581.08333
2996.889	601.41667
2998.966	595.41667
3001.042	599.41667
3003.117	579.41667
3005.191	596.75
3007.263	587.41667
3009.334	581.08333
3011.403	578.08333
3013.472	566.08333
3015.539	557.08333
3017.604	571.75
3019.669	528.08333
3021.732	545.41667
3023.794	542.08333
3025.854	535.75
3027.914	544.41667
3029.971	540.41667
3032.028	535.08333
3034.083	540.75
3036.137	531.08333
3038.19	512.41667
3040.242	497.75
3042.292	501.08333
3044.341	504.75
3046.388	502.41667
3048.435	471.75
3050.48	499.08333
3052.524	483.75
3054.566	478.75
3056.607	482.75
3058.647	468.08333
3060.686	447.75
3062.723	443.08333
3064.759	423.41667
3066.794	-0.25
3068.828	4.08333
3070.86	2.08333
