-0.839	471.83333
3.438	545.5
7.711	165.83333
11.981	60.5
16.247	45.5
20.509	45.83333
24.768	46.5
29.024	54.83333
33.276	41.5
37.524	49.5
41.769	46.83333
46.01	35.83333
50.247	44.5
54.481	59.16667
58.712	60.83333
62.939	48.5
67.162	61.83333
71.382	55.5
75.599	43.5
79.812	65.83333
84.021	83.83333
88.227	60.16667
92.429	60.5
96.628	52.5
100.823	73.83333
105.015	72.5
109.204	69.16667
113.388	72.83333
117.57	75.16667
121.748	91.83333
125.922	83.83333
130.093	101.5
134.261	97.16667
138.425	104.5
142.585	147.5
146.742	137.5
150.896	169.5
155.046	212.5
159.193	341.5
163.336	593.83333
167.476	1101.5
171.613	2025.83333
175.746	3379.16667
179.875	4998.83333
184.002	6509.5
188.124	7471.16667
192.244	7768.83333
196.36	7602.16667
200.472	7223.5
204.581	6979.5
208.687	6693.83333
212.79	6482.83333
216.889	6370.83333
220.984	6258.83333
225.077	6186.83333
229.165	6123.83333
233.251	6052.16667
237.333	5959.5
241.412	5809.16667
245.487	5693.16667
249.559	5601.5
253.628	5559.16667
257.694	5490.83333
261.756	5406.83333
265.814	5292.83333
269.87	5074.5
273.922	4954.83333
277.97	4800.5
282.016	4761.83333
286.058	4768.16667
290.097	4847.5
294.132	4813.83333
298.164	4796.5
302.193	4589.16667
306.219	4319.16667
310.241	4001.5
314.26	3705.16667
318.276	3490.83333
322.288	3348.5
326.297	3196.5
330.303	3147.5
334.305	3052.5
338.305	3010.5
342.301	2965.16667
346.294	2944.83333
350.283	2921.83333
354.269	2882.16667
358.252	2856.5
362.232	2846.5
366.209	2818.83333
370.182	2761.83333
374.152	2772.16667
378.119	2787.5
382.083	2751.16667
386.043	2776.83333
390	2738.83333
393.954	2752.83333
397.905	2777.16667
401.852	2746.5
405.797	2718.16667
409.738	2718.16667
413.676	2722.5
417.61	2740.83333
421.542	2668.5
425.47	2641.83333
429.396	2612.16667
433.318	2597.83333
437.236	2570.83333
441.152	2619.5
445.065	2529.83333
448.974	2532.83333
452.88	2519.16667
456.783	2493.83333
460.683	2479.83333
464.58	2498.16667
468.473	2509.5
472.364	2500.16667
476.251	2538.83333
480.135	2507.5
484.016	2567.5
487.894	2547.83333
491.769	2564.16667
495.641	2585.5
499.509	2564.83333
503.375	2559.83333
507.237	2564.5
511.096	2576.83333
514.952	2642.83333
518.805	2681.5
522.655	2722.5
526.502	2654.16667
530.346	2582.16667
534.187	2567.16667
538.024	2586.16667
541.859	2575.5
545.69	2600.5
549.519	2593.83333
553.344	2568.5
557.166	2533.5
560.985	2492.5
564.802	2465.5
568.615	2451.16667
572.425	2380.16667
576.232	2391.83333
580.036	2385.16667
583.836	2400.83333
587.634	2383.5
591.429	2371.83333
595.221	2460.83333
599.01	2458.83333
602.796	2493.83333
606.578	2482.83333
610.358	2514.16667
614.135	2485.83333
617.909	2482.16667
621.679	2455.16667
625.447	2429.5
629.212	2451.5
632.973	2457.5
636.732	2437.5
640.488	2446.83333
644.241	2427.5
647.991	2397.5
651.737	2436.5
655.481	2382.83333
659.222	2389.5
662.96	2391.16667
666.695	2415.16667
670.427	2412.16667
674.156	2433.83333
677.882	2425.5
681.605	2409.5
685.325	2380.5
689.043	2387.5
692.757	2375.16667
696.468	2380.5
700.177	2378.83333
703.882	2352.16667
707.585	2329.83333
711.284	2345.83333
714.981	2346.83333
718.675	2325.83333
722.366	2336.83333
726.054	2319.16667
729.739	2379.83333
733.421	2360.5
737.1	2337.5
740.777	2393.83333
744.45	2372.83333
748.121	2383.5
751.789	2420.83333
755.453	2413.5
759.115	2416.16667
762.774	2426.5
766.431	2454.5
770.084	2471.16667
773.734	2478.16667
777.382	2529.83333
781.027	2545.16667
784.669	2559.83333
788.308	2562.16667
791.944	2560.5
795.577	2575.83333
799.208	2591.5
802.835	2601.83333
806.46	2632.5
810.082	2645.83333
813.701	2623.5
817.317	2654.5
820.931	2646.5
824.542	2641.83333
828.149	2602.83333
831.754	2606.83333
835.357	2595.83333
838.956	2628.83333
842.553	2607.16667
846.146	2603.5
849.737	2554.5
853.326	2569.16667
856.911	2560.16667
860.493	2570.16667
864.073	2604.83333
867.65	2664.83333
871.225	2691.83333
874.796	2661.16667
878.365	2657.16667
881.931	2697.5
885.494	2679.5
889.054	2681.16667
892.612	2673.83333
896.166	2653.5
899.719	2622.16667
903.268	2598.16667
906.814	2589.16667
910.358	2571.16667
913.899	2551.16667
917.438	2545.16667
920.973	2507.5
924.506	2562.83333
928.036	2599.16667
931.564	2627.83333
935.088	2679.16667
938.61	2686.16667
942.129	2729.16667
945.646	2770.83333
949.16	2823.83333
952.671	2834.16667
956.179	2854.83333
959.685	2815.5
963.188	2810.5
966.688	2792.83333
970.185	2691.83333
973.68	2654.16667
977.173	2627.83333
980.662	2600.16667
984.149	2595.83333
987.633	2560.5
991.114	2628.16667
994.593	2676.83333
998.069	2732.16667
1001.542	2813.83333
1005.013	2764.16667
1008.481	2603.5
1011.947	2571.5
1015.409	2560.83333
1018.869	2565.5
1022.327	2545.16667
1025.782	2529.5
1029.234	2517.16667
1032.683	2493.83333
1036.13	2414.83333
1039.574	2326.5
1043.016	2299.5
1046.455	2214.5
1049.891	2211.16667
1053.325	2243.5
1056.756	2231.83333
1060.184	2231.16667
1063.61	2246.5
1067.033	2252.83333
1070.454	2277.16667
1073.872	2310.16667
1077.287	2278.5
1080.7	2266.83333
1084.11	2258.83333
1087.517	2265.16667
1090.922	2230.16667
1094.325	2204.83333
1097.724	2183.16667
1101.122	2198.5
1104.516	2168.16667
1107.908	2188.83333
1111.298	2226.5
1114.684	2245.16667
1118.069	2253.83333
1121.45	2288.16667
1124.83	2280.5
1128.206	2291.5
1131.58	2332.5
1134.951	2369.5
1138.32	2451.16667
1141.687	2537.83333
1145.05	2600.83333
1148.412	2587.16667
1151.77	2565.5
1155.126	2576.5
1158.48	2556.83333
1161.831	2546.83333
1165.18	2558.16667
1168.525	2606.16667
1171.869	2623.83333
1175.21	2644.16667
1178.548	2688.83333
1181.884	2705.83333
1185.217	2723.16667
1188.548	2810.83333
1191.877	2821.5
1195.202	2918.16667
1198.526	2977.16667
1201.846	3007.5
1205.165	2995.5
1208.48	2985.83333
1211.794	2976.16667
1215.104	2976.16667
1218.413	2962.5
1221.719	2971.16667
1225.022	2941.83333
1228.323	2906.83333
1231.621	2877.5
1234.917	2852.5
1238.21	2886.5
1241.501	2845.5
1244.79	2847.5
1248.076	2867.83333
1251.359	2881.5
1254.64	2948.83333
1257.919	2931.5
1261.195	2998.16667
1264.468	3045.83333
1267.74	3064.16667
1271.008	3082.16667
1274.275	3083.83333
1277.538	3053.83333
1280.8	3039.83333
1284.059	3038.16667
1287.315	3073.5
1290.569	3068.5
1293.821	3081.16667
1297.07	3114.16667
1300.317	3114.5
1303.562	3075.5
1306.803	3078.16667
1310.043	3068.83333
1313.28	3037.83333
1316.515	3022.16667
1319.747	3011.16667
1322.977	2970.16667
1326.204	2938.83333
1329.429	2877.5
1332.652	2869.5
1335.872	2862.83333
1339.09	2833.83333
1342.306	2821.5
1345.519	2814.83333
1348.729	2775.16667
1351.938	2768.5
1355.144	2749.5
1358.347	2703.83333
1361.548	2699.83333
1364.747	2694.83333
1367.944	2657.83333
1371.138	2683.83333
1374.329	2685.83333
1377.518	2708.16667
1380.705	2709.83333
1383.89	2723.16667
1387.072	2632.5
1390.252	2516.16667
1393.429	2431.16667
1396.605	2366.83333
1399.777	2290.5
1402.948	2284.83333
1406.116	2251.16667
1409.282	2250.83333
1412.445	2237.83333
1415.606	2275.16667
1418.765	2305.16667
1421.921	2340.16667
1425.075	2407.5
1428.227	2447.83333
1431.376	2561.83333
1434.524	2628.5
1437.668	2719.5
1440.811	2758.83333
1443.951	2775.83333
1447.089	2745.83333
1450.224	2754.83333
1453.357	2751.16667
1456.488	2745.83333
1459.617	2688.5
1462.743	2657.83333
1465.867	2585.5
1468.989	2564.16667
1472.108	2511.83333
1475.225	2464.83333
1478.34	2418.16667
1481.453	2417.83333
1484.563	2448.16667
1487.671	2474.83333
1490.776	2505.16667
1493.88	2554.16667
1496.981	2578.16667
1500.08	2605.83333
1503.176	2632.16667
1506.271	2678.16667
1509.363	2700.5
1512.452	2724.83333
1515.54	2773.5
1518.625	2787.5
1521.708	2874.83333
1524.789	2952.5
1527.867	3067.5
1530.944	3192.83333
1534.018	3314.16667
1537.089	3486.16667
1540.159	3520.16667
1543.226	3501.16667
1546.291	3453.83333
1549.354	3378.5
1552.415	3269.16667
1555.473	3206.16667
1558.529	3145.83333
1561.583	3122.83333
1564.634	3089.83333
1567.684	3074.83333
1570.731	3086.5
1573.776	3147.83333
1576.819	3174.83333
1579.859	3185.83333
1582.898	3224.16667
1585.934	3265.83333
1588.968	3278.16667
1591.999	3255.5
1595.029	3262.16667
1598.056	3315.5
1601.081	3309.83333
1604.104	3317.5
1607.125	3290.5
1610.144	3202.83333
1613.16	3156.16667
1616.174	3058.5
1619.186	3004.5
1622.196	2942.83333
1625.203	2874.83333
1628.209	2832.83333
1631.212	2819.5
1634.213	2821.16667
1637.212	2822.83333
1640.209	2766.83333
1643.203	2703.16667
1646.196	2637.5
1649.186	2517.16667
1652.174	2425.5
1655.16	2365.83333
1658.144	2290.16667
1661.125	2177.83333
1664.105	2102.83333
1667.082	2008.16667
1670.057	1899.83333
1673.03	1782.16667
1676.001	1678.16667
1678.97	1590.16667
1681.937	1479.5
1684.901	1414.83333
1687.863	1361.5
1690.824	1304.83333
1693.782	1301.83333
1696.738	1246.16667
1699.692	1203.83333
1702.643	1172.83333
1705.593	1165.5
1708.54	1152.5
1711.486	1144.83333
1714.429	1113.16667
1717.37	1107.16667
1720.309	1077.5
1723.246	1070.16667
1726.181	1064.16667
1729.113	1082.5
1732.044	1051.83333
1734.972	1040.5
1737.899	1036.5
1740.823	1060.5
1743.745	1015.5
1746.665	999.5
1749.583	987.5
1752.499	981.5
1755.413	968.5
1758.325	949.16667
1761.235	944.5
1764.142	938.5
1767.048	908.5
1769.951	923.83333
1772.852	921.83333
1775.752	914.16667
1778.649	935.16667
1781.544	920.5
1784.437	889.16667
1787.328	896.5
1790.217	876.5
1793.104	864.16667
1795.989	868.5
1798.872	851.16667
1801.753	866.83333
1804.631	864.5
1807.508	861.83333
1810.383	847.83333
1813.255	846.83333
1816.126	853.5
1818.994	852.16667
1821.861	840.5
1824.725	835.5
1827.587	822.83333
1830.448	827.16667
1833.306	815.5
1836.162	822.16667
1839.017	820.83333
1841.869	808.83333
1844.719	809.16667
1847.567	794.5
1850.414	790.83333
1853.258	796.83333
1856.1	806.83333
1858.94	804.5
1861.778	797.5
1864.614	798.5
1867.448	782.83333
1870.28	771.16667
1873.111	793.16667
1875.939	767.83333
1878.765	787.5
1881.589	773.83333
1884.411	768.16667
1887.231	774.16667
1890.049	779.83333
1892.865	783.5
1895.68	766.16667
1898.492	770.83333
1901.302	766.16667
1904.11	760.16667
1906.916	745.83333
1909.721	738.5
1912.523	741.83333
1915.323	747.83333
1918.122	744.16667
1920.918	763.83333
1923.712	728.16667
1926.505	726.16667
1929.295	725.5
1932.084	737.16667
1934.87	741.16667
1937.655	730.83333
1940.438	728.16667
1943.218	729.83333
1945.997	739.16667
1948.774	746.16667
1951.549	731.83333
1954.322	716.83333
1957.093	714.83333
1959.862	715.5
1962.629	710.5
1965.394	704.16667
1968.157	709.16667
1970.918	698.16667
1973.678	698.5
1976.435	704.5
1979.19	699.83333
1981.944	679.16667
1984.696	697.83333
1987.445	681.16667
1990.193	694.83333
1992.939	703.5
1995.683	682.16667
1998.425	678.16667
2001.165	700.83333
2003.903	671.16667
2006.639	680.83333
2009.374	686.5
2012.106	684.16667
2014.837	656.16667
2017.566	683.16667
2020.292	674.83333
2023.017	681.16667
2025.74	680.83333
2028.461	667.83333
2031.18	665.16667
2033.898	657.5
2036.613	670.83333
2039.327	655.83333
2042.038	651.83333
2044.748	642.16667
2047.456	663.5
2050.162	645.83333
2052.866	641.83333
2055.568	657.83333
2058.268	653.83333
2060.967	651.83333
2063.663	642.83333
2066.358	638.16667
2069.051	636.83333
2071.742	642.5
2074.431	650.5
2077.118	631.83333
2079.804	633.5
2082.487	639.5
2085.169	648.16667
2087.849	663.83333
2090.527	632.16667
2093.203	644.83333
2095.877	649.83333
2098.55	648.16667
2101.22	672.16667
2103.889	673.16667
2106.556	671.16667
2109.221	683.16667
2111.884	706.16667
2114.546	747.5
2117.205	801.5
2119.863	865.5
2122.519	907.5
2125.173	963.5
2127.825	1010.5
2130.475	1019.16667
2133.124	971.16667
2135.771	928.83333
2138.416	892.83333
2141.059	839.16667
2143.7	804.16667
2146.339	763.16667
2148.977	713.5
2151.613	717.83333
2154.247	685.83333
2156.879	670.83333
2159.51	656.5
2162.138	651.83333
2164.765	648.83333
2167.39	632.16667
2170.013	635.16667
2172.634	624.16667
2175.254	623.16667
2177.872	656.83333
2180.488	603.16667
2183.102	615.5
2185.714	593.83333
2188.325	574.16667
2190.934	596.83333
2193.541	593.16667
2196.146	593.16667
2198.75	581.16667
2201.351	571.83333
2203.951	567.16667
2206.549	579.5
2209.146	578.16667
2211.74	569.5
2214.333	562.5
2216.924	541.5
2219.514	565.16667
2222.101	560.5
2224.687	572.16667
2227.271	562.83333
2229.853	550.16667
2232.433	536.16667
2235.012	576.16667
2237.589	556.16667
2240.164	565.83333
2242.738	551.83333
2245.309	538.16667
2247.879	546.16667
2250.448	560.83333
2253.014	541.83333
2255.579	520.5
2258.142	533.5
2260.703	529.83333
2263.262	526.83333
2265.82	521.16667
2268.376	524.16667
2270.93	509.16667
2273.483	512.16667
2276.033	520.83333
2278.583	514.16667
2281.13	504.83333
2283.675	506.5
2286.219	501.83333
2288.761	503.83333
2291.302	507.83333
2293.841	521.83333
2296.377	503.16667
2298.913	507.5
2301.446	519.5
2303.978	505.16667
2306.508	493.16667
2309.037	509.16667
2311.563	504.5
2314.088	505.5
2316.612	482.16667
2319.133	492.5
2321.653	495.83333
2324.171	486.5
2326.688	497.5
2329.202	491.16667
2331.715	484.5
2334.227	494.16667
2336.736	495.5
2339.244	484.83333
2341.751	483.83333
2344.255	505.5
2346.758	490.16667
2349.259	480.5
2351.759	489.16667
2354.257	479.16667
2356.753	483.16667
2359.247	493.5
2361.74	472.83333
2364.231	481.5
2366.721	486.83333
2369.209	479.16667
2371.695	493.16667
2374.179	480.5
2376.662	472.16667
2379.143	486.83333
2381.622	482.83333
2384.1	486.5
2386.576	480.5
2389.051	492.83333
2391.524	498.16667
2393.995	492.5
2396.464	480.83333
2398.932	472.83333
2401.398	474.16667
2403.863	476.5
2406.325	473.16667
2408.787	475.83333
2411.246	468.83333
2413.704	472.5
2416.16	472.5
2418.615	477.5
2421.068	482.5
2423.519	479.5
2425.969	476.16667
2428.417	468.5
2430.863	497.5
2433.308	482.16667
2435.751	479.5
2438.193	475.16667
2440.633	469.83333
2443.071	480.16667
2445.508	471.16667
2447.943	469.16667
2450.376	472.5
2452.808	477.83333
2455.238	463.16667
2457.667	507.5
2460.093	474.83333
2462.519	464.16667
2464.942	462.5
2467.365	473.5
2469.785	484.83333
2472.204	465.83333
2474.621	456.83333
2477.037	492.5
2479.451	458.83333
2481.863	456.5
2484.274	466.5
2486.683	463.5
2489.091	481.16667
2491.497	469.16667
2493.901	479.16667
2496.304	463.16667
2498.705	474.5
2501.105	464.5
2503.503	493.16667
2505.899	463.16667
2508.294	487.83333
2510.687	468.16667
2513.079	464.83333
2515.469	459.5
2517.858	472.83333
2520.245	484.16667
2522.63	469.16667
2525.014	458.16667
2527.396	452.16667
2529.776	462.5
2532.156	475.83333
2534.533	456.83333
2536.909	456.83333
2539.283	456.5
2541.656	458.16667
2544.027	493.16667
2546.397	464.5
2548.765	460.5
2551.131	467.16667
2553.496	470.16667
2555.86	473.5
2558.221	462.83333
2560.582	460.16667
2562.94	458.16667
2565.298	466.16667
2567.653	488.83333
2570.007	463.16667
2572.36	481.83333
2574.711	472.16667
2577.06	480.83333
2579.408	477.16667
2581.754	458.83333
2584.099	475.16667
2586.442	474.5
2588.784	478.5
2591.124	476.83333
2593.463	474.5
2595.8	484.16667
2598.135	467.16667
2600.469	472.16667
2602.802	483.83333
2605.133	479.83333
2607.462	472.83333
2609.79	454.83333
2612.116	477.16667
2614.441	475.83333
2616.764	478.5
2619.086	475.5
2621.406	460.16667
2623.725	492.16667
2626.042	483.16667
2628.358	478.5
2630.672	481.83333
2632.985	498.83333
2635.296	485.83333
2637.606	482.5
2639.914	474.5
2642.22	478.83333
2644.525	482.83333
2646.829	498.83333
2649.131	505.16667
2651.432	506.16667
2653.731	490.5
2656.028	512.5
2658.324	516.16667
2660.619	494.16667
2662.912	505.83333
2665.204	485.83333
2667.494	508.16667
2669.782	495.83333
2672.07	507.83333
2674.355	509.83333
2676.639	501.5
2678.922	503.5
2681.203	505.5
2683.483	495.83333
2685.761	501.16667
2688.038	497.16667
2690.313	524.16667
2692.587	513.5
2694.859	506.83333
2697.13	511.5
2699.399	518.16667
2701.667	524.5
2703.933	530.16667
2706.198	521.16667
2708.461	524.5
2710.723	528.16667
2712.984	529.83333
2715.243	535.83333
2717.5	533.16667
2719.757	549.5
2722.011	541.5
2724.264	550.5
2726.516	554.83333
2728.766	538.16667
2731.015	554.83333
2733.262	551.16667
2735.508	558.16667
2737.753	549.5
2739.996	544.5
2742.237	538.83333
2744.477	554.16667
2746.716	554.16667
2748.953	546.5
2751.189	543.16667
2753.423	532.5
2755.656	535.5
2757.887	526.16667
2760.117	535.16667
2762.346	534.5
2764.573	528.5
2766.798	527.83333
2769.022	535.83333
2771.245	542.16667
2773.467	543.16667
2775.686	539.5
2777.905	549.83333
2780.122	553.16667
2782.337	556.83333
2784.552	557.83333
2786.764	551.5
2788.976	550.16667
2791.186	557.83333
2793.394	567.16667
2795.601	574.5
2797.807	579.83333
2800.011	595.16667
2802.214	597.83333
2804.415	591.5
2806.615	591.5
2808.814	599.83333
2811.011	606.83333
2813.206	602.5
2815.401	615.5
2817.594	625.83333
2819.785	628.16667
2821.975	625.16667
2824.164	633.16667
2826.351	636.83333
2828.537	644.5
2830.722	658.83333
2832.905	646.83333
2835.086	691.16667
2837.267	714.5
2839.445	720.16667
2841.623	737.16667
2843.799	748.5
2845.974	777.83333
2848.147	802.5
2850.319	806.83333
2852.489	843.16667
2854.659	845.16667
2856.826	861.83333
2858.993	877.16667
2861.158	876.5
2863.321	865.83333
2865.483	888.83333
2867.644	893.83333
2869.804	867.83333
2871.962	887.16667
2874.118	887.16667
2876.274	882.5
2878.428	881.5
2880.58	886.16667
2882.731	874.16667
2884.881	882.83333
2887.03	881.16667
2889.177	884.5
2891.322	894.83333
2893.467	884.5
2895.61	884.83333
2897.751	903.16667
2899.892	894.83333
2902.03	901.16667
2904.168	899.16667
2906.304	911.16667
2908.439	930.5
2910.572	920.83333
2912.704	930.16667
2914.835	933.16667
2916.965	928.5
2919.093	939.5
2921.219	921.5
2923.345	943.83333
2925.469	915.83333
2927.591	912.83333
2929.712	879.16667
2931.832	884.16667
2933.951	879.16667
2936.068	865.83333
2938.184	846.5
2940.299	821.16667
2942.412	801.5
2944.524	781.16667
2946.634	792.5
2948.744	744.83333
2950.851	768.83333
2952.958	727.83333
2955.063	736.83333
2957.167	731.83333
2959.269	695.5
2961.371	740.83333
2963.471	684.83333
2965.569	702.5
2967.666	673.16667
2969.762	660.83333
2971.857	657.83333
2973.95	642.16667
2976.042	638.5
2978.133	627.83333
2980.222	610.16667
2982.31	597.16667
2984.396	580.16667
2986.482	595.83333
2988.566	577.83333
2990.648	588.83333
2992.73	580.16667
2994.81	570.83333
2996.889	578.5
2998.966	585.83333
3001.042	580.16667
3003.117	577.83333
3005.191	568.5
3007.263	573.16667
3009.334	560.16667
3011.403	559.83333
3013.472	545.5
3015.539	558.16667
3017.604	553.83333
3019.669	522.5
3021.732	519.5
3023.794	523.16667
3025.854	524.16667
3027.914	529.16667
3029.971	539.16667
3032.028	526.5
3034.083	524.83333
3036.137	515.83333
3038.19	509.16667
3040.242	483.5
3042.292	478.16667
3044.341	485.5
3046.388	492.5
3048.435	464.16667
3050.48	482.83333
3052.524	474.16667
3054.566	458.16667
3056.607	466.83333
3058.647	454.83333
3060.686	443.16667
3062.723	429.5
3064.759	408.5
3066.794	-0.5
3068.828	2.16667
3070.86	3.83333
