-0.839	548.04167
3.438	643.04167
7.711	193.375
11.981	62.04167
16.247	51.70833
20.509	52.375
24.768	48.375
29.024	55.375
33.276	45.04167
37.524	53.375
41.769	49.375
46.01	34.04167
50.247	45.70833
54.481	57.70833
58.712	64.70833
62.939	51.04167
67.162	65.70833
71.382	61.04167
75.599	48.375
79.812	67.375
84.021	82.04167
88.227	62.70833
92.429	62.375
96.628	54.375
100.823	75.04167
105.015	78.04167
109.204	74.70833
113.388	80.375
117.57	79.375
121.748	94.375
125.922	85.70833
130.093	107.70833
134.261	107.70833
138.425	106.04167
142.585	151.375
146.742	140.70833
150.896	179.04167
155.046	231.04167
159.193	376.04167
163.336	636.70833
167.476	1197.70833
171.613	2181.375
175.746	3610.70833
179.875	5296.70833
184.002	6835.04167
188.124	7778.70833
192.244	8085.70833
196.36	7966.04167
200.472	7641.375
204.581	7320.70833
208.687	7084.70833
212.79	6898.04167
216.889	6809.04167
220.984	6764.375
225.077	6764.375
229.165	6684.04167
233.251	6664.04167
237.333	6629.04167
241.412	6520.70833
245.487	6443.375
249.559	6352.70833
253.628	6292.70833
257.694	6269.04167
261.756	6211.375
265.814	6051.04167
269.87	5835.70833
273.922	5639.375
277.97	5494.375
282.016	5408.375
286.058	5398.375
290.097	5454.375
294.132	5510.70833
298.164	5470.70833
302.193	5260.375
306.219	4899.375
310.241	4505.04167
314.26	4172.04167
318.276	3908.375
322.288	3714.04167
326.297	3559.04167
330.303	3458.70833
334.305	3358.375
338.305	3349.375
342.301	3274.04167
346.294	3283.04167
350.283	3226.375
354.269	3188.375
358.252	3160.375
362.232	3161.70833
366.209	3138.70833
370.182	3087.375
374.152	3089.70833
378.119	3092.375
382.083	3075.375
386.043	3118.04167
390	3061.70833
393.954	3143.375
397.905	3164.04167
401.852	3143.375
405.797	3068.375
409.738	3226.70833
413.676	3347.70833
417.61	3445.04167
421.542	3156.70833
425.47	2975.70833
429.396	2947.70833
433.318	2925.375
437.236	2921.70833
441.152	2914.04167
445.065	2870.375
448.974	2852.375
452.88	2828.04167
456.783	2836.70833
460.683	2807.375
464.58	2828.375
468.473	2808.04167
472.364	2840.375
476.251	2826.375
480.135	2874.70833
484.016	2896.04167
487.894	2904.70833
491.769	2913.04167
495.641	2931.375
499.509	2914.04167
503.375	2895.375
507.237	2877.70833
511.096	2895.70833
514.952	2878.70833
518.805	2888.04167
522.655	2911.70833
526.502	2869.70833
530.346	2898.70833
534.187	2893.70833
538.024	2929.04167
541.859	2927.04167
545.69	2961.04167
549.519	2933.375
553.344	2929.70833
557.166	2881.375
560.985	2880.375
564.802	2817.04167
568.615	2793.04167
572.425	2723.70833
576.232	2733.04167
580.036	2714.04167
583.836	2747.04167
587.634	2738.375
591.429	2753.04167
595.221	2800.04167
599.01	2809.04167
602.796	2844.375
606.578	2859.04167
610.358	2877.375
614.135	2837.04167
617.909	2835.04167
621.679	2817.04167
625.447	2788.04167
629.212	2805.04167
632.973	2822.04167
636.732	2838.375
640.488	2846.70833
644.241	2753.375
647.991	2733.375
651.737	2767.04167
655.481	2757.04167
659.222	2753.70833
662.96	2749.375
666.695	2787.375
670.427	2801.375
674.156	2818.04167
677.882	2790.70833
681.605	2767.375
685.325	2752.04167
689.043	2748.70833
692.757	2730.70833
696.468	2740.375
700.177	2731.04167
703.882	2696.375
707.585	2679.70833
711.284	2695.70833
714.981	2686.04167
718.675	2678.70833
722.366	2702.375
726.054	2678.04167
729.739	2683.375
733.421	2700.70833
737.1	2687.70833
740.777	2698.04167
744.45	2735.375
748.121	2746.04167
751.789	2783.375
755.453	2760.70833
759.115	2789.70833
762.774	2809.70833
766.431	2814.375
770.084	2827.70833
773.734	2851.375
777.382	2904.375
781.027	2906.375
784.669	2939.70833
788.308	2946.375
791.944	2946.70833
795.577	2979.04167
799.208	3004.375
802.835	3008.375
806.46	3002.04167
810.082	3050.70833
813.701	3042.375
817.317	3065.04167
820.931	3069.04167
824.542	3046.375
828.149	3035.70833
831.754	2995.04167
835.357	3022.375
838.956	3003.70833
842.553	3062.375
846.146	3086.04167
849.737	2985.70833
853.326	2948.04167
856.911	2949.04167
860.493	2985.70833
864.073	3068.375
867.65	3243.375
871.225	3240.375
874.796	3095.375
878.365	3073.04167
881.931	3075.70833
885.494	3097.70833
889.054	3076.375
892.612	3104.375
896.166	3058.70833
899.719	3039.375
903.268	2999.70833
906.814	2985.70833
910.358	2966.375
913.899	2943.70833
917.438	2959.375
920.973	2939.04167
924.506	2998.04167
928.036	3022.375
931.564	3067.70833
935.088	3080.04167
938.61	3103.375
942.129	3111.375
945.646	3178.70833
949.16	3271.04167
952.671	3303.04167
956.179	3328.375
959.685	3318.375
963.188	3283.04167
966.688	3253.375
970.185	3155.04167
973.68	3124.04167
977.173	3039.70833
980.662	3033.04167
984.149	3026.375
987.633	3015.70833
991.114	3043.70833
994.593	3127.04167
998.069	3197.375
1001.542	3272.70833
1005.013	3245.375
1008.481	3049.70833
1011.947	2988.375
1015.409	2959.375
1018.869	2961.70833
1022.327	2960.04167
1025.782	2957.375
1029.234	2950.70833
1032.683	2902.04167
1036.13	2823.70833
1039.574	2715.04167
1043.016	2645.70833
1046.455	2594.70833
1049.891	2582.70833
1053.325	2596.04167
1056.756	2597.70833
1060.184	2603.04167
1063.61	2622.04167
1067.033	2617.70833
1070.454	2622.375
1073.872	2646.70833
1077.287	2657.70833
1080.7	2660.04167
1084.11	2652.70833
1087.517	2621.375
1090.922	2589.70833
1094.325	2559.375
1097.724	2540.70833
1101.122	2548.70833
1104.516	2546.04167
1107.908	2555.375
1111.298	2575.04167
1114.684	2589.04167
1118.069	2621.375
1121.45	2680.70833
1124.83	2647.04167
1128.206	2705.70833
1131.58	2704.375
1134.951	2780.375
1138.32	2865.375
1141.687	2973.375
1145.05	3033.04167
1148.412	3018.04167
1151.77	3022.70833
1155.126	2993.04167
1158.48	2991.70833
1161.831	2994.04167
1165.18	3000.375
1168.525	3051.04167
1171.869	3068.70833
1175.21	3101.04167
1178.548	3164.375
1181.884	3194.04167
1185.217	3190.375
1188.548	3274.375
1191.877	3354.375
1195.202	3437.70833
1198.526	3509.04167
1201.846	3566.70833
1205.165	3548.375
1208.48	3507.70833
1211.794	3510.70833
1215.104	3516.70833
1218.413	3474.70833
1221.719	3490.04167
1225.022	3458.04167
1228.323	3391.70833
1231.621	3367.04167
1234.917	3342.70833
1238.21	3357.70833
1241.501	3326.70833
1244.79	3323.70833
1248.076	3323.04167
1251.359	3354.70833
1254.64	3423.70833
1257.919	3440.375
1261.195	3497.70833
1264.468	3570.375
1267.74	3618.04167
1271.008	3613.375
1274.275	3604.04167
1277.538	3595.70833
1280.8	3568.70833
1284.059	3564.375
1287.315	3602.04167
1290.569	3629.375
1293.821	3638.70833
1297.07	3661.375
1300.317	3672.04167
1303.562	3653.375
1306.803	3613.04167
1310.043	3629.04167
1313.28	3565.375
1316.515	3554.70833
1319.747	3528.375
1322.977	3508.70833
1326.204	3469.70833
1329.429	3398.375
1332.652	3383.375
1335.872	3378.04167
1339.09	3367.04167
1342.306	3350.04167
1345.519	3287.70833
1348.729	3290.04167
1351.938	3267.04167
1355.144	3216.04167
1358.347	3190.04167
1361.548	3180.70833
1364.747	3160.70833
1367.944	3105.375
1371.138	3150.04167
1374.329	3141.04167
1377.518	3189.375
1380.705	3212.70833
1383.89	3166.70833
1387.072	3112.04167
1390.252	2964.70833
1393.429	2855.70833
1396.605	2771.04167
1399.777	2705.70833
1402.948	2663.04167
1406.116	2643.70833
1409.282	2623.04167
1412.445	2635.70833
1415.606	2676.375
1418.765	2714.04167
1421.921	2770.70833
1425.075	2811.375
1428.227	2911.375
1431.376	3031.70833
1434.524	3130.04167
1437.668	3216.70833
1440.811	3270.04167
1443.951	3281.375
1447.089	3286.70833
1450.224	3297.04167
1453.357	3278.375
1456.488	3266.70833
1459.617	3232.04167
1462.743	3138.04167
1465.867	3078.375
1468.989	3067.04167
1472.108	2995.70833
1475.225	2947.375
1478.34	2925.70833
1481.453	2904.375
1484.563	2913.375
1487.671	2927.70833
1490.776	2971.70833
1493.88	3005.70833
1496.981	3085.375
1500.08	3129.70833
1503.176	3164.04167
1506.271	3221.04167
1509.363	3242.04167
1512.452	3282.70833
1515.54	3331.375
1518.625	3364.04167
1521.708	3451.70833
1524.789	3557.375
1527.867	3730.70833
1530.944	3869.70833
1534.018	4053.04167
1537.089	4212.375
1540.159	4277.04167
1543.226	4207.70833
1546.291	4134.04167
1549.354	4031.70833
1552.415	3953.70833
1555.473	3853.375
1558.529	3769.04167
1561.583	3735.70833
1564.634	3711.70833
1567.684	3692.375
1570.731	3738.70833
1573.776	3797.04167
1576.819	3823.70833
1579.859	3856.70833
1582.898	3885.375
1585.934	3946.375
1588.968	3962.70833
1591.999	3966.375
1595.029	3975.04167
1598.056	3984.375
1601.081	3966.04167
1604.104	3966.04167
1607.125	3943.70833
1610.144	3844.375
1613.16	3797.04167
1616.174	3709.70833
1619.186	3615.70833
1622.196	3539.04167
1625.203	3478.04167
1628.209	3430.04167
1631.212	3369.04167
1634.213	3386.04167
1637.212	3401.375
1640.209	3335.70833
1643.203	3268.375
1646.196	3174.375
1649.186	3024.70833
1652.174	2906.04167
1655.16	2809.70833
1658.144	2728.375
1661.125	2611.70833
1664.105	2495.04167
1667.082	2397.70833
1670.057	2266.375
1673.03	2142.70833
1676.001	2002.375
1678.97	1892.04167
1681.937	1756.70833
1684.901	1647.70833
1687.863	1616.375
1690.824	1541.375
1693.782	1489.04167
1696.738	1455.70833
1699.692	1411.70833
1702.643	1385.04167
1705.593	1382.375
1708.54	1345.04167
1711.486	1352.375
1714.429	1304.70833
1717.37	1303.70833
1720.309	1289.04167
1723.246	1287.70833
1726.181	1274.04167
1729.113	1270.375
1732.044	1233.375
1734.972	1237.70833
1737.899	1247.375
1740.823	1241.04167
1743.745	1229.70833
1746.665	1187.375
1749.583	1163.375
1752.499	1136.375
1755.413	1144.70833
1758.325	1124.70833
1761.235	1114.04167
1764.142	1099.04167
1767.048	1086.70833
1769.951	1085.70833
1772.852	1093.70833
1775.752	1162.04167
1778.649	1246.375
1781.544	1122.70833
1784.437	1054.04167
1787.328	1063.375
1790.217	1040.04167
1793.104	1014.375
1795.989	1013.70833
1798.872	1015.70833
1801.753	1010.04167
1804.631	1010.70833
1807.508	1028.70833
1810.383	1011.04167
1813.255	998.70833
1816.126	986.375
1818.994	986.70833
1821.861	986.04167
1824.725	986.70833
1827.587	971.70833
1830.448	978.375
1833.306	946.04167
1836.162	966.375
1839.017	951.04167
1841.869	948.70833
1844.719	935.04167
1847.567	929.04167
1850.414	924.70833
1853.258	928.04167
1856.1	929.70833
1858.94	941.04167
1861.778	944.70833
1864.614	926.04167
1867.448	926.70833
1870.28	933.375
1873.111	938.70833
1875.939	929.375
1878.765	937.375
1881.589	910.70833
1884.411	915.04167
1887.231	927.04167
1890.049	917.70833
1892.865	916.375
1895.68	915.375
1898.492	949.04167
1901.302	921.70833
1904.11	898.375
1906.916	881.375
1909.721	874.04167
1912.523	885.375
1915.323	859.70833
1918.122	866.375
1920.918	886.375
1923.712	865.04167
1926.505	846.70833
1929.295	849.70833
1932.084	862.70833
1934.87	845.70833
1937.655	850.375
1940.438	843.70833
1943.218	846.04167
1945.997	861.04167
1948.774	857.375
1951.549	872.04167
1954.322	836.04167
1957.093	838.375
1959.862	826.375
1962.629	833.70833
1965.394	821.04167
1968.157	828.375
1970.918	828.375
1973.678	814.04167
1976.435	811.70833
1979.19	817.70833
1981.944	806.70833
1984.696	815.04167
1987.445	799.375
1990.193	795.375
1992.939	810.70833
1995.683	799.70833
1998.425	778.375
2001.165	812.375
2003.903	782.375
2006.639	780.375
2009.374	796.70833
2012.106	787.04167
2014.837	766.375
2017.566	772.375
2020.292	790.70833
2023.017	783.04167
2025.74	771.375
2028.461	773.70833
2031.18	769.04167
2033.898	758.70833
2036.613	762.375
2039.327	756.375
2042.038	744.04167
2044.748	751.375
2047.456	769.70833
2050.162	736.375
2052.866	751.70833
2055.568	750.70833
2058.268	734.375
2060.967	735.70833
2063.663	724.04167
2066.358	728.04167
2069.051	727.375
2071.742	735.70833
2074.431	736.70833
2077.118	736.04167
2079.804	721.375
2082.487	738.375
2085.169	729.04167
2087.849	754.04167
2090.527	705.70833
2093.203	745.04167
2095.877	730.70833
2098.55	742.04167
2101.22	738.70833
2103.889	744.70833
2106.556	741.375
2109.221	771.70833
2111.884	764.70833
2114.546	811.04167
2117.205	854.04167
2119.863	925.375
2122.519	949.70833
2125.173	1007.375
2127.825	1080.70833
2130.475	1089.70833
2133.124	1058.04167
2135.771	1031.375
2138.416	973.70833
2141.059	917.70833
2143.7	885.375
2146.339	829.04167
2148.977	790.375
2151.613	781.375
2154.247	766.70833
2156.879	750.04167
2159.51	722.70833
2162.138	708.375
2164.765	705.04167
2167.39	688.70833
2170.013	702.04167
2172.634	701.375
2175.254	669.70833
2177.872	721.375
2180.488	667.04167
2183.102	666.04167
2185.714	661.375
2188.325	635.70833
2190.934	651.04167
2193.541	660.70833
2196.146	638.70833
2198.75	631.375
2201.351	632.04167
2203.951	619.375
2206.549	640.70833
2209.146	626.04167
2211.74	618.04167
2214.333	619.70833
2216.924	605.04167
2219.514	606.375
2222.101	601.375
2224.687	620.04167
2227.271	598.375
2229.853	598.375
2232.433	592.70833
2235.012	601.375
2237.589	606.375
2240.164	616.04167
2242.738	591.375
2245.309	585.04167
2247.879	584.375
2250.448	607.375
2253.014	580.70833
2255.579	554.70833
2258.142	564.70833
2260.703	552.375
2263.262	560.375
2265.82	549.70833
2268.376	545.375
2270.93	540.04167
2273.483	544.375
2276.033	540.04167
2278.583	548.70833
2281.13	542.375
2283.675	524.375
2286.219	529.04167
2288.761	536.375
2291.302	541.375
2293.841	544.04167
2296.377	517.70833
2298.913	517.04167
2301.446	536.04167
2303.978	525.70833
2306.508	516.375
2309.037	519.70833
2311.563	518.375
2314.088	524.04167
2316.612	503.70833
2319.133	503.70833
2321.653	514.375
2324.171	504.375
2326.688	514.70833
2329.202	503.04167
2331.715	502.375
2334.227	495.70833
2336.736	511.70833
2339.244	492.70833
2341.751	478.70833
2344.255	500.70833
2346.758	482.375
2349.259	478.70833
2351.759	486.04167
2354.257	483.375
2356.753	469.04167
2359.247	486.375
2361.74	485.04167
2364.231	478.375
2366.721	477.70833
2369.209	475.04167
2371.695	479.04167
2374.179	470.375
2376.662	463.375
2379.143	477.70833
2381.622	475.70833
2384.1	491.04167
2386.576	478.375
2389.051	479.375
2391.524	491.375
2393.995	479.04167
2396.464	457.04167
2398.932	464.70833
2401.398	459.375
2403.863	455.375
2406.325	452.04167
2408.787	471.375
2411.246	459.70833
2413.704	446.04167
2416.16	443.04167
2418.615	444.04167
2421.068	462.70833
2423.519	453.70833
2425.969	439.70833
2428.417	445.70833
2430.863	460.04167
2433.308	457.70833
2435.751	447.70833
2438.193	446.70833
2440.633	446.04167
2443.071	439.04167
2445.508	428.70833
2447.943	436.375
2450.376	433.04167
2452.808	431.375
2455.238	428.375
2457.667	461.04167
2460.093	424.70833
2462.519	417.04167
2464.942	423.375
2467.365	435.70833
2469.785	436.70833
2472.204	424.70833
2474.621	407.375
2477.037	434.375
2479.451	407.04167
2481.863	409.04167
2484.274	412.04167
2486.683	409.375
2489.091	422.70833
2491.497	415.70833
2493.901	418.375
2496.304	412.04167
2498.705	414.70833
2501.105	405.04167
2503.503	437.70833
2505.899	395.04167
2508.294	422.70833
2510.687	408.70833
2513.079	398.70833
2515.469	405.04167
2517.858	414.375
2520.245	406.70833
2522.63	409.70833
2525.014	404.375
2527.396	395.375
2529.776	386.375
2532.156	409.375
2534.533	380.375
2536.909	378.70833
2539.283	375.70833
2541.656	390.375
2544.027	404.70833
2546.397	387.375
2548.765	381.04167
2551.131	390.70833
2553.496	380.04167
2555.86	387.70833
2558.221	390.375
2560.582	377.70833
2562.94	371.70833
2565.298	376.70833
2567.653	391.04167
2570.007	374.04167
2572.36	381.70833
2574.711	374.375
2577.06	393.04167
2579.408	380.70833
2581.754	378.70833
2584.099	382.04167
2586.442	371.375
2588.784	382.375
2591.124	368.04167
2593.463	373.375
2595.8	378.04167
2598.135	357.70833
2600.469	371.04167
2602.802	382.375
2605.133	381.04167
2607.462	359.04167
2609.79	354.375
2612.116	376.04167
2614.441	371.375
2616.764	368.04167
2619.086	361.70833
2621.406	356.04167
2623.725	381.70833
2626.042	370.04167
2628.358	365.70833
2630.672	355.70833
2632.985	375.70833
2635.296	371.04167
2637.606	360.70833
2639.914	355.70833
2642.22	360.375
2644.525	361.04167
2646.829	369.375
2649.131	374.375
2651.432	365.70833
2653.731	360.70833
2656.028	374.04167
2658.324	376.04167
2660.619	357.04167
2662.912	373.375
2665.204	352.70833
2667.494	367.70833
2669.782	348.04167
2672.07	372.70833
2674.355	374.375
2676.639	365.04167
2678.922	351.70833
2681.203	360.04167
2683.483	350.70833
2685.761	358.70833
2688.038	374.375
2690.313	383.04167
2692.587	368.04167
2694.859	353.70833
2697.13	365.375
2699.399	375.04167
2701.667	377.04167
2703.933	377.70833
2706.198	380.04167
2708.461	387.70833
2710.723	390.70833
2712.984	382.04167
2715.243	388.04167
2717.5	374.375
2719.757	393.04167
2722.011	381.04167
2724.264	390.375
2726.516	399.04167
2728.766	389.70833
2731.015	392.04167
2733.262	383.375
2735.508	389.70833
2737.753	385.375
2739.996	376.375
2742.237	373.375
2744.477	391.04167
2746.716	379.375
2748.953	370.70833
2751.189	375.375
2753.423	370.04167
2755.656	355.04167
2757.887	362.70833
2760.117	358.375
2762.346	342.70833
2764.573	345.70833
2766.798	347.375
2769.022	349.04167
2771.245	362.70833
2773.467	362.375
2775.686	363.375
2777.905	353.04167
2780.122	366.375
2782.337	375.04167
2784.552	362.375
2786.764	368.70833
2788.976	373.375
2791.186	376.70833
2793.394	392.375
2795.601	389.04167
2797.807	402.04167
2800.011	404.04167
2802.214	407.70833
2804.415	404.70833
2806.615	406.70833
2808.814	410.375
2811.011	416.04167
2813.206	412.375
2815.401	437.375
2817.594	434.375
2819.785	439.70833
2821.975	443.04167
2824.164	452.04167
2826.351	470.70833
2828.537	478.70833
2830.722	483.70833
2832.905	489.04167
2835.086	520.375
2837.267	540.70833
2839.445	563.375
2841.623	576.375
2843.799	602.70833
2845.974	647.70833
2848.147	676.04167
2850.319	695.04167
2852.489	732.375
2854.659	735.375
2856.826	754.70833
2858.993	783.04167
2861.158	759.04167
2863.321	762.375
2865.483	784.375
2867.644	784.04167
2869.804	779.04167
2871.962	791.70833
2874.118	813.375
2876.274	871.04167
2878.428	857.70833
2880.58	825.375
2882.731	780.375
2884.881	799.375
2887.03	788.375
2889.177	773.04167
2891.322	803.375
2893.467	797.375
2895.61	779.04167
2897.751	800.70833
2899.892	774.04167
2902.03	807.70833
2904.168	812.04167
2906.304	812.04167
2908.439	828.70833
2910.572	810.375
2912.704	819.375
2914.835	821.375
2916.965	815.375
2919.093	839.70833
2921.219	799.375
2923.345	822.04167
2925.469	799.04167
2927.591	801.04167
2929.712	767.375
2931.832	774.04167
2933.951	742.70833
2936.068	742.375
2938.184	721.375
2940.299	687.70833
2942.412	667.375
2944.524	629.04167
2946.634	622.70833
2948.744	574.375
2950.851	599.70833
2952.958	558.04167
2955.063	555.375
2957.167	544.04167
2959.269	499.70833
2961.371	527.375
2963.471	488.375
2965.569	488.04167
2967.666	457.04167
2969.762	459.70833
2971.857	439.70833
2973.95	428.04167
2976.042	427.375
2978.133	415.375
2980.222	399.04167
2982.31	376.70833
2984.396	372.375
2986.482	366.04167
2988.566	358.375
2990.648	351.375
2992.73	347.375
2994.81	339.70833
2996.889	349.04167
2998.966	335.375
3001.042	341.04167
3003.117	335.70833
3005.191	331.375
3007.263	327.375
3009.334	315.375
3011.403	319.04167
3013.472	304.375
3015.539	311.04167
3017.604	315.70833
3019.669	279.70833
3021.732	286.70833
3023.794	289.70833
3025.854	282.375
3027.914	277.375
3029.971	290.04167
3032.028	275.04167
3034.083	282.70833
3036.137	277.375
3038.19	265.375
3040.242	257.70833
3042.292	248.375
3044.341	253.04167
3046.388	264.70833
3048.435	239.375
3050.48	255.04167
3052.524	247.04167
3054.566	238.04167
3056.607	251.375
3058.647	239.70833
3060.686	230.70833
3062.723	222.70833
3064.759	208.04167
3066.794	-1.29167
3068.828	2.70833
3070.86	1.70833
