-0.839	468.70833
3.438	547.04167
7.711	164.04167
11.981	61.375
16.247	43.375
20.509	51.375
24.768	45.375
29.024	52.70833
33.276	47.04167
37.524	47.375
41.769	48.04167
46.01	32.04167
50.247	48.04167
54.481	58.70833
58.712	61.70833
62.939	45.375
67.162	66.70833
71.382	60.70833
75.599	45.04167
79.812	64.375
84.021	82.04167
88.227	60.375
92.429	64.04167
96.628	56.375
100.823	71.375
105.015	75.04167
109.204	70.04167
113.388	79.04167
117.57	82.70833
121.748	83.70833
125.922	82.04167
130.093	98.04167
134.261	105.04167
138.425	100.04167
142.585	145.375
146.742	134.04167
150.896	161.375
155.046	221.70833
159.193	327.375
163.336	575.70833
167.476	1103.70833
171.613	2011.375
175.746	3362.04167
179.875	4980.70833
184.002	6464.70833
188.124	7463.04167
192.244	7676.04167
196.36	7550.375
200.472	7216.04167
204.581	6900.70833
208.687	6604.04167
212.79	6412.70833
216.889	6274.04167
220.984	6200.375
225.077	6128.04167
229.165	6012.04167
233.251	5975.70833
237.333	5862.04167
241.412	5734.375
245.487	5651.70833
249.559	5540.04167
253.628	5484.70833
257.694	5392.70833
261.756	5335.04167
265.814	5170.375
269.87	5006.70833
273.922	4841.70833
277.97	4724.04167
282.016	4665.04167
286.058	4679.375
290.097	4760.04167
294.132	4773.375
298.164	4725.04167
302.193	4515.70833
306.219	4227.70833
310.241	3906.375
314.26	3668.70833
318.276	3439.375
322.288	3279.04167
326.297	3139.70833
330.303	3064.04167
334.305	3019.04167
338.305	2947.70833
342.301	2859.375
346.294	2877.70833
350.283	2833.70833
354.269	2799.70833
358.252	2775.04167
362.232	2760.04167
366.209	2752.04167
370.182	2699.375
374.152	2689.04167
378.119	2691.04167
382.083	2702.375
386.043	2709.375
390	2676.04167
393.954	2683.04167
397.905	2674.375
401.852	2656.04167
405.797	2620.70833
409.738	2639.70833
413.676	2659.70833
417.61	2674.04167
421.542	2598.04167
425.47	2567.375
429.396	2535.04167
433.318	2533.04167
437.236	2486.04167
441.152	2516.04167
445.065	2452.70833
448.974	2450.375
452.88	2435.04167
456.783	2403.04167
460.683	2395.04167
464.58	2410.375
468.473	2372.70833
472.364	2414.375
476.251	2404.70833
480.135	2440.04167
484.016	2472.375
487.894	2485.04167
491.769	2488.04167
495.641	2472.04167
499.509	2463.375
503.375	2471.04167
507.237	2465.375
511.096	2479.70833
514.952	2505.70833
518.805	2607.375
522.655	2638.375
526.502	2536.70833
530.346	2469.70833
534.187	2446.04167
538.024	2492.70833
541.859	2482.04167
545.69	2501.375
549.519	2495.04167
553.344	2488.04167
557.166	2453.70833
560.985	2402.70833
564.802	2378.04167
568.615	2341.04167
572.425	2311.375
576.232	2281.04167
580.036	2304.375
583.836	2296.375
587.634	2323.70833
591.429	2303.04167
595.221	2334.04167
599.01	2373.375
602.796	2401.375
606.578	2417.70833
610.358	2414.375
614.135	2393.375
617.909	2372.04167
621.679	2349.04167
625.447	2352.375
629.212	2359.375
632.973	2366.375
636.732	2363.375
640.488	2376.375
644.241	2321.70833
647.991	2332.04167
651.737	2353.70833
655.481	2304.70833
659.222	2323.04167
662.96	2286.70833
666.695	2322.70833
670.427	2332.04167
674.156	2338.04167
677.882	2336.04167
681.605	2320.375
685.325	2309.04167
689.043	2305.70833
692.757	2292.375
696.468	2262.70833
700.177	2285.375
703.882	2272.04167
707.585	2272.04167
711.284	2239.04167
714.981	2261.375
718.675	2247.375
722.366	2276.70833
726.054	2258.375
729.739	2264.375
733.421	2264.375
737.1	2239.375
740.777	2268.04167
744.45	2276.70833
748.121	2293.375
751.789	2340.375
755.453	2320.70833
759.115	2343.04167
762.774	2354.375
766.431	2370.70833
770.084	2394.04167
773.734	2383.70833
777.382	2436.70833
781.027	2465.375
784.669	2466.70833
788.308	2477.70833
791.944	2496.04167
795.577	2493.04167
799.208	2501.04167
802.835	2523.04167
806.46	2555.375
810.082	2573.375
813.701	2548.04167
817.317	2584.04167
820.931	2553.04167
824.542	2567.04167
828.149	2526.04167
831.754	2501.375
835.357	2525.70833
838.956	2536.375
842.553	2550.04167
846.146	2514.04167
849.737	2481.375
853.326	2489.375
856.911	2492.04167
860.493	2503.375
864.073	2550.375
867.65	2598.375
871.225	2636.04167
874.796	2573.04167
878.365	2584.375
881.931	2591.04167
885.494	2627.70833
889.054	2614.70833
892.612	2617.04167
896.166	2577.375
899.719	2570.70833
903.268	2546.70833
906.814	2527.70833
910.358	2472.375
913.899	2482.04167
917.438	2496.375
920.973	2467.375
924.506	2487.375
928.036	2539.70833
931.564	2569.04167
935.088	2601.375
938.61	2616.70833
942.129	2639.04167
945.646	2695.375
949.16	2742.70833
952.671	2770.04167
956.179	2771.04167
959.685	2743.375
963.188	2733.04167
966.688	2707.375
970.185	2635.375
973.68	2585.04167
977.173	2535.375
980.662	2493.375
984.149	2532.04167
987.633	2506.70833
991.114	2554.375
994.593	2590.04167
998.069	2668.70833
1001.542	2723.04167
1005.013	2676.375
1008.481	2557.04167
1011.947	2485.04167
1015.409	2487.375
1018.869	2495.70833
1022.327	2481.375
1025.782	2456.375
1029.234	2453.04167
1032.683	2423.70833
1036.13	2354.70833
1039.574	2271.04167
1043.016	2189.375
1046.455	2158.70833
1049.891	2167.04167
1053.325	2168.04167
1056.756	2160.04167
1060.184	2192.375
1063.61	2182.375
1067.033	2204.04167
1070.454	2196.04167
1073.872	2240.04167
1077.287	2206.70833
1080.7	2225.04167
1084.11	2207.04167
1087.517	2203.70833
1090.922	2155.375
1094.325	2153.375
1097.724	2123.70833
1101.122	2134.04167
1104.516	2125.04167
1107.908	2113.04167
1111.298	2161.375
1114.684	2173.04167
1118.069	2208.70833
1121.45	2230.375
1124.83	2232.70833
1128.206	2260.375
1131.58	2290.375
1134.951	2326.70833
1138.32	2390.70833
1141.687	2501.04167
1145.05	2538.375
1148.412	2530.375
1151.77	2518.04167
1155.126	2533.04167
1158.48	2517.375
1161.831	2490.375
1165.18	2528.04167
1168.525	2559.375
1171.869	2602.04167
1175.21	2609.70833
1178.548	2617.04167
1181.884	2650.70833
1185.217	2690.70833
1188.548	2749.70833
1191.877	2798.375
1195.202	2849.04167
1198.526	2901.375
1201.846	2943.70833
1205.165	2923.70833
1208.48	2936.04167
1211.794	2918.04167
1215.104	2911.70833
1218.413	2919.70833
1221.719	2910.04167
1225.022	2883.70833
1228.323	2848.04167
1231.621	2797.04167
1234.917	2774.04167
1238.21	2816.04167
1241.501	2797.375
1244.79	2813.70833
1248.076	2788.70833
1251.359	2813.375
1254.64	2873.375
1257.919	2901.70833
1261.195	2959.375
1264.468	2989.70833
1267.74	3016.04167
1271.008	3040.70833
1274.275	3036.70833
1277.538	2982.70833
1280.8	2990.04167
1284.059	2966.04167
1287.315	3033.04167
1290.569	3012.04167
1293.821	3037.04167
1297.07	3054.70833
1300.317	3058.70833
1303.562	3056.04167
1306.803	3020.375
1310.043	3000.375
1313.28	2978.04167
1316.515	2939.375
1319.747	2946.375
1322.977	2912.70833
1326.204	2888.375
1329.429	2848.04167
1332.652	2809.375
1335.872	2817.375
1339.09	2771.375
1342.306	2755.375
1345.519	2760.375
1348.729	2717.04167
1351.938	2715.04167
1355.144	2697.04167
1358.347	2642.375
1361.548	2635.70833
1364.747	2639.375
1367.944	2611.70833
1371.138	2627.70833
1374.329	2632.70833
1377.518	2647.375
1380.705	2660.04167
1383.89	2638.70833
1387.072	2568.375
1390.252	2463.04167
1393.429	2378.70833
1396.605	2318.375
1399.777	2241.375
1402.948	2203.04167
1406.116	2202.375
1409.282	2191.375
1412.445	2208.04167
1415.606	2223.04167
1418.765	2249.375
1421.921	2295.375
1425.075	2364.04167
1428.227	2429.04167
1431.376	2521.70833
1434.524	2594.04167
1437.668	2666.04167
1440.811	2702.70833
1443.951	2709.375
1447.089	2722.04167
1450.224	2725.70833
1453.357	2696.70833
1456.488	2695.70833
1459.617	2651.70833
1462.743	2614.70833
1465.867	2564.04167
1468.989	2519.70833
1472.108	2485.375
1475.225	2433.04167
1478.34	2408.70833
1481.453	2401.375
1484.563	2401.375
1487.671	2435.04167
1490.776	2467.375
1493.88	2491.375
1496.981	2540.375
1500.08	2574.375
1503.176	2595.70833
1506.271	2624.04167
1509.363	2662.04167
1512.452	2677.04167
1515.54	2694.70833
1518.625	2734.375
1521.708	2800.375
1524.789	2866.375
1527.867	3015.04167
1530.944	3157.375
1534.018	3297.375
1537.089	3409.375
1540.159	3480.04167
1543.226	3454.375
1546.291	3424.04167
1549.354	3329.70833
1552.415	3241.04167
1555.473	3168.04167
1558.529	3132.70833
1561.583	3068.04167
1564.634	3039.04167
1567.684	3055.70833
1570.731	3089.04167
1573.776	3099.70833
1576.819	3137.375
1579.859	3165.375
1582.898	3210.375
1585.934	3219.04167
1588.968	3245.375
1591.999	3238.04167
1595.029	3246.04167
1598.056	3276.04167
1601.081	3283.04167
1604.104	3262.70833
1607.125	3238.375
1610.144	3183.04167
1613.16	3123.04167
1616.174	3023.70833
1619.186	2972.70833
1622.196	2909.70833
1625.203	2829.70833
1628.209	2797.04167
1631.212	2771.375
1634.213	2734.375
1637.212	2755.04167
1640.209	2703.375
1643.203	2648.375
1646.196	2569.04167
1649.186	2461.375
1652.174	2380.375
1655.16	2307.375
1658.144	2221.375
1661.125	2136.70833
1664.105	2056.04167
1667.082	1951.375
1670.057	1869.04167
1673.03	1766.04167
1676.001	1641.375
1678.97	1547.70833
1681.937	1446.04167
1684.901	1384.04167
1687.863	1335.70833
1690.824	1279.375
1693.782	1261.375
1696.738	1197.70833
1699.692	1176.375
1702.643	1153.70833
1705.593	1135.70833
1708.54	1124.70833
1711.486	1109.70833
1714.429	1081.70833
1717.37	1082.70833
1720.309	1065.375
1723.246	1083.04167
1726.181	1054.375
1729.113	1047.04167
1732.044	1023.375
1734.972	1017.70833
1737.899	1006.70833
1740.823	1028.375
1743.745	979.70833
1746.665	972.375
1749.583	963.04167
1752.499	951.375
1755.413	957.04167
1758.325	920.70833
1761.235	915.04167
1764.142	893.04167
1767.048	879.04167
1769.951	882.04167
1772.852	883.70833
1775.752	889.375
1778.649	902.70833
1781.544	890.04167
1784.437	844.375
1787.328	866.375
1790.217	847.70833
1793.104	828.70833
1795.989	830.70833
1798.872	821.04167
1801.753	836.375
1804.631	841.70833
1807.508	859.375
1810.383	822.375
1813.255	826.375
1816.126	817.375
1818.994	831.04167
1821.861	799.375
1824.725	823.70833
1827.587	806.375
1830.448	807.375
1833.306	784.70833
1836.162	794.375
1839.017	785.04167
1841.869	783.375
1844.719	790.04167
1847.567	764.04167
1850.414	762.375
1853.258	762.04167
1856.1	787.04167
1858.94	796.04167
1861.778	769.04167
1864.614	764.70833
1867.448	770.375
1870.28	743.70833
1873.111	764.70833
1875.939	768.70833
1878.765	766.375
1881.589	751.04167
1884.411	759.04167
1887.231	759.04167
1890.049	754.04167
1892.865	762.375
1895.68	744.04167
1898.492	761.04167
1901.302	740.70833
1904.11	752.375
1906.916	730.70833
1909.721	718.04167
1912.523	737.70833
1915.323	722.375
1918.122	724.375
1920.918	730.375
1923.712	708.70833
1926.505	710.70833
1929.295	696.375
1932.084	729.04167
1934.87	709.375
1937.655	714.375
1940.438	709.70833
1943.218	702.04167
1945.997	711.70833
1948.774	714.70833
1951.549	713.04167
1954.322	708.375
1957.093	703.70833
1959.862	689.70833
1962.629	701.04167
1965.394	695.04167
1968.157	679.375
1970.918	681.70833
1973.678	670.04167
1976.435	692.375
1979.19	678.375
1981.944	673.375
1984.696	671.70833
1987.445	662.70833
1990.193	668.70833
1992.939	690.04167
1995.683	663.375
1998.425	649.70833
2001.165	686.70833
2003.903	652.04167
2006.639	663.375
2009.374	674.04167
2012.106	663.04167
2014.837	644.375
2017.566	658.70833
2020.292	653.04167
2023.017	670.375
2025.74	657.04167
2028.461	655.375
2031.18	655.04167
2033.898	629.70833
2036.613	644.375
2039.327	652.375
2042.038	640.375
2044.748	634.04167
2047.456	639.375
2050.162	631.70833
2052.866	633.04167
2055.568	640.375
2058.268	644.70833
2060.967	639.70833
2063.663	620.70833
2066.358	633.04167
2069.051	628.70833
2071.742	628.375
2074.431	626.04167
2077.118	635.04167
2079.804	620.04167
2082.487	626.375
2085.169	635.70833
2087.849	646.04167
2090.527	613.70833
2093.203	629.375
2095.877	637.04167
2098.55	642.70833
2101.22	651.04167
2103.889	659.375
2106.556	663.04167
2109.221	669.375
2111.884	696.375
2114.546	733.70833
2117.205	792.04167
2119.863	840.70833
2122.519	887.70833
2125.173	942.04167
2127.825	1008.04167
2130.475	1008.04167
2133.124	965.04167
2135.771	919.04167
2138.416	892.70833
2141.059	823.04167
2143.7	786.04167
2146.339	740.70833
2148.977	702.375
2151.613	706.375
2154.247	687.04167
2156.879	675.04167
2159.51	637.04167
2162.138	626.04167
2164.765	626.04167
2167.39	621.375
2170.013	628.70833
2172.634	620.70833
2175.254	613.04167
2177.872	641.70833
2180.488	598.04167
2183.102	599.70833
2185.714	596.70833
2188.325	581.04167
2190.934	578.04167
2193.541	586.375
2196.146	580.04167
2198.75	562.70833
2201.351	570.70833
2203.951	561.04167
2206.549	572.04167
2209.146	556.70833
2211.74	557.70833
2214.333	566.375
2216.924	548.375
2219.514	550.70833
2222.101	538.375
2224.687	565.375
2227.271	540.375
2229.853	538.04167
2232.433	529.375
2235.012	553.70833
2237.589	545.04167
2240.164	570.04167
2242.738	540.70833
2245.309	535.70833
2247.879	543.04167
2250.448	552.04167
2253.014	533.70833
2255.579	507.70833
2258.142	526.375
2260.703	520.04167
2263.262	513.375
2265.82	511.375
2268.376	520.04167
2270.93	505.375
2273.483	498.70833
2276.033	506.70833
2278.583	506.375
2281.13	505.375
2283.675	493.70833
2286.219	511.04167
2288.761	508.04167
2291.302	504.04167
2293.841	518.70833
2296.377	488.04167
2298.913	499.04167
2301.446	505.04167
2303.978	499.70833
2306.508	497.04167
2309.037	495.70833
2311.563	499.04167
2314.088	499.04167
2316.612	482.04167
2319.133	504.04167
2321.653	505.04167
2324.171	493.375
2326.688	497.375
2329.202	490.04167
2331.715	492.04167
2334.227	488.375
2336.736	486.375
2339.244	483.70833
2341.751	478.70833
2344.255	485.375
2346.758	486.375
2349.259	466.04167
2351.759	485.04167
2354.257	473.70833
2356.753	468.04167
2359.247	483.70833
2361.74	491.04167
2364.231	479.70833
2366.721	486.70833
2369.209	470.375
2371.695	480.375
2374.179	476.04167
2376.662	472.375
2379.143	498.375
2381.622	471.70833
2384.1	486.70833
2386.576	478.04167
2389.051	484.04167
2391.524	490.375
2393.995	482.375
2396.464	471.70833
2398.932	482.375
2401.398	471.04167
2403.863	468.70833
2406.325	465.70833
2408.787	476.04167
2411.246	466.70833
2413.704	474.04167
2416.16	464.70833
2418.615	482.375
2421.068	479.375
2423.519	476.70833
2425.969	465.70833
2428.417	470.375
2430.863	498.70833
2433.308	478.375
2435.751	475.70833
2438.193	470.04167
2440.633	467.70833
2443.071	468.70833
2445.508	466.04167
2447.943	472.70833
2450.376	454.70833
2452.808	461.70833
2455.238	463.04167
2457.667	497.04167
2460.093	459.375
2462.519	462.70833
2464.942	468.04167
2467.365	471.04167
2469.785	484.375
2472.204	480.375
2474.621	466.375
2477.037	487.04167
2479.451	448.04167
2481.863	464.70833
2484.274	460.70833
2486.683	471.70833
2489.091	475.70833
2491.497	461.70833
2493.901	476.70833
2496.304	462.70833
2498.705	473.70833
2501.105	478.04167
2503.503	503.375
2505.899	458.04167
2508.294	486.70833
2510.687	471.70833
2513.079	474.70833
2515.469	457.04167
2517.858	467.04167
2520.245	480.70833
2522.63	470.375
2525.014	465.70833
2527.396	470.04167
2529.776	462.70833
2532.156	478.70833
2534.533	463.04167
2536.909	463.04167
2539.283	454.375
2541.656	468.04167
2544.027	486.04167
2546.397	475.04167
2548.765	463.04167
2551.131	472.375
2553.496	467.70833
2555.86	474.70833
2558.221	471.70833
2560.582	470.04167
2562.94	464.375
2565.298	469.375
2567.653	491.70833
2570.007	469.375
2572.36	483.04167
2574.711	470.375
2577.06	488.375
2579.408	481.375
2581.754	476.375
2584.099	480.375
2586.442	474.70833
2588.784	478.70833
2591.124	486.04167
2593.463	487.375
2595.8	479.375
2598.135	471.70833
2600.469	478.70833
2602.802	482.375
2605.133	493.70833
2607.462	467.375
2609.79	468.70833
2612.116	491.04167
2614.441	494.70833
2616.764	480.70833
2619.086	483.04167
2621.406	467.04167
2623.725	497.04167
2626.042	496.04167
2628.358	478.04167
2630.672	475.04167
2632.985	500.04167
2635.296	489.70833
2637.606	484.70833
2639.914	482.04167
2642.22	488.04167
2644.525	489.04167
2646.829	500.04167
2649.131	505.70833
2651.432	508.04167
2653.731	501.04167
2656.028	502.375
2658.324	510.70833
2660.619	500.04167
2662.912	508.04167
2665.204	491.375
2667.494	513.04167
2669.782	507.70833
2672.07	511.04167
2674.355	516.04167
2676.639	517.375
2678.922	512.70833
2681.203	511.04167
2683.483	501.70833
2685.761	501.70833
2688.038	519.375
2690.313	538.04167
2692.587	520.04167
2694.859	508.375
2697.13	513.375
2699.399	527.375
2701.667	536.375
2703.933	532.04167
2706.198	530.04167
2708.461	545.70833
2710.723	550.375
2712.984	542.04167
2715.243	550.70833
2717.5	538.04167
2719.757	550.70833
2722.011	549.375
2724.264	565.70833
2726.516	568.70833
2728.766	553.375
2731.015	567.04167
2733.262	562.04167
2735.508	566.04167
2737.753	561.70833
2739.996	550.70833
2742.237	551.04167
2744.477	558.375
2746.716	560.04167
2748.953	554.04167
2751.189	552.04167
2753.423	546.04167
2755.656	538.70833
2757.887	539.04167
2760.117	544.375
2762.346	541.375
2764.573	529.04167
2766.798	540.04167
2769.022	548.375
2771.245	552.70833
2773.467	552.375
2775.686	558.04167
2777.905	549.70833
2780.122	560.70833
2782.337	569.70833
2784.552	559.375
2786.764	564.375
2788.976	565.70833
2791.186	570.70833
2793.394	579.375
2795.601	585.375
2797.807	607.04167
2800.011	594.04167
2802.214	613.04167
2804.415	593.04167
2806.615	594.70833
2808.814	599.375
2811.011	616.70833
2813.206	620.70833
2815.401	634.375
2817.594	622.375
2819.785	640.04167
2821.975	635.70833
2824.164	649.70833
2826.351	646.375
2828.537	668.70833
2830.722	674.70833
2832.905	676.375
2835.086	701.70833
2837.267	717.04167
2839.445	735.375
2841.623	735.70833
2843.799	764.04167
2845.974	783.375
2848.147	815.04167
2850.319	826.70833
2852.489	850.04167
2854.659	878.04167
2856.826	869.375
2858.993	898.70833
2861.158	879.375
2863.321	885.375
2865.483	893.70833
2867.644	889.375
2869.804	883.70833
2871.962	890.70833
2874.118	906.375
2876.274	900.04167
2878.428	895.04167
2880.58	882.04167
2882.731	878.70833
2884.881	884.375
2887.03	892.375
2889.177	892.375
2891.322	901.70833
2893.467	892.70833
2895.61	896.375
2897.751	919.375
2899.892	891.375
2902.03	916.70833
2904.168	917.70833
2906.304	916.04167
2908.439	937.375
2910.572	931.04167
2912.704	933.04167
2914.835	939.375
2916.965	931.375
2919.093	956.70833
2921.219	923.04167
2923.345	937.04167
2925.469	916.04167
2927.591	910.04167
2929.712	896.04167
2931.832	897.04167
2933.951	887.04167
2936.068	873.70833
2938.184	863.04167
2940.299	841.04167
2942.412	814.70833
2944.524	791.70833
2946.634	790.04167
2948.744	741.70833
2950.851	774.70833
2952.958	742.70833
2955.063	742.375
2957.167	740.04167
2959.269	718.70833
2961.371	738.04167
2963.471	698.04167
2965.569	717.04167
2967.666	684.375
2969.762	674.70833
2971.857	673.375
2973.95	646.04167
2976.042	653.04167
2978.133	633.70833
2980.222	625.375
2982.31	620.375
2984.396	608.04167
2986.482	604.375
2988.566	596.04167
2990.648	609.04167
2992.73	587.70833
2994.81	589.375
2996.889	586.04167
2998.966	590.375
3001.042	597.04167
3003.117	581.70833
3005.191	589.04167
3007.263	584.04167
3009.334	572.70833
3011.403	572.375
3013.472	560.70833
3015.539	571.70833
3017.604	571.04167
3019.669	544.70833
3021.732	546.04167
3023.794	541.375
3025.854	539.375
3027.914	540.70833
3029.971	558.375
3032.028	531.375
3034.083	541.70833
3036.137	523.375
3038.19	516.70833
3040.242	506.375
3042.292	490.70833
3044.341	493.04167
3046.388	511.04167
3048.435	481.375
3050.48	495.375
3052.524	483.04167
3054.566	463.70833
3056.607	473.70833
3058.647	467.375
3060.686	456.70833
3062.723	439.04167
3064.759	420.70833
3066.794	0.70833
3068.828	4.04167
3070.86	4.70833
