-0.839	554.625
3.438	654.29167
7.711	194.625
11.981	66.625
16.247	49.625
20.509	48.95833
24.768	45.95833
29.024	56.625
33.276	45.625
37.524	50.95833
41.769	48.95833
46.01	38.29167
50.247	51.625
54.481	57.29167
58.712	60.625
62.939	50.29167
67.162	64.625
71.382	60.625
75.599	48.95833
79.812	64.95833
84.021	81.625
88.227	60.625
92.429	61.95833
96.628	54.625
100.823	73.625
105.015	76.95833
109.204	75.625
113.388	80.29167
117.57	80.29167
121.748	93.625
125.922	86.29167
130.093	107.625
134.261	107.29167
138.425	106.95833
142.585	154.95833
146.742	146.625
150.896	183.625
155.046	234.625
159.193	378.95833
163.336	643.29167
167.476	1205.625
171.613	2187.95833
175.746	3610.95833
179.875	5300.29167
184.002	6838.29167
188.124	7787.95833
192.244	8066.625
196.36	7980.625
200.472	7677.29167
204.581	7393.95833
208.687	7098.29167
212.79	6954.95833
216.889	6874.625
220.984	6868.95833
225.077	6807.95833
229.165	6766.625
233.251	6751.29167
237.333	6693.625
241.412	6609.625
245.487	6543.29167
249.559	6420.95833
253.628	6380.29167
257.694	6326.625
261.756	6287.29167
265.814	6135.29167
269.87	5911.625
273.922	5714.95833
277.97	5558.95833
282.016	5457.29167
286.058	5454.625
290.097	5502.625
294.132	5570.29167
298.164	5550.95833
302.193	5310.625
306.219	4958.625
310.241	4607.29167
314.26	4273.625
318.276	3989.29167
322.288	3807.625
326.297	3641.29167
330.303	3540.95833
334.305	3445.625
338.305	3411.95833
342.301	3378.29167
346.294	3340.625
350.283	3318.95833
354.269	3281.625
358.252	3245.29167
362.232	3255.625
366.209	3238.95833
370.182	3190.95833
374.152	3201.95833
378.119	3175.29167
382.083	3200.625
386.043	3191.29167
390	3182.29167
393.954	3237.625
397.905	3250.625
401.852	3235.29167
405.797	3181.625
409.738	3327.95833
413.676	3434.625
417.61	3561.625
421.542	3255.29167
425.47	3088.625
429.396	3061.625
433.318	3037.95833
437.236	3020.95833
441.152	3032.625
445.065	2991.625
448.974	2984.95833
452.88	2933.29167
456.783	2938.95833
460.683	2919.95833
464.58	2915.625
468.473	2912.95833
472.364	2926.29167
476.251	2924.29167
480.135	2958.29167
484.016	3029.95833
487.894	3011.95833
491.769	3015.29167
495.641	3038.95833
499.509	3013.625
503.375	3030.625
507.237	3006.625
511.096	3004.29167
514.952	2994.29167
518.805	2997.625
522.655	3010.29167
526.502	3002.95833
530.346	3001.95833
534.187	3000.625
538.024	3014.95833
541.859	3035.625
545.69	3052.29167
549.519	3044.625
553.344	3028.625
557.166	3006.95833
560.985	2964.95833
564.802	2927.29167
568.615	2867.29167
572.425	2826.29167
576.232	2837.29167
580.036	2832.95833
583.836	2836.95833
587.634	2839.625
591.429	2856.625
595.221	2896.29167
599.01	2916.95833
602.796	2957.625
606.578	2961.95833
610.358	2969.95833
614.135	2928.625
617.909	2932.625
621.679	2917.95833
625.447	2899.29167
629.212	2904.625
632.973	2928.29167
636.732	2951.625
640.488	2924.95833
644.241	2874.95833
647.991	2873.29167
651.737	2883.29167
655.481	2868.95833
659.222	2862.95833
662.96	2858.625
666.695	2877.95833
670.427	2883.95833
674.156	2911.625
677.882	2915.95833
681.605	2879.29167
685.325	2866.29167
689.043	2866.95833
692.757	2847.95833
696.468	2817.625
700.177	2815.95833
703.882	2802.29167
707.585	2786.29167
711.284	2784.95833
714.981	2778.95833
718.675	2806.625
722.366	2774.95833
726.054	2771.95833
729.739	2790.625
733.421	2808.625
737.1	2756.29167
740.777	2816.95833
744.45	2815.29167
748.121	2834.625
751.789	2880.95833
755.453	2872.625
759.115	2887.95833
762.774	2904.625
766.431	2922.95833
770.084	2946.625
773.734	2943.29167
777.382	3001.29167
781.027	3010.95833
784.669	3040.625
788.308	3021.95833
791.944	3056.29167
795.577	3051.95833
799.208	3095.95833
802.835	3092.625
806.46	3124.625
810.082	3133.625
813.701	3152.29167
817.317	3177.29167
820.931	3174.625
824.542	3146.95833
828.149	3113.29167
831.754	3079.29167
835.357	3073.29167
838.956	3093.95833
842.553	3165.625
846.146	3158.625
849.737	3072.29167
853.326	3022.625
856.911	3038.95833
860.493	3069.625
864.073	3152.95833
867.65	3302.625
871.225	3298.625
874.796	3166.625
878.365	3161.625
881.931	3159.95833
885.494	3188.95833
889.054	3160.95833
892.612	3166.29167
896.166	3148.29167
899.719	3103.95833
903.268	3075.625
906.814	3071.625
910.358	3053.95833
913.899	3040.95833
917.438	3049.95833
920.973	3031.625
924.506	3068.625
928.036	3115.29167
931.564	3150.625
935.088	3171.625
938.61	3172.29167
942.129	3189.95833
945.646	3254.625
949.16	3323.625
952.671	3406.29167
956.179	3378.29167
959.685	3393.625
963.188	3381.625
966.688	3366.29167
970.185	3257.625
973.68	3179.29167
977.173	3126.625
980.662	3105.95833
984.149	3103.29167
987.633	3087.95833
991.114	3120.625
994.593	3199.625
998.069	3257.625
1001.542	3348.625
1005.013	3325.95833
1008.481	3116.625
1011.947	3060.95833
1015.409	3054.625
1018.869	3060.29167
1022.327	3045.95833
1025.782	2996.95833
1029.234	3007.29167
1032.683	2968.625
1036.13	2885.95833
1039.574	2789.625
1043.016	2736.29167
1046.455	2677.29167
1049.891	2649.29167
1053.325	2663.29167
1056.756	2670.625
1060.184	2682.625
1063.61	2676.95833
1067.033	2694.29167
1070.454	2697.29167
1073.872	2731.625
1077.287	2706.95833
1080.7	2720.29167
1084.11	2725.625
1087.517	2702.29167
1090.922	2670.29167
1094.325	2635.625
1097.724	2604.29167
1101.122	2610.29167
1104.516	2612.29167
1107.908	2610.625
1111.298	2636.95833
1114.684	2654.95833
1118.069	2678.29167
1121.45	2729.95833
1124.83	2699.625
1128.206	2747.625
1131.58	2777.95833
1134.951	2841.95833
1138.32	2916.29167
1141.687	3028.625
1145.05	3083.95833
1148.412	3104.625
1151.77	3066.625
1155.126	3069.95833
1158.48	3050.95833
1161.831	3058.95833
1165.18	3061.95833
1168.525	3102.29167
1171.869	3143.625
1175.21	3137.625
1178.548	3197.29167
1181.884	3233.625
1185.217	3247.29167
1188.548	3330.95833
1191.877	3392.29167
1195.202	3487.29167
1198.526	3539.625
1201.846	3599.95833
1205.165	3583.95833
1208.48	3575.95833
1211.794	3548.625
1215.104	3550.625
1218.413	3529.95833
1221.719	3557.625
1225.022	3515.29167
1228.323	3449.95833
1231.621	3431.29167
1234.917	3386.29167
1238.21	3404.29167
1241.501	3398.29167
1244.79	3369.625
1248.076	3365.625
1251.359	3392.29167
1254.64	3472.29167
1257.919	3506.625
1261.195	3558.95833
1264.468	3637.95833
1267.74	3661.95833
1271.008	3653.95833
1274.275	3677.29167
1277.538	3632.625
1280.8	3649.95833
1284.059	3624.95833
1287.315	3663.29167
1290.569	3668.95833
1293.821	3690.95833
1297.07	3711.625
1300.317	3713.29167
1303.562	3709.625
1306.803	3680.95833
1310.043	3646.625
1313.28	3629.625
1316.515	3612.95833
1319.747	3589.95833
1322.977	3543.625
1326.204	3504.95833
1329.429	3449.95833
1332.652	3449.95833
1335.872	3436.29167
1339.09	3406.29167
1342.306	3392.625
1345.519	3357.95833
1348.729	3329.625
1351.938	3338.625
1355.144	3293.95833
1358.347	3275.29167
1361.548	3230.625
1364.747	3225.29167
1367.944	3205.29167
1371.138	3180.625
1374.329	3194.95833
1377.518	3236.625
1380.705	3247.625
1383.89	3241.95833
1387.072	3120.95833
1390.252	3002.625
1393.429	2888.95833
1396.605	2839.29167
1399.777	2734.29167
1402.948	2722.625
1406.116	2705.625
1409.282	2688.95833
1412.445	2692.29167
1415.606	2703.625
1418.765	2746.29167
1421.921	2783.29167
1425.075	2854.29167
1428.227	2981.625
1431.376	3081.95833
1434.524	3199.95833
1437.668	3287.95833
1440.811	3313.625
1443.951	3344.625
1447.089	3352.95833
1450.224	3340.95833
1453.357	3321.29167
1456.488	3329.625
1459.617	3337.625
1462.743	3230.95833
1465.867	3132.95833
1468.989	3092.625
1472.108	3039.625
1475.225	2994.29167
1478.34	2960.625
1481.453	2953.29167
1484.563	2972.625
1487.671	2973.95833
1490.776	3026.95833
1493.88	3069.95833
1496.981	3112.95833
1500.08	3172.29167
1503.176	3185.625
1506.271	3227.625
1509.363	3289.29167
1512.452	3328.95833
1515.54	3370.29167
1518.625	3421.29167
1521.708	3494.625
1524.789	3607.29167
1527.867	3737.29167
1530.944	3912.95833
1534.018	4099.95833
1537.089	4251.29167
1540.159	4279.625
1543.226	4273.625
1546.291	4203.95833
1549.354	4073.95833
1552.415	3997.625
1555.473	3881.29167
1558.529	3813.29167
1561.583	3784.625
1564.634	3730.95833
1567.684	3750.29167
1570.731	3736.29167
1573.776	3801.95833
1576.819	3862.95833
1579.859	3894.625
1582.898	3962.95833
1585.934	3986.29167
1588.968	3975.29167
1591.999	3979.625
1595.029	3988.625
1598.056	4037.95833
1601.081	4026.95833
1604.104	4020.625
1607.125	4004.625
1610.144	3926.95833
1613.16	3822.29167
1616.174	3747.95833
1619.186	3681.95833
1622.196	3575.95833
1625.203	3487.625
1628.209	3458.95833
1631.212	3442.29167
1634.213	3441.95833
1637.212	3452.625
1640.209	3400.95833
1643.203	3337.625
1646.196	3243.95833
1649.186	3089.29167
1652.174	2977.625
1655.16	2868.625
1658.144	2795.29167
1661.125	2679.625
1664.105	2566.625
1667.082	2425.95833
1670.057	2319.625
1673.03	2175.95833
1676.001	2046.29167
1678.97	1923.625
1681.937	1799.29167
1684.901	1707.625
1687.863	1648.625
1690.824	1558.625
1693.782	1534.625
1696.738	1499.29167
1699.692	1443.625
1702.643	1418.625
1705.593	1397.29167
1708.54	1372.95833
1711.486	1383.95833
1714.429	1343.625
1717.37	1333.29167
1720.309	1312.625
1723.246	1324.95833
1726.181	1290.625
1729.113	1304.625
1732.044	1263.29167
1734.972	1265.625
1737.899	1282.625
1740.823	1272.29167
1743.745	1279.95833
1746.665	1219.95833
1749.583	1194.625
1752.499	1194.625
1755.413	1189.29167
1758.325	1152.625
1761.235	1147.95833
1764.142	1130.625
1767.048	1115.625
1769.951	1116.95833
1772.852	1121.625
1775.752	1197.29167
1778.649	1283.95833
1781.544	1156.95833
1784.437	1094.29167
1787.328	1096.625
1790.217	1066.95833
1793.104	1039.95833
1795.989	1062.95833
1798.872	1032.95833
1801.753	1057.95833
1804.631	1039.625
1807.508	1064.625
1810.383	1046.95833
1813.255	1024.95833
1816.126	1033.625
1818.994	1023.29167
1821.861	1009.625
1824.725	1020.625
1827.587	1004.95833
1830.448	996.625
1833.306	981.29167
1836.162	985.95833
1839.017	989.29167
1841.869	970.95833
1844.719	981.95833
1847.567	959.95833
1850.414	951.95833
1853.258	962.95833
1856.1	971.625
1858.94	984.625
1861.778	958.29167
1864.614	950.95833
1867.448	960.625
1870.28	942.95833
1873.111	975.625
1875.939	961.29167
1878.765	966.29167
1881.589	934.29167
1884.411	950.95833
1887.231	947.29167
1890.049	927.95833
1892.865	943.29167
1895.68	935.95833
1898.492	957.625
1901.302	919.625
1904.11	926.625
1906.916	918.29167
1909.721	901.95833
1912.523	909.29167
1915.323	893.95833
1918.122	892.95833
1920.918	913.95833
1923.712	884.95833
1926.505	872.29167
1929.295	867.29167
1932.084	904.29167
1934.87	883.95833
1937.655	876.95833
1940.438	877.625
1943.218	884.95833
1945.997	866.29167
1948.774	881.625
1951.549	883.625
1954.322	874.625
1957.093	867.29167
1959.862	848.625
1962.629	848.29167
1965.394	858.625
1968.157	844.625
1970.918	841.625
1973.678	835.625
1976.435	852.29167
1979.19	828.95833
1981.944	831.95833
1984.696	835.95833
1987.445	821.29167
1990.193	826.95833
1992.939	845.29167
1995.683	821.625
1998.425	799.29167
2001.165	832.29167
2003.903	802.625
2006.639	811.625
2009.374	816.29167
2012.106	803.95833
2014.837	795.95833
2017.566	801.625
2020.292	798.95833
2023.017	789.95833
2025.74	800.29167
2028.461	786.625
2031.18	797.95833
2033.898	785.29167
2036.613	790.95833
2039.327	794.95833
2042.038	772.95833
2044.748	770.625
2047.456	775.95833
2050.162	763.95833
2052.866	755.95833
2055.568	769.625
2058.268	751.95833
2060.967	766.625
2063.663	746.625
2066.358	760.95833
2069.051	756.29167
2071.742	759.95833
2074.431	770.29167
2077.118	746.95833
2079.804	742.625
2082.487	742.95833
2085.169	750.95833
2087.849	761.95833
2090.527	742.29167
2093.203	749.29167
2095.877	755.29167
2098.55	759.95833
2101.22	764.625
2103.889	760.95833
2106.556	775.29167
2109.221	780.625
2111.884	792.625
2114.546	839.95833
2117.205	874.625
2119.863	929.625
2122.519	979.625
2125.173	1045.29167
2127.825	1094.625
2130.475	1111.625
2133.124	1068.625
2135.771	1038.625
2138.416	1010.29167
2141.059	939.625
2143.7	896.29167
2146.339	861.625
2148.977	813.29167
2151.613	804.29167
2154.247	765.95833
2156.879	763.625
2159.51	736.95833
2162.138	727.95833
2164.765	719.95833
2167.39	710.625
2170.013	723.625
2172.634	707.625
2175.254	698.625
2177.872	727.95833
2180.488	682.29167
2183.102	690.29167
2185.714	684.29167
2188.325	662.625
2190.934	665.95833
2193.541	678.95833
2196.146	652.29167
2198.75	649.625
2201.351	656.29167
2203.951	638.625
2206.549	661.29167
2209.146	637.29167
2211.74	636.95833
2214.333	636.29167
2216.924	622.95833
2219.514	626.625
2222.101	624.95833
2224.687	642.625
2227.271	629.29167
2229.853	618.29167
2232.433	600.625
2235.012	616.625
2237.589	611.625
2240.164	624.95833
2242.738	609.29167
2245.309	599.95833
2247.879	611.95833
2250.448	607.29167
2253.014	585.95833
2255.579	572.29167
2258.142	582.95833
2260.703	567.625
2263.262	574.29167
2265.82	564.95833
2268.376	573.29167
2270.93	549.95833
2273.483	554.625
2276.033	560.95833
2278.583	554.95833
2281.13	546.625
2283.675	550.95833
2286.219	530.625
2288.761	543.625
2291.302	557.29167
2293.841	557.625
2296.377	542.625
2298.913	540.29167
2301.446	555.625
2303.978	539.29167
2306.508	532.29167
2309.037	529.29167
2311.563	528.95833
2314.088	542.95833
2316.612	507.29167
2319.133	513.29167
2321.653	526.95833
2324.171	521.625
2326.688	528.95833
2329.202	515.95833
2331.715	517.29167
2334.227	503.95833
2336.736	511.29167
2339.244	506.625
2341.751	492.29167
2344.255	508.29167
2346.758	503.625
2349.259	493.95833
2351.759	500.95833
2354.257	493.29167
2356.753	479.625
2359.247	493.625
2361.74	487.95833
2364.231	497.95833
2366.721	486.625
2369.209	480.95833
2371.695	488.95833
2374.179	483.95833
2376.662	478.29167
2379.143	494.29167
2381.622	476.625
2384.1	502.95833
2386.576	485.95833
2389.051	494.95833
2391.524	495.625
2393.995	485.29167
2396.464	469.625
2398.932	469.29167
2401.398	466.625
2403.863	465.625
2406.325	463.95833
2408.787	469.29167
2411.246	459.29167
2413.704	460.29167
2416.16	461.29167
2418.615	457.625
2421.068	469.95833
2423.519	464.95833
2425.969	454.95833
2428.417	459.95833
2430.863	480.95833
2433.308	459.625
2435.751	460.29167
2438.193	456.29167
2440.633	454.625
2443.071	465.95833
2445.508	446.95833
2447.943	448.625
2450.376	437.29167
2452.808	440.625
2455.238	435.29167
2457.667	477.29167
2460.093	436.95833
2462.519	432.625
2464.942	439.29167
2467.365	442.29167
2469.785	442.29167
2472.204	438.29167
2474.621	419.625
2477.037	445.29167
2479.451	413.625
2481.863	413.95833
2484.274	424.95833
2486.683	435.29167
2489.091	427.29167
2491.497	415.95833
2493.901	428.29167
2496.304	411.29167
2498.705	421.29167
2501.105	416.29167
2503.503	454.625
2505.899	405.95833
2508.294	432.625
2510.687	413.29167
2513.079	416.95833
2515.469	407.625
2517.858	417.95833
2520.245	422.29167
2522.63	406.95833
2525.014	400.95833
2527.396	397.95833
2529.776	396.95833
2532.156	417.625
2534.533	395.625
2536.909	390.625
2539.283	384.29167
2541.656	391.29167
2544.027	412.29167
2546.397	401.29167
2548.765	392.29167
2551.131	394.95833
2553.496	387.625
2555.86	395.95833
2558.221	392.625
2560.582	396.95833
2562.94	373.29167
2565.298	380.95833
2567.653	402.95833
2570.007	377.29167
2572.36	399.625
2574.711	374.29167
2577.06	405.625
2579.408	392.625
2581.754	381.95833
2584.099	396.29167
2586.442	378.95833
2588.784	390.625
2591.124	381.625
2593.463	379.625
2595.8	387.625
2598.135	366.95833
2600.469	372.625
2602.802	390.29167
2605.133	382.95833
2607.462	370.29167
2609.79	365.29167
2612.116	385.95833
2614.441	376.95833
2616.764	372.625
2619.086	373.625
2621.406	364.95833
2623.725	382.95833
2626.042	381.625
2628.358	368.625
2630.672	365.625
2632.985	377.29167
2635.296	363.29167
2637.606	373.95833
2639.914	362.625
2642.22	360.625
2644.525	363.625
2646.829	376.95833
2649.131	382.625
2651.432	380.625
2653.731	367.29167
2656.028	387.29167
2658.324	384.625
2660.619	372.95833
2662.912	381.29167
2665.204	359.29167
2667.494	380.29167
2669.782	370.29167
2672.07	375.29167
2674.355	379.625
2676.639	376.29167
2678.922	359.625
2681.203	366.95833
2683.483	367.29167
2685.761	361.29167
2688.038	376.95833
2690.313	392.29167
2692.587	374.625
2694.859	364.625
2697.13	369.95833
2699.399	378.95833
2701.667	388.625
2703.933	384.95833
2706.198	388.29167
2708.461	392.29167
2710.723	395.625
2712.984	384.95833
2715.243	391.625
2717.5	385.625
2719.757	403.29167
2722.011	388.29167
2724.264	407.625
2726.516	407.95833
2728.766	390.625
2731.015	394.29167
2733.262	394.625
2735.508	395.29167
2737.753	387.625
2739.996	381.95833
2742.237	376.95833
2744.477	386.29167
2746.716	387.95833
2748.953	375.29167
2751.189	386.95833
2753.423	371.95833
2755.656	365.625
2757.887	364.29167
2760.117	363.29167
2762.346	360.95833
2764.573	361.29167
2766.798	357.95833
2769.022	363.29167
2771.245	362.625
2773.467	367.625
2775.686	368.29167
2777.905	364.625
2780.122	372.29167
2782.337	389.29167
2784.552	373.95833
2786.764	375.95833
2788.976	384.625
2791.186	386.95833
2793.394	383.95833
2795.601	391.29167
2797.807	411.95833
2800.011	403.29167
2802.214	401.29167
2804.415	406.29167
2806.615	408.29167
2808.814	409.625
2811.011	426.95833
2813.206	423.29167
2815.401	441.29167
2817.594	443.29167
2819.785	462.625
2821.975	444.95833
2824.164	453.625
2826.351	469.625
2828.537	483.29167
2830.722	485.95833
2832.905	476.95833
2835.086	517.29167
2837.267	548.625
2839.445	566.95833
2841.623	569.29167
2843.799	597.95833
2845.974	642.625
2848.147	674.29167
2850.319	711.95833
2852.489	736.625
2854.659	747.625
2856.826	745.625
2858.993	796.29167
2861.158	757.29167
2863.321	771.625
2865.483	784.95833
2867.644	789.625
2869.804	785.625
2871.962	793.95833
2874.118	811.625
2876.274	867.625
2878.428	847.95833
2880.58	819.625
2882.731	800.625
2884.881	794.625
2887.03	796.95833
2889.177	797.95833
2891.322	802.625
2893.467	788.625
2895.61	795.29167
2897.751	816.95833
2899.892	806.95833
2902.03	806.625
2904.168	820.29167
2906.304	808.29167
2908.439	833.95833
2910.572	812.625
2912.704	831.625
2914.835	828.29167
2916.965	832.625
2919.093	845.625
2921.219	806.95833
2923.345	836.29167
2925.469	801.29167
2927.591	786.29167
2929.712	770.95833
2931.832	766.625
2933.951	752.625
2936.068	731.95833
2938.184	716.29167
2940.299	698.29167
2942.412	679.29167
2944.524	638.29167
2946.634	632.29167
2948.744	582.95833
2950.851	605.95833
2952.958	554.95833
2955.063	565.95833
2957.167	539.95833
2959.269	508.29167
2961.371	521.625
2963.471	492.625
2965.569	498.95833
2967.666	468.95833
2969.762	458.95833
2971.857	446.29167
2973.95	422.625
2976.042	426.29167
2978.133	408.29167
2980.222	396.625
2982.31	385.95833
2984.396	369.95833
2986.482	363.29167
2988.566	368.95833
2990.648	352.95833
2992.73	347.29167
2994.81	335.29167
2996.889	345.29167
2998.966	334.95833
3001.042	352.29167
3003.117	337.95833
3005.191	330.95833
3007.263	331.29167
3009.334	323.29167
3011.403	320.29167
3013.472	312.95833
3015.539	313.625
3017.604	315.95833
3019.669	283.29167
3021.732	289.95833
3023.794	286.95833
3025.854	280.29167
3027.914	286.95833
3029.971	292.95833
3032.028	279.29167
3034.083	282.29167
3036.137	281.95833
3038.19	259.625
3040.242	260.95833
3042.292	253.29167
3044.341	259.625
3046.388	268.29167
3048.435	240.95833
3050.48	264.625
3052.524	248.625
3054.566	234.29167
3056.607	250.29167
3058.647	235.625
3060.686	229.95833
3062.723	227.29167
3064.759	215.29167
3066.794	0.625
3068.828	2.29167
3070.86	3.29167
