-0.839	392.45833
3.438	462.45833
7.711	141.125
11.981	55.79167
16.247	43.125
20.509	48.125
24.768	46.79167
29.024	55.125
33.276	45.45833
37.524	50.125
41.769	48.45833
46.01	34.45833
50.247	43.79167
54.481	58.79167
58.712	62.45833
62.939	48.79167
67.162	64.45833
71.382	55.125
75.599	44.79167
79.812	58.79167
84.021	78.45833
88.227	58.45833
92.429	57.45833
96.628	53.45833
100.823	67.79167
105.015	73.79167
109.204	66.125
113.388	76.79167
117.57	72.79167
121.748	88.125
125.922	75.45833
130.093	94.79167
134.261	96.79167
138.425	96.125
142.585	134.125
146.742	130.125
150.896	158.45833
155.046	194.45833
159.193	314.79167
163.336	530.79167
167.476	983.79167
171.613	1805.45833
175.746	3031.79167
179.875	4519.79167
184.002	5862.125
188.124	6799.45833
192.244	7049.125
196.36	6944.125
200.472	6672.79167
204.581	6432.79167
208.687	6188.79167
212.79	6099.45833
216.889	6016.45833
220.984	5947.45833
225.077	5937.45833
229.165	5916.45833
233.251	5862.45833
237.333	5824.79167
241.412	5733.45833
245.487	5631.45833
249.559	5548.79167
253.628	5508.45833
257.694	5417.45833
261.756	5381.45833
265.814	5268.45833
269.87	5100.79167
273.922	4907.79167
277.97	4843.125
282.016	4774.125
286.058	4798.79167
290.097	4892.125
294.132	4924.79167
298.164	4845.79167
302.193	4677.125
306.219	4308.125
310.241	3950.79167
314.26	3633.45833
318.276	3378.45833
322.288	3219.45833
326.297	3078.79167
330.303	2971.79167
334.305	2888.79167
338.305	2857.79167
342.301	2775.125
346.294	2788.45833
350.283	2749.45833
354.269	2716.45833
358.252	2677.79167
362.232	2645.79167
366.209	2649.125
370.182	2614.79167
374.152	2582.79167
378.119	2579.79167
382.083	2575.79167
386.043	2583.79167
390	2554.79167
393.954	2567.45833
397.905	2544.45833
401.852	2555.45833
405.797	2517.125
409.738	2516.45833
413.676	2491.79167
417.61	2514.45833
421.542	2466.125
425.47	2443.79167
429.396	2424.125
433.318	2413.79167
437.236	2401.45833
441.152	2428.79167
445.065	2363.125
448.974	2359.45833
452.88	2332.79167
456.783	2301.79167
460.683	2293.45833
464.58	2283.79167
468.473	2298.125
472.364	2293.79167
476.251	2309.79167
480.135	2340.79167
484.016	2363.79167
487.894	2359.79167
491.769	2362.45833
495.641	2360.79167
499.509	2368.79167
503.375	2367.45833
507.237	2366.45833
511.096	2363.79167
514.952	2429.125
518.805	2505.45833
522.655	2552.79167
526.502	2457.79167
530.346	2382.125
534.187	2381.45833
538.024	2388.45833
541.859	2376.125
545.69	2400.79167
549.519	2401.45833
553.344	2369.45833
557.166	2339.125
560.985	2313.125
564.802	2251.125
568.615	2232.79167
572.425	2194.125
576.232	2180.45833
580.036	2170.45833
583.836	2185.45833
587.634	2193.45833
591.429	2211.79167
595.221	2267.45833
599.01	2277.79167
602.796	2295.45833
606.578	2324.125
610.358	2306.125
614.135	2287.45833
617.909	2272.79167
621.679	2246.79167
625.447	2247.79167
629.212	2257.45833
632.973	2240.79167
636.732	2247.45833
640.488	2249.79167
644.241	2228.45833
647.991	2210.125
651.737	2225.79167
655.481	2209.79167
659.222	2209.45833
662.96	2192.79167
666.695	2222.45833
670.427	2237.79167
674.156	2239.125
677.882	2232.79167
681.605	2225.45833
685.325	2202.45833
689.043	2192.45833
692.757	2174.45833
696.468	2186.125
700.177	2192.79167
703.882	2155.125
707.585	2119.45833
711.284	2163.45833
714.981	2144.45833
718.675	2162.45833
722.366	2179.79167
726.054	2165.45833
729.739	2154.125
733.421	2163.45833
737.1	2158.45833
740.777	2185.125
744.45	2197.125
748.121	2212.125
751.789	2251.45833
755.453	2240.125
759.115	2273.79167
762.774	2276.125
766.431	2295.125
770.084	2320.125
773.734	2343.45833
777.382	2354.45833
781.027	2379.79167
784.669	2387.45833
788.308	2405.79167
791.944	2431.79167
795.577	2443.45833
799.208	2461.125
802.835	2478.45833
806.46	2485.45833
810.082	2502.125
813.701	2485.79167
817.317	2493.79167
820.931	2529.45833
824.542	2529.79167
828.149	2488.79167
831.754	2466.125
835.357	2462.79167
838.956	2482.125
842.553	2464.125
846.146	2445.79167
849.737	2439.125
853.326	2455.79167
856.911	2449.45833
860.493	2481.79167
864.073	2496.125
867.65	2540.45833
871.225	2563.45833
874.796	2547.45833
878.365	2562.79167
881.931	2574.45833
885.494	2591.79167
889.054	2590.79167
892.612	2595.125
896.166	2564.79167
899.719	2543.79167
903.268	2502.79167
906.814	2487.45833
910.358	2453.45833
913.899	2465.45833
917.438	2455.79167
920.973	2445.125
924.506	2488.79167
928.036	2530.125
931.564	2576.45833
935.088	2616.79167
938.61	2622.45833
942.129	2653.45833
945.646	2730.79167
949.16	2768.125
952.671	2795.79167
956.179	2792.125
959.685	2771.79167
963.188	2782.79167
966.688	2726.45833
970.185	2660.79167
973.68	2593.79167
977.173	2567.125
980.662	2505.79167
984.149	2505.45833
987.633	2510.125
991.114	2552.125
994.593	2593.45833
998.069	2690.45833
1001.542	2756.79167
1005.013	2698.45833
1008.481	2557.125
1011.947	2534.45833
1015.409	2487.45833
1018.869	2483.125
1022.327	2486.79167
1025.782	2446.79167
1029.234	2460.45833
1032.683	2426.79167
1036.13	2320.79167
1039.574	2254.125
1043.016	2186.45833
1046.455	2157.79167
1049.891	2132.125
1053.325	2165.125
1056.756	2165.125
1060.184	2174.125
1063.61	2184.125
1067.033	2199.125
1070.454	2194.125
1073.872	2225.79167
1077.287	2179.79167
1080.7	2226.125
1084.11	2218.45833
1087.517	2190.45833
1090.922	2158.79167
1094.325	2146.79167
1097.724	2132.79167
1101.122	2125.79167
1104.516	2130.79167
1107.908	2124.125
1111.298	2154.125
1114.684	2182.79167
1118.069	2208.45833
1121.45	2242.79167
1124.83	2225.125
1128.206	2256.79167
1131.58	2307.45833
1134.951	2351.125
1138.32	2416.79167
1141.687	2503.45833
1145.05	2574.79167
1148.412	2570.45833
1151.77	2542.125
1155.126	2537.45833
1158.48	2525.79167
1161.831	2556.125
1165.18	2558.45833
1168.525	2592.45833
1171.869	2611.45833
1175.21	2631.79167
1178.548	2652.79167
1181.884	2689.125
1185.217	2701.45833
1188.548	2779.125
1191.877	2814.125
1195.202	2938.45833
1198.526	2949.45833
1201.846	3003.125
1205.165	2980.125
1208.48	2972.45833
1211.794	2944.125
1215.104	2975.79167
1218.413	2979.45833
1221.719	2984.45833
1225.022	2932.79167
1228.323	2870.125
1231.621	2862.45833
1234.917	2824.125
1238.21	2853.45833
1241.501	2828.79167
1244.79	2814.79167
1248.076	2803.125
1251.359	2829.45833
1254.64	2899.79167
1257.919	2936.125
1261.195	2968.125
1264.468	3037.45833
1267.74	3057.125
1271.008	3069.79167
1274.275	3049.79167
1277.538	3014.45833
1280.8	3041.45833
1284.059	3011.125
1287.315	3079.125
1290.569	3097.45833
1293.821	3120.125
1297.07	3136.45833
1300.317	3154.125
1303.562	3137.79167
1306.803	3082.45833
1310.043	3093.45833
1313.28	3047.79167
1316.515	3015.45833
1319.747	2981.45833
1322.977	2955.125
1326.204	2929.45833
1329.429	2873.45833
1332.652	2876.79167
1335.872	2839.45833
1339.09	2793.79167
1342.306	2781.79167
1345.519	2760.79167
1348.729	2753.125
1351.938	2748.79167
1355.144	2716.45833
1358.347	2683.79167
1361.548	2666.45833
1364.747	2674.45833
1367.944	2628.79167
1371.138	2660.45833
1374.329	2676.45833
1377.518	2707.125
1380.705	2717.125
1383.89	2682.45833
1387.072	2574.79167
1390.252	2483.79167
1393.429	2395.45833
1396.605	2341.45833
1399.777	2264.125
1402.948	2235.125
1406.116	2222.125
1409.282	2230.45833
1412.445	2203.45833
1415.606	2253.45833
1418.765	2289.79167
1421.921	2319.45833
1425.075	2384.45833
1428.227	2471.79167
1431.376	2582.125
1434.524	2684.125
1437.668	2728.79167
1440.811	2786.45833
1443.951	2795.125
1447.089	2786.45833
1450.224	2785.79167
1453.357	2771.45833
1456.488	2749.125
1459.617	2718.79167
1462.743	2659.79167
1465.867	2578.125
1468.989	2549.45833
1472.108	2511.125
1475.225	2456.79167
1478.34	2410.125
1481.453	2425.45833
1484.563	2417.45833
1487.671	2491.45833
1490.776	2506.45833
1493.88	2548.125
1496.981	2592.79167
1500.08	2625.45833
1503.176	2658.45833
1506.271	2689.79167
1509.363	2704.45833
1512.452	2724.125
1515.54	2775.125
1518.625	2813.125
1521.708	2889.45833
1524.789	2950.45833
1527.867	3069.125
1530.944	3206.125
1534.018	3387.125
1537.089	3506.79167
1540.159	3556.125
1543.226	3545.45833
1546.291	3454.125
1549.354	3399.125
1552.415	3328.45833
1555.473	3223.45833
1558.529	3196.45833
1561.583	3149.125
1564.634	3141.79167
1567.684	3138.125
1570.731	3148.79167
1573.776	3187.125
1576.819	3214.45833
1579.859	3268.45833
1582.898	3321.125
1585.934	3345.45833
1588.968	3355.45833
1591.999	3339.125
1595.029	3341.125
1598.056	3375.79167
1601.081	3367.125
1604.104	3364.125
1607.125	3331.125
1610.144	3263.79167
1613.16	3211.125
1616.174	3112.45833
1619.186	3015.45833
1622.196	2945.125
1625.203	2852.79167
1628.209	2825.45833
1631.212	2804.125
1634.213	2768.125
1637.212	2752.45833
1640.209	2714.125
1643.203	2670.125
1646.196	2580.45833
1649.186	2489.45833
1652.174	2413.45833
1655.16	2331.79167
1658.144	2284.79167
1661.125	2185.79167
1664.105	2080.125
1667.082	1984.125
1670.057	1887.79167
1673.03	1758.125
1676.001	1642.79167
1678.97	1541.45833
1681.937	1453.45833
1684.901	1374.125
1687.863	1333.79167
1690.824	1250.79167
1693.782	1248.79167
1696.738	1185.45833
1699.692	1162.45833
1702.643	1128.125
1705.593	1116.45833
1708.54	1112.45833
1711.486	1119.125
1714.429	1079.79167
1717.37	1076.125
1720.309	1040.45833
1723.246	1065.45833
1726.181	1036.125
1729.113	1040.79167
1732.044	1019.45833
1734.972	1009.45833
1737.899	1010.125
1740.823	1015.45833
1743.745	971.125
1746.665	965.79167
1749.583	950.125
1752.499	939.45833
1755.413	944.45833
1758.325	918.45833
1761.235	908.125
1764.142	886.79167
1767.048	885.125
1769.951	888.79167
1772.852	876.125
1775.752	862.45833
1778.649	870.125
1781.544	882.125
1784.437	837.45833
1787.328	854.79167
1790.217	848.125
1793.104	823.45833
1795.989	824.45833
1798.872	826.125
1801.753	837.45833
1804.631	820.79167
1807.508	837.45833
1810.383	824.79167
1813.255	823.45833
1816.126	826.125
1818.994	809.45833
1821.861	803.79167
1824.725	808.79167
1827.587	814.125
1830.448	798.125
1833.306	774.79167
1836.162	786.125
1839.017	785.79167
1841.869	783.45833
1844.719	781.45833
1847.567	763.125
1850.414	761.79167
1853.258	762.45833
1856.1	774.45833
1858.94	774.45833
1861.778	773.45833
1864.614	767.45833
1867.448	768.45833
1870.28	741.79167
1873.111	774.79167
1875.939	757.125
1878.765	771.125
1881.589	753.45833
1884.411	752.125
1887.231	756.79167
1890.049	750.125
1892.865	754.79167
1895.68	746.125
1898.492	759.125
1901.302	744.45833
1904.11	737.125
1906.916	733.79167
1909.721	714.125
1912.523	729.125
1915.323	717.45833
1918.122	725.79167
1920.918	728.125
1923.712	719.79167
1926.505	703.45833
1929.295	706.79167
1932.084	721.45833
1934.87	717.79167
1937.655	698.125
1940.438	703.125
1943.218	700.45833
1945.997	713.45833
1948.774	721.45833
1951.549	707.125
1954.322	705.125
1957.093	698.79167
1959.862	698.79167
1962.629	691.45833
1965.394	698.125
1968.157	685.79167
1970.918	680.45833
1973.678	675.125
1976.435	691.79167
1979.19	683.45833
1981.944	666.79167
1984.696	669.79167
1987.445	659.125
1990.193	679.45833
1992.939	680.79167
1995.683	675.45833
1998.425	661.79167
2001.165	682.125
2003.903	660.45833
2006.639	673.79167
2009.374	677.45833
2012.106	663.45833
2014.837	645.45833
2017.566	666.79167
2020.292	659.45833
2023.017	655.45833
2025.74	653.79167
2028.461	658.45833
2031.18	647.125
2033.898	654.79167
2036.613	649.45833
2039.327	645.79167
2042.038	641.125
2044.748	649.79167
2047.456	647.45833
2050.162	633.45833
2052.866	637.79167
2055.568	640.125
2058.268	628.125
2060.967	638.79167
2063.663	635.125
2066.358	624.125
2069.051	630.125
2071.742	635.45833
2074.431	632.45833
2077.118	617.79167
2079.804	621.45833
2082.487	622.79167
2085.169	648.125
2087.849	649.125
2090.527	627.79167
2093.203	640.79167
2095.877	644.79167
2098.55	647.125
2101.22	653.79167
2103.889	655.45833
2106.556	647.125
2109.221	680.79167
2111.884	682.45833
2114.546	728.45833
2117.205	760.79167
2119.863	822.79167
2122.519	851.79167
2125.173	893.79167
2127.825	939.79167
2130.475	937.125
2133.124	917.45833
2135.771	871.79167
2138.416	853.79167
2141.059	791.125
2143.7	765.45833
2146.339	722.45833
2148.977	689.125
2151.613	691.45833
2154.247	673.45833
2156.879	661.45833
2159.51	644.45833
2162.138	629.79167
2164.765	623.79167
2167.39	612.45833
2170.013	625.79167
2172.634	616.79167
2175.254	606.79167
2177.872	639.125
2180.488	595.45833
2183.102	603.125
2185.714	601.45833
2188.325	580.125
2190.934	585.79167
2193.541	597.45833
2196.146	576.125
2198.75	568.45833
2201.351	573.125
2203.951	571.45833
2206.549	579.125
2209.146	562.125
2211.74	563.45833
2214.333	570.79167
2216.924	554.125
2219.514	558.125
2222.101	557.45833
2224.687	565.125
2227.271	556.79167
2229.853	545.125
2232.433	536.79167
2235.012	564.125
2237.589	554.45833
2240.164	566.79167
2242.738	539.45833
2245.309	540.79167
2247.879	558.125
2250.448	550.79167
2253.014	536.125
2255.579	522.79167
2258.142	531.125
2260.703	518.79167
2263.262	535.125
2265.82	517.79167
2268.376	529.125
2270.93	514.45833
2273.483	521.79167
2276.033	514.45833
2278.583	509.79167
2281.13	499.125
2283.675	505.79167
2286.219	508.45833
2288.761	515.45833
2291.302	512.79167
2293.841	519.79167
2296.377	499.45833
2298.913	500.125
2301.446	520.45833
2303.978	506.45833
2306.508	498.79167
2309.037	507.79167
2311.563	505.45833
2314.088	509.79167
2316.612	492.79167
2319.133	502.125
2321.653	501.79167
2324.171	489.125
2326.688	512.45833
2329.202	499.79167
2331.715	496.79167
2334.227	489.45833
2336.736	501.79167
2339.244	488.125
2341.751	481.125
2344.255	502.79167
2346.758	492.125
2349.259	482.125
2351.759	492.125
2354.257	483.125
2356.753	479.125
2359.247	490.125
2361.74	500.45833
2364.231	485.79167
2366.721	497.125
2369.209	488.79167
2371.695	487.79167
2374.179	481.79167
2376.662	474.125
2379.143	494.79167
2381.622	477.79167
2384.1	500.45833
2386.576	485.125
2389.051	505.125
2391.524	503.125
2393.995	503.45833
2396.464	487.45833
2398.932	492.79167
2401.398	479.45833
2403.863	479.125
2406.325	478.79167
2408.787	494.125
2411.246	476.45833
2413.704	484.45833
2416.16	480.125
2418.615	484.45833
2421.068	500.125
2423.519	491.125
2425.969	477.79167
2428.417	480.45833
2430.863	506.125
2433.308	500.125
2435.751	483.125
2438.193	480.125
2440.633	485.125
2443.071	496.125
2445.508	486.79167
2447.943	474.45833
2450.376	476.125
2452.808	486.79167
2455.238	488.45833
2457.667	515.45833
2460.093	483.45833
2462.519	477.79167
2464.942	482.125
2467.365	484.125
2469.785	493.45833
2472.204	486.79167
2474.621	483.79167
2477.037	499.79167
2479.451	461.79167
2481.863	477.79167
2484.274	483.125
2486.683	480.125
2489.091	492.45833
2491.497	483.79167
2493.901	479.79167
2496.304	482.79167
2498.705	487.45833
2501.105	490.79167
2503.503	510.125
2505.899	477.79167
2508.294	503.125
2510.687	486.125
2513.079	484.79167
2515.469	470.45833
2517.858	488.45833
2520.245	493.125
2522.63	482.79167
2525.014	473.45833
2527.396	475.125
2529.776	476.45833
2532.156	504.125
2534.533	478.125
2536.909	476.79167
2539.283	459.79167
2541.656	485.125
2544.027	495.45833
2546.397	488.79167
2548.765	479.125
2551.131	476.125
2553.496	466.45833
2555.86	489.45833
2558.221	497.79167
2560.582	482.79167
2562.94	473.79167
2565.298	487.125
2567.653	499.45833
2570.007	472.79167
2572.36	499.125
2574.711	473.79167
2577.06	497.125
2579.408	496.79167
2581.754	490.79167
2584.099	499.45833
2586.442	488.79167
2588.784	493.125
2591.124	493.125
2593.463	500.45833
2595.8	497.79167
2598.135	484.125
2600.469	488.79167
2602.802	499.45833
2605.133	508.125
2607.462	493.125
2609.79	483.45833
2612.116	499.79167
2614.441	504.45833
2616.764	499.79167
2619.086	496.125
2621.406	487.79167
2623.725	516.125
2626.042	506.45833
2628.358	495.45833
2630.672	495.125
2632.985	518.125
2635.296	520.45833
2637.606	509.45833
2639.914	504.79167
2642.22	507.125
2644.525	511.125
2646.829	506.125
2649.131	530.45833
2651.432	523.79167
2653.731	523.79167
2656.028	534.125
2658.324	527.79167
2660.619	525.125
2662.912	529.125
2665.204	515.45833
2667.494	531.125
2669.782	514.125
2672.07	539.45833
2674.355	539.45833
2676.639	525.45833
2678.922	532.79167
2681.203	527.45833
2683.483	521.45833
2685.761	522.79167
2688.038	548.125
2690.313	552.45833
2692.587	550.125
2694.859	536.125
2697.13	540.45833
2699.399	549.125
2701.667	552.79167
2703.933	546.125
2706.198	553.125
2708.461	551.79167
2710.723	560.45833
2712.984	555.125
2715.243	565.125
2717.5	559.79167
2719.757	575.45833
2722.011	562.79167
2724.264	579.45833
2726.516	595.79167
2728.766	570.79167
2731.015	585.125
2733.262	582.79167
2735.508	579.45833
2737.753	588.125
2739.996	576.125
2742.237	568.79167
2744.477	569.79167
2746.716	590.45833
2748.953	571.45833
2751.189	580.45833
2753.423	564.45833
2755.656	557.45833
2757.887	559.45833
2760.117	565.125
2762.346	554.45833
2764.573	557.79167
2766.798	556.45833
2769.022	560.45833
2771.245	574.45833
2773.467	577.45833
2775.686	573.125
2777.905	569.45833
2780.122	581.45833
2782.337	587.45833
2784.552	578.79167
2786.764	582.79167
2788.976	586.125
2791.186	598.45833
2793.394	602.79167
2795.601	608.45833
2797.807	619.125
2800.011	624.45833
2802.214	629.79167
2804.415	626.79167
2806.615	617.79167
2808.814	627.45833
2811.011	649.45833
2813.206	638.79167
2815.401	651.79167
2817.594	645.45833
2819.785	654.79167
2821.975	656.79167
2824.164	650.125
2826.351	670.79167
2828.537	689.45833
2830.722	696.125
2832.905	703.45833
2835.086	734.45833
2837.267	746.79167
2839.445	766.45833
2841.623	775.125
2843.799	788.45833
2845.974	820.125
2848.147	846.79167
2850.319	872.45833
2852.489	895.125
2854.659	898.125
2856.826	922.125
2858.993	937.125
2861.158	914.45833
2863.321	928.79167
2865.483	930.125
2867.644	926.45833
2869.804	929.45833
2871.962	927.125
2874.118	927.125
2876.274	927.45833
2878.428	925.45833
2880.58	905.45833
2882.731	904.45833
2884.881	908.45833
2887.03	915.79167
2889.177	919.79167
2891.322	927.45833
2893.467	923.79167
2895.61	918.125
2897.751	949.125
2899.892	935.125
2902.03	953.45833
2904.168	955.125
2906.304	969.79167
2908.439	984.79167
2910.572	962.79167
2912.704	972.125
2914.835	971.79167
2916.965	961.125
2919.093	994.125
2921.219	964.125
2923.345	973.125
2925.469	953.79167
2927.591	948.79167
2929.712	930.45833
2931.832	914.79167
2933.951	901.125
2936.068	885.125
2938.184	873.45833
2940.299	869.125
2942.412	840.79167
2944.524	819.45833
2946.634	813.79167
2948.744	770.45833
2950.851	808.45833
2952.958	770.45833
2955.063	770.125
2957.167	760.79167
2959.269	733.125
2961.371	770.45833
2963.471	724.79167
2965.569	722.79167
2967.666	707.79167
2969.762	707.79167
2971.857	696.45833
2973.95	676.45833
2976.042	661.79167
2978.133	646.45833
2980.222	646.45833
2982.31	638.79167
2984.396	618.79167
2986.482	616.125
2988.566	624.125
2990.648	608.45833
2992.73	612.125
2994.81	602.79167
2996.889	614.79167
2998.966	611.45833
3001.042	623.125
3003.117	603.125
3005.191	607.79167
3007.263	612.125
3009.334	587.79167
3011.403	602.125
3013.472	580.125
3015.539	586.45833
3017.604	592.79167
3019.669	556.79167
3021.732	555.45833
3023.794	568.45833
3025.854	556.45833
3027.914	551.79167
3029.971	565.79167
3032.028	554.79167
3034.083	556.125
3036.137	545.79167
3038.19	539.45833
3040.242	521.125
3042.292	503.125
3044.341	508.45833
3046.388	514.45833
3048.435	500.125
3050.48	505.79167
3052.524	503.125
3054.566	482.45833
3056.607	493.125
3058.647	484.125
3060.686	468.45833
3062.723	447.45833
3064.759	433.79167
3066.794	-1.20833
3068.828	2.125
3070.86	3.125
