-0.839	471.20833
3.438	543.875
7.711	165.875
11.981	60.20833
16.247	45.20833
20.509	51.20833
24.768	44.875
29.024	49.875
33.276	43.875
37.524	49.54167
41.769	47.20833
46.01	33.20833
50.247	45.20833
54.481	61.20833
58.712	63.20833
62.939	46.54167
67.162	61.20833
71.382	57.875
75.599	45.20833
79.812	62.54167
84.021	79.875
88.227	58.875
92.429	58.20833
96.628	52.54167
100.823	71.875
105.015	78.54167
109.204	68.875
113.388	75.875
117.57	77.875
121.748	93.20833
125.922	86.54167
130.093	108.20833
134.261	103.875
138.425	105.20833
142.585	145.875
146.742	143.54167
150.896	170.875
155.046	217.20833
159.193	348.875
163.336	598.54167
167.476	1116.875
171.613	2068.20833
175.746	3422.54167
179.875	5064.54167
184.002	6592.20833
188.124	7574.54167
192.244	7883.875
196.36	7720.875
200.472	7407.54167
204.581	7064.20833
208.687	6768.20833
212.79	6613.54167
216.889	6485.20833
220.984	6392.20833
225.077	6315.54167
229.165	6233.20833
233.251	6200.20833
237.333	6106.54167
241.412	5941.20833
245.487	5864.875
249.559	5755.54167
253.628	5672.20833
257.694	5621.20833
261.756	5554.875
265.814	5401.875
269.87	5223.20833
273.922	5048.875
277.97	4945.875
282.016	4880.20833
286.058	4883.54167
290.097	4935.875
294.132	4965.54167
298.164	4931.875
302.193	4723.54167
306.219	4408.875
310.241	4108.875
314.26	3831.20833
318.276	3622.20833
322.288	3440.20833
326.297	3319.54167
330.303	3238.20833
334.305	3212.875
338.305	3127.875
342.301	3085.20833
346.294	3080.20833
350.283	3033.875
354.269	3011.20833
358.252	2982.875
362.232	2966.54167
366.209	2955.20833
370.182	2928.54167
374.152	2875.54167
378.119	2925.875
382.083	2937.20833
386.043	2911.54167
390	2879.54167
393.954	2915.54167
397.905	2897.20833
401.852	2876.54167
405.797	2824.54167
409.738	2874.875
413.676	2863.875
417.61	2903.54167
421.542	2821.875
425.47	2788.875
429.396	2758.54167
433.318	2725.20833
437.236	2722.20833
441.152	2740.875
445.065	2680.875
448.974	2687.875
452.88	2647.54167
456.783	2613.54167
460.683	2628.875
464.58	2627.875
468.473	2639.20833
472.364	2661.875
476.251	2644.20833
480.135	2667.54167
484.016	2692.54167
487.894	2719.20833
491.769	2727.875
495.641	2722.20833
499.509	2715.20833
503.375	2743.875
507.237	2709.875
511.096	2703.54167
514.952	2791.54167
518.805	2840.54167
522.655	2865.875
526.502	2797.20833
530.346	2720.20833
534.187	2715.20833
538.024	2725.54167
541.859	2725.875
545.69	2754.20833
549.519	2723.20833
553.344	2719.875
557.166	2659.875
560.985	2645.20833
564.802	2617.875
568.615	2559.54167
572.425	2548.875
576.232	2524.875
580.036	2526.20833
583.836	2527.20833
587.634	2545.875
591.429	2527.875
595.221	2593.54167
599.01	2608.54167
602.796	2638.875
606.578	2664.875
610.358	2659.54167
614.135	2614.875
617.909	2625.54167
621.679	2600.875
625.447	2588.54167
629.212	2584.20833
632.973	2582.54167
636.732	2584.20833
640.488	2598.20833
644.241	2556.54167
647.991	2542.54167
651.737	2559.875
655.481	2534.875
659.222	2545.875
662.96	2560.54167
666.695	2564.875
670.427	2584.20833
674.156	2593.54167
677.882	2561.54167
681.605	2569.54167
685.325	2544.875
689.043	2545.20833
692.757	2520.54167
696.468	2510.54167
700.177	2515.54167
703.882	2493.875
707.585	2470.54167
711.284	2463.875
714.981	2462.875
718.675	2496.54167
722.366	2487.54167
726.054	2451.875
729.739	2469.875
733.421	2473.54167
737.1	2455.20833
740.777	2494.20833
744.45	2489.875
748.121	2511.20833
751.789	2574.20833
755.453	2552.20833
759.115	2571.54167
762.774	2563.875
766.431	2565.20833
770.084	2580.875
773.734	2617.20833
777.382	2684.875
781.027	2672.875
784.669	2676.875
788.308	2704.54167
791.944	2690.20833
795.577	2699.54167
799.208	2706.54167
802.835	2749.875
806.46	2748.875
810.082	2771.875
813.701	2764.54167
817.317	2796.54167
820.931	2808.54167
824.542	2788.875
828.149	2754.54167
831.754	2731.875
835.357	2702.875
838.956	2740.875
842.553	2735.20833
846.146	2709.54167
849.737	2664.54167
853.326	2670.54167
856.911	2670.875
860.493	2706.875
864.073	2724.54167
867.65	2768.54167
871.225	2798.54167
874.796	2769.54167
878.365	2756.875
881.931	2781.20833
885.494	2790.875
889.054	2787.54167
892.612	2798.20833
896.166	2770.54167
899.719	2734.20833
903.268	2705.20833
906.814	2691.875
910.358	2676.875
913.899	2652.54167
917.438	2654.875
920.973	2657.54167
924.506	2682.875
928.036	2709.875
931.564	2756.875
935.088	2791.20833
938.61	2798.875
942.129	2827.875
945.646	2874.875
949.16	2931.54167
952.671	2970.20833
956.179	2964.54167
959.685	2952.875
963.188	2950.875
966.688	2891.875
970.185	2829.54167
973.68	2776.875
977.173	2724.875
980.662	2703.54167
984.149	2727.875
987.633	2685.20833
991.114	2748.20833
994.593	2788.875
998.069	2846.875
1001.542	2923.20833
1005.013	2876.875
1008.481	2717.20833
1011.947	2672.54167
1015.409	2642.875
1018.869	2640.54167
1022.327	2647.54167
1025.782	2628.20833
1029.234	2645.20833
1032.683	2588.54167
1036.13	2507.20833
1039.574	2424.20833
1043.016	2364.875
1046.455	2326.54167
1049.891	2310.875
1053.325	2315.875
1056.756	2345.20833
1060.184	2353.20833
1063.61	2325.875
1067.033	2338.875
1070.454	2350.54167
1073.872	2376.54167
1077.287	2373.54167
1080.7	2365.875
1084.11	2370.54167
1087.517	2350.54167
1090.922	2322.20833
1094.325	2287.875
1097.724	2287.875
1101.122	2261.20833
1104.516	2267.875
1107.908	2270.20833
1111.298	2282.20833
1114.684	2315.54167
1118.069	2343.875
1121.45	2354.20833
1124.83	2365.875
1128.206	2393.875
1131.58	2412.54167
1134.951	2484.54167
1138.32	2535.875
1141.687	2614.54167
1145.05	2676.54167
1148.412	2675.54167
1151.77	2634.875
1155.126	2616.20833
1158.48	2632.54167
1161.831	2644.20833
1165.18	2637.54167
1168.525	2685.54167
1171.869	2713.875
1175.21	2719.54167
1178.548	2751.54167
1181.884	2794.54167
1185.217	2799.20833
1188.548	2850.20833
1191.877	2909.875
1195.202	2998.54167
1198.526	3052.20833
1201.846	3063.875
1205.165	3075.54167
1208.48	3073.54167
1211.794	3064.54167
1215.104	3064.875
1218.413	3075.875
1221.719	3049.54167
1225.022	3005.20833
1228.323	2989.20833
1231.621	2961.875
1234.917	2934.20833
1238.21	2948.20833
1241.501	2953.20833
1244.79	2924.875
1248.076	2947.20833
1251.359	2961.875
1254.64	3020.54167
1257.919	3029.20833
1261.195	3079.54167
1264.468	3127.875
1267.74	3174.875
1271.008	3169.54167
1274.275	3152.20833
1277.538	3142.875
1280.8	3130.875
1284.059	3134.54167
1287.315	3143.875
1290.569	3160.875
1293.821	3154.54167
1297.07	3172.875
1300.317	3187.875
1303.562	3177.20833
1306.803	3137.54167
1310.043	3120.20833
1313.28	3112.54167
1316.515	3109.20833
1319.747	3082.54167
1322.977	3029.875
1326.204	3018.20833
1329.429	2990.20833
1332.652	2968.875
1335.872	2969.875
1339.09	2918.54167
1342.306	2894.54167
1345.519	2905.875
1348.729	2885.875
1351.938	2862.54167
1355.144	2824.54167
1358.347	2803.54167
1361.548	2810.54167
1364.747	2783.54167
1367.944	2743.875
1371.138	2750.54167
1374.329	2736.54167
1377.518	2783.20833
1380.705	2791.875
1383.89	2789.875
1387.072	2707.875
1390.252	2579.20833
1393.429	2512.875
1396.605	2427.875
1399.777	2363.54167
1402.948	2328.875
1406.116	2321.20833
1409.282	2306.20833
1412.445	2312.875
1415.606	2336.875
1418.765	2370.20833
1421.921	2395.54167
1425.075	2446.54167
1428.227	2509.20833
1431.376	2634.875
1434.524	2731.20833
1437.668	2780.20833
1440.811	2823.20833
1443.951	2839.54167
1447.089	2852.875
1450.224	2847.875
1453.357	2823.20833
1456.488	2799.875
1459.617	2753.54167
1462.743	2737.20833
1465.867	2655.54167
1468.989	2620.875
1472.108	2585.875
1475.225	2539.20833
1478.34	2506.875
1481.453	2506.54167
1484.563	2494.20833
1487.671	2534.875
1490.776	2586.20833
1493.88	2605.20833
1496.981	2621.20833
1500.08	2677.875
1503.176	2686.875
1506.271	2723.54167
1509.363	2772.54167
1512.452	2778.20833
1515.54	2849.20833
1518.625	2859.875
1521.708	2919.875
1524.789	2976.54167
1527.867	3109.54167
1530.944	3249.20833
1534.018	3404.54167
1537.089	3519.20833
1540.159	3591.54167
1543.226	3568.20833
1546.291	3492.875
1549.354	3445.54167
1552.415	3346.54167
1555.473	3270.54167
1558.529	3202.875
1561.583	3158.54167
1564.634	3141.20833
1567.684	3144.54167
1570.731	3114.20833
1573.776	3176.20833
1576.819	3212.875
1579.859	3227.20833
1582.898	3291.875
1585.934	3323.54167
1588.968	3342.20833
1591.999	3336.20833
1595.029	3328.875
1598.056	3359.54167
1601.081	3382.54167
1604.104	3374.875
1607.125	3329.54167
1610.144	3272.54167
1613.16	3197.875
1616.174	3135.20833
1619.186	3084.875
1622.196	3004.20833
1625.203	2926.54167
1628.209	2922.875
1631.212	2898.20833
1634.213	2926.875
1637.212	2914.20833
1640.209	2876.875
1643.203	2805.54167
1646.196	2728.875
1649.186	2618.20833
1652.174	2528.54167
1655.16	2435.20833
1658.144	2366.54167
1661.125	2242.54167
1664.105	2157.875
1667.082	2065.875
1670.057	1952.20833
1673.03	1851.20833
1676.001	1737.20833
1678.97	1651.875
1681.937	1536.54167
1684.901	1459.20833
1687.863	1409.875
1690.824	1361.54167
1693.782	1323.875
1696.738	1270.875
1699.692	1242.875
1702.643	1212.875
1705.593	1201.54167
1708.54	1189.875
1711.486	1184.875
1714.429	1152.20833
1717.37	1157.20833
1720.309	1137.20833
1723.246	1139.20833
1726.181	1109.875
1729.113	1109.875
1732.044	1087.20833
1734.972	1087.20833
1737.899	1095.54167
1740.823	1087.54167
1743.745	1041.54167
1746.665	1039.875
1749.583	1030.54167
1752.499	1007.20833
1755.413	1009.54167
1758.325	993.54167
1761.235	977.875
1764.142	957.20833
1767.048	956.20833
1769.951	965.20833
1772.852	955.875
1775.752	957.54167
1778.649	971.54167
1781.544	951.20833
1784.437	916.875
1787.328	946.54167
1790.217	916.54167
1793.104	900.20833
1795.989	892.20833
1798.872	890.20833
1801.753	917.54167
1804.631	906.20833
1807.508	906.875
1810.383	902.54167
1813.255	886.20833
1816.126	881.875
1818.994	890.54167
1821.861	878.54167
1824.725	867.54167
1827.587	877.20833
1830.448	862.20833
1833.306	832.54167
1836.162	852.54167
1839.017	842.54167
1841.869	847.875
1844.719	843.875
1847.567	823.54167
1850.414	822.20833
1853.258	827.54167
1856.1	844.20833
1858.94	844.54167
1861.778	812.875
1864.614	827.54167
1867.448	817.875
1870.28	820.875
1873.111	832.20833
1875.939	819.54167
1878.765	839.54167
1881.589	812.875
1884.411	808.875
1887.231	823.20833
1890.049	807.54167
1892.865	807.54167
1895.68	799.875
1898.492	811.875
1901.302	805.54167
1904.11	796.875
1906.916	782.20833
1909.721	783.875
1912.523	778.54167
1915.323	772.20833
1918.122	766.875
1920.918	783.54167
1923.712	782.20833
1926.505	769.875
1929.295	753.875
1932.084	775.875
1934.87	777.20833
1937.655	772.20833
1940.438	747.875
1943.218	761.54167
1945.997	767.20833
1948.774	769.54167
1951.549	767.54167
1954.322	757.875
1957.093	753.20833
1959.862	741.875
1962.629	747.54167
1965.394	750.54167
1968.157	732.875
1970.918	729.875
1973.678	722.875
1976.435	753.20833
1979.19	727.54167
1981.944	722.54167
1984.696	731.875
1987.445	702.20833
1990.193	729.20833
1992.939	733.20833
1995.683	710.54167
1998.425	692.20833
2001.165	737.875
2003.903	701.20833
2006.639	704.54167
2009.374	713.875
2012.106	706.54167
2014.837	687.54167
2017.566	711.54167
2020.292	702.20833
2023.017	698.54167
2025.74	705.20833
2028.461	693.20833
2031.18	693.20833
2033.898	692.20833
2036.613	684.875
2039.327	689.20833
2042.038	680.875
2044.748	678.20833
2047.456	694.875
2050.162	681.54167
2052.866	672.54167
2055.568	687.875
2058.268	670.54167
2060.967	669.54167
2063.663	673.20833
2066.358	671.20833
2069.051	669.20833
2071.742	665.20833
2074.431	668.20833
2077.118	675.20833
2079.804	663.875
2082.487	670.875
2085.169	680.54167
2087.849	689.54167
2090.527	663.875
2093.203	666.875
2095.877	678.54167
2098.55	675.20833
2101.22	688.875
2103.889	691.20833
2106.556	704.54167
2109.221	708.20833
2111.884	729.875
2114.546	773.20833
2117.205	813.20833
2119.863	873.20833
2122.519	914.54167
2125.173	974.875
2127.825	1024.54167
2130.475	1037.20833
2133.124	990.20833
2135.771	956.875
2138.416	913.20833
2141.059	857.20833
2143.7	826.20833
2146.339	780.875
2148.977	729.20833
2151.613	739.54167
2154.247	715.875
2156.879	697.875
2159.51	678.875
2162.138	662.20833
2164.765	668.54167
2167.39	651.54167
2170.013	666.20833
2172.634	653.20833
2175.254	635.875
2177.872	666.875
2180.488	615.875
2183.102	625.20833
2185.714	618.54167
2188.325	601.54167
2190.934	614.54167
2193.541	618.875
2196.146	599.875
2198.75	601.875
2201.351	593.54167
2203.951	573.20833
2206.549	607.875
2209.146	590.54167
2211.74	588.54167
2214.333	593.54167
2216.924	566.875
2219.514	581.20833
2222.101	577.20833
2224.687	590.20833
2227.271	582.20833
2229.853	557.20833
2232.433	557.20833
2235.012	585.875
2237.589	571.20833
2240.164	585.20833
2242.738	569.875
2245.309	560.875
2247.879	565.54167
2250.448	570.20833
2253.014	541.54167
2255.579	536.875
2258.142	542.54167
2260.703	537.54167
2263.262	546.54167
2265.82	526.875
2268.376	550.875
2270.93	526.875
2273.483	531.54167
2276.033	545.875
2278.583	526.54167
2281.13	520.20833
2283.675	510.20833
2286.219	517.875
2288.761	527.54167
2291.302	521.875
2293.841	539.54167
2296.377	511.20833
2298.913	520.20833
2301.446	523.54167
2303.978	518.20833
2306.508	510.54167
2309.037	523.875
2311.563	521.20833
2314.088	523.20833
2316.612	503.54167
2319.133	512.875
2321.653	504.20833
2324.171	508.54167
2326.688	518.20833
2329.202	507.20833
2331.715	508.20833
2334.227	509.54167
2336.736	497.20833
2339.244	506.54167
2341.751	487.54167
2344.255	516.20833
2346.758	495.875
2349.259	491.20833
2351.759	511.875
2354.257	484.875
2356.753	490.54167
2359.247	495.875
2361.74	495.20833
2364.231	498.54167
2366.721	495.875
2369.209	489.20833
2371.695	496.54167
2374.179	488.20833
2376.662	479.54167
2379.143	504.20833
2381.622	486.54167
2384.1	495.54167
2386.576	495.875
2389.051	506.54167
2391.524	513.54167
2393.995	501.875
2396.464	486.875
2398.932	482.875
2401.398	478.54167
2403.863	493.875
2406.325	487.54167
2408.787	492.875
2411.246	484.54167
2413.704	484.875
2416.16	487.875
2418.615	482.54167
2421.068	494.54167
2423.519	495.20833
2425.969	479.875
2428.417	482.54167
2430.863	508.20833
2433.308	497.875
2435.751	493.875
2438.193	484.20833
2440.633	487.875
2443.071	481.20833
2445.508	478.54167
2447.943	478.875
2450.376	480.20833
2452.808	479.54167
2455.238	473.20833
2457.667	514.20833
2460.093	474.20833
2462.519	472.875
2464.942	478.54167
2467.365	481.875
2469.785	493.54167
2472.204	483.875
2474.621	469.20833
2477.037	483.54167
2479.451	466.20833
2481.863	467.875
2484.274	480.54167
2486.683	475.20833
2489.091	492.54167
2491.497	475.54167
2493.901	484.54167
2496.304	478.54167
2498.705	488.54167
2501.105	472.20833
2503.503	508.54167
2505.899	461.54167
2508.294	490.875
2510.687	475.20833
2513.079	467.875
2515.469	467.54167
2517.858	475.54167
2520.245	486.54167
2522.63	477.54167
2525.014	474.54167
2527.396	471.54167
2529.776	463.54167
2532.156	480.875
2534.533	473.875
2536.909	464.20833
2539.283	458.54167
2541.656	462.875
2544.027	490.875
2546.397	472.875
2548.765	474.54167
2551.131	469.20833
2553.496	469.875
2555.86	479.54167
2558.221	478.54167
2560.582	468.875
2562.94	458.875
2565.298	479.54167
2567.653	485.20833
2570.007	464.875
2572.36	486.54167
2574.711	466.875
2577.06	490.20833
2579.408	482.54167
2581.754	475.875
2584.099	486.54167
2586.442	465.20833
2588.784	488.54167
2591.124	480.54167
2593.463	483.54167
2595.8	489.875
2598.135	470.875
2600.469	474.20833
2602.802	496.54167
2605.133	493.875
2607.462	486.54167
2609.79	471.875
2612.116	496.54167
2614.441	484.54167
2616.764	488.20833
2619.086	489.875
2621.406	473.20833
2623.725	500.875
2626.042	496.875
2628.358	484.20833
2630.672	488.875
2632.985	504.875
2635.296	492.20833
2637.606	502.20833
2639.914	490.20833
2642.22	489.20833
2644.525	487.54167
2646.829	507.20833
2649.131	509.20833
2651.432	509.20833
2653.731	498.875
2656.028	512.20833
2658.324	521.54167
2660.619	498.54167
2662.912	525.54167
2665.204	498.20833
2667.494	514.875
2669.782	500.54167
2672.07	504.20833
2674.355	517.20833
2676.639	510.875
2678.922	500.20833
2681.203	515.20833
2683.483	504.875
2685.761	507.20833
2688.038	509.875
2690.313	538.875
2692.587	515.54167
2694.859	514.20833
2697.13	523.875
2699.399	523.54167
2701.667	536.20833
2703.933	529.20833
2706.198	535.875
2708.461	535.20833
2710.723	530.54167
2712.984	548.54167
2715.243	540.54167
2717.5	540.20833
2719.757	553.54167
2722.011	544.20833
2724.264	556.20833
2726.516	559.20833
2728.766	538.54167
2731.015	560.20833
2733.262	563.20833
2735.508	554.875
2737.753	564.54167
2739.996	547.20833
2742.237	535.54167
2744.477	553.875
2746.716	559.20833
2748.953	559.54167
2751.189	557.875
2753.423	555.875
2755.656	545.875
2757.887	535.54167
2760.117	540.54167
2762.346	535.20833
2764.573	536.54167
2766.798	537.54167
2769.022	540.54167
2771.245	548.54167
2773.467	549.875
2775.686	550.54167
2777.905	555.20833
2780.122	564.20833
2782.337	561.54167
2784.552	560.54167
2786.764	556.875
2788.976	562.54167
2791.186	563.54167
2793.394	566.20833
2795.601	583.875
2797.807	589.54167
2800.011	593.20833
2802.214	593.20833
2804.415	592.54167
2806.615	597.54167
2808.814	592.875
2811.011	607.54167
2813.206	595.875
2815.401	612.20833
2817.594	633.20833
2819.785	633.54167
2821.975	618.20833
2824.164	628.20833
2826.351	638.20833
2828.537	659.54167
2830.722	668.875
2832.905	660.54167
2835.086	680.54167
2837.267	707.875
2839.445	724.875
2841.623	732.875
2843.799	752.875
2845.974	783.875
2848.147	803.20833
2850.319	820.54167
2852.489	833.875
2854.659	855.20833
2856.826	861.875
2858.993	888.20833
2861.158	878.20833
2863.321	878.54167
2865.483	903.875
2867.644	894.20833
2869.804	882.54167
2871.962	882.875
2874.118	887.20833
2876.274	892.54167
2878.428	903.54167
2880.58	883.54167
2882.731	875.54167
2884.881	874.20833
2887.03	864.875
2889.177	878.875
2891.322	881.875
2893.467	892.875
2895.61	901.54167
2897.751	910.20833
2899.892	892.20833
2902.03	915.875
2904.168	911.875
2906.304	909.54167
2908.439	941.54167
2910.572	916.54167
2912.704	937.20833
2914.835	937.875
2916.965	932.875
2919.093	946.875
2921.219	913.875
2923.345	935.20833
2925.469	918.875
2927.591	913.875
2929.712	880.875
2931.832	898.54167
2933.951	864.875
2936.068	861.20833
2938.184	851.54167
2940.299	841.20833
2942.412	820.875
2944.524	787.875
2946.634	781.54167
2948.744	754.54167
2950.851	777.54167
2952.958	745.20833
2955.063	739.54167
2957.167	733.20833
2959.269	691.54167
2961.371	727.875
2963.471	690.54167
2965.569	710.20833
2967.666	665.54167
2969.762	652.20833
2971.857	663.20833
2973.95	644.875
2976.042	648.875
2978.133	627.20833
2980.222	619.875
2982.31	611.875
2984.396	587.54167
2986.482	589.54167
2988.566	597.875
2990.648	577.875
2992.73	580.54167
2994.81	580.875
2996.889	584.20833
2998.966	579.875
3001.042	583.54167
3003.117	580.20833
3005.191	577.875
3007.263	574.54167
3009.334	560.875
3011.403	571.875
3013.472	557.20833
3015.539	567.20833
3017.604	570.875
3019.669	520.20833
3021.732	532.20833
3023.794	535.20833
3025.854	528.20833
3027.914	525.20833
3029.971	532.875
3032.028	527.54167
3034.083	526.875
3036.137	526.875
3038.19	493.54167
3040.242	485.875
3042.292	481.20833
3044.341	477.20833
3046.388	496.20833
3048.435	470.875
3050.48	486.875
3052.524	473.875
3054.566	457.875
3056.607	464.54167
3058.647	458.54167
3060.686	452.54167
3062.723	427.20833
3064.759	409.20833
3066.794	-2.79167
3068.828	2.20833
3070.86	3.20833
