-0.839	589.91667
3.438	719.91667
7.711	209.25
11.981	64.58333
16.247	48.58333
20.509	52.25
24.768	44.25
29.024	57.58333
33.276	49.91667
37.524	49.58333
41.769	47.58333
46.01	34.25
50.247	48.25
54.481	60.91667
58.712	63.91667
62.939	53.91667
67.162	65.58333
71.382	55.25
75.599	45.91667
79.812	65.25
84.021	81.91667
88.227	59.25
92.429	61.58333
96.628	56.91667
100.823	72.91667
105.015	77.58333
109.204	74.58333
113.388	78.25
117.57	78.91667
121.748	90.91667
125.922	89.58333
130.093	105.58333
134.261	104.25
138.425	107.91667
142.585	147.25
146.742	143.58333
150.896	179.25
155.046	221.58333
159.193	349.58333
163.336	596.58333
167.476	1102.91667
171.613	2018.25
175.746	3375.25
179.875	4955.25
184.002	6461.58333
188.124	7452.58333
192.244	7783.91667
196.36	7689.58333
200.472	7403.91667
204.581	7165.58333
208.687	6954.91667
212.79	6758.91667
216.889	6760.91667
220.984	6729.58333
225.077	6730.58333
229.165	6741.91667
233.251	6698.25
237.333	6653.91667
241.412	6611.91667
245.487	6531.25
249.559	6436.91667
253.628	6391.58333
257.694	6342.91667
261.756	6320.25
265.814	6177.58333
269.87	5971.25
273.922	5781.25
277.97	5668.25
282.016	5542.58333
286.058	5504.58333
290.097	5608.91667
294.132	5684.25
298.164	5647.58333
302.193	5439.25
306.219	5122.91667
310.241	4708.25
314.26	4391.25
318.276	4081.25
322.288	3888.25
326.297	3771.25
330.303	3654.25
334.305	3600.91667
338.305	3522.25
342.301	3509.58333
346.294	3514.58333
350.283	3453.58333
354.269	3455.25
358.252	3430.58333
362.232	3422.58333
366.209	3384.25
370.182	3356.91667
374.152	3341.91667
378.119	3356.25
382.083	3350.91667
386.043	3362.91667
390	3358.91667
393.954	3405.91667
397.905	3396.91667
401.852	3406.25
405.797	3378.25
409.738	3468.91667
413.676	3567.25
417.61	3671.58333
421.542	3407.91667
425.47	3258.58333
429.396	3226.58333
433.318	3207.91667
437.236	3201.91667
441.152	3236.25
445.065	3178.91667
448.974	3184.91667
452.88	3125.91667
456.783	3119.91667
460.683	3131.91667
464.58	3120.25
468.473	3117.58333
472.364	3147.91667
476.251	3133.58333
480.135	3175.25
484.016	3191.58333
487.894	3210.58333
491.769	3238.25
495.641	3232.58333
499.509	3216.91667
503.375	3237.25
507.237	3216.91667
511.096	3201.91667
514.952	3188.91667
518.805	3203.25
522.655	3216.91667
526.502	3179.91667
530.346	3192.58333
534.187	3212.58333
538.024	3203.25
541.859	3235.58333
545.69	3257.91667
549.519	3245.91667
553.344	3230.91667
557.166	3172.91667
560.985	3158.91667
564.802	3119.25
568.615	3071.25
572.425	3031.25
576.232	2991.25
580.036	3009.25
583.836	2985.25
587.634	3031.91667
591.429	3059.58333
595.221	3085.25
599.01	3105.91667
602.796	3145.58333
606.578	3166.91667
610.358	3174.91667
614.135	3141.25
617.909	3138.58333
621.679	3114.25
625.447	3093.25
629.212	3097.91667
632.973	3128.25
636.732	3126.58333
640.488	3127.58333
644.241	3037.25
647.991	3061.58333
651.737	3077.91667
655.481	3075.58333
659.222	3064.91667
662.96	3059.25
666.695	3086.58333
670.427	3078.25
674.156	3106.58333
677.882	3070.25
681.605	3033.58333
685.325	3030.91667
689.043	3040.25
692.757	3003.91667
696.468	3029.25
700.177	3030.91667
703.882	2991.58333
707.585	2978.58333
711.284	2987.58333
714.981	2969.25
718.675	2972.25
722.366	2971.25
726.054	2948.58333
729.739	2955.58333
733.421	2952.91667
737.1	2950.58333
740.777	2989.58333
744.45	3005.91667
748.121	3008.91667
751.789	3047.25
755.453	3044.58333
759.115	3056.58333
762.774	3066.25
766.431	3087.91667
770.084	3106.25
773.734	3133.58333
777.382	3136.91667
781.027	3150.25
784.669	3173.58333
788.308	3178.58333
791.944	3210.91667
795.577	3204.58333
799.208	3228.91667
802.835	3264.58333
806.46	3275.58333
810.082	3293.91667
813.701	3303.91667
817.317	3315.91667
820.931	3333.58333
824.542	3312.58333
828.149	3274.58333
831.754	3246.58333
835.357	3233.91667
838.956	3243.58333
842.553	3290.25
846.146	3289.58333
849.737	3191.25
853.326	3168.91667
856.911	3166.25
860.493	3193.58333
864.073	3281.58333
867.65	3377.91667
871.225	3381.91667
874.796	3283.58333
878.365	3272.25
881.931	3288.91667
885.494	3312.91667
889.054	3280.58333
892.612	3289.25
896.166	3258.25
899.719	3228.25
903.268	3218.58333
906.814	3189.25
910.358	3190.58333
913.899	3162.25
917.438	3160.58333
920.973	3134.91667
924.506	3157.91667
928.036	3210.91667
931.564	3242.58333
935.088	3278.25
938.61	3297.25
942.129	3334.25
945.646	3389.58333
949.16	3455.58333
952.671	3520.25
956.179	3518.58333
959.685	3492.91667
963.188	3515.91667
966.688	3460.91667
970.185	3370.25
973.68	3293.58333
977.173	3245.25
980.662	3212.91667
984.149	3211.25
987.633	3175.25
991.114	3211.91667
994.593	3286.91667
998.069	3357.91667
1001.542	3477.58333
1005.013	3424.91667
1008.481	3209.91667
1011.947	3155.58333
1015.409	3145.25
1018.869	3160.25
1022.327	3135.25
1025.782	3124.58333
1029.234	3102.58333
1032.683	3057.25
1036.13	2972.25
1039.574	2886.91667
1043.016	2809.58333
1046.455	2762.91667
1049.891	2726.58333
1053.325	2760.25
1056.756	2761.91667
1060.184	2770.58333
1063.61	2783.25
1067.033	2782.91667
1070.454	2795.25
1073.872	2832.25
1077.287	2816.25
1080.7	2820.25
1084.11	2829.25
1087.517	2791.25
1090.922	2760.58333
1094.325	2719.91667
1097.724	2722.25
1101.122	2694.91667
1104.516	2700.25
1107.908	2677.25
1111.298	2732.91667
1114.684	2741.58333
1118.069	2771.25
1121.45	2800.91667
1124.83	2789.91667
1128.206	2809.91667
1131.58	2861.25
1134.951	2944.25
1138.32	3010.91667
1141.687	3093.25
1145.05	3146.58333
1148.412	3176.58333
1151.77	3144.25
1155.126	3141.91667
1158.48	3122.91667
1161.831	3131.91667
1165.18	3142.25
1168.525	3155.91667
1171.869	3198.25
1175.21	3214.25
1178.548	3245.91667
1181.884	3265.58333
1185.217	3317.25
1188.548	3378.58333
1191.877	3433.25
1195.202	3545.91667
1198.526	3592.25
1201.846	3629.25
1205.165	3642.91667
1208.48	3615.91667
1211.794	3603.91667
1215.104	3628.25
1218.413	3583.25
1221.719	3596.58333
1225.022	3550.91667
1228.323	3496.25
1231.621	3474.58333
1234.917	3466.58333
1238.21	3464.58333
1241.501	3441.91667
1244.79	3439.91667
1248.076	3424.25
1251.359	3465.25
1254.64	3554.58333
1257.919	3559.91667
1261.195	3593.25
1264.468	3669.25
1267.74	3729.58333
1271.008	3711.91667
1274.275	3708.91667
1277.538	3718.91667
1280.8	3683.91667
1284.059	3675.58333
1287.315	3695.91667
1290.569	3709.58333
1293.821	3732.58333
1297.07	3742.25
1300.317	3754.25
1303.562	3759.58333
1306.803	3664.58333
1310.043	3672.91667
1313.28	3666.58333
1316.515	3647.91667
1319.747	3620.91667
1322.977	3611.58333
1326.204	3555.91667
1329.429	3518.25
1332.652	3502.25
1335.872	3499.25
1339.09	3482.58333
1342.306	3445.25
1345.519	3408.58333
1348.729	3388.25
1351.938	3405.91667
1355.144	3357.91667
1358.347	3285.25
1361.548	3297.25
1364.747	3309.25
1367.944	3265.91667
1371.138	3269.25
1374.329	3245.58333
1377.518	3279.91667
1380.705	3308.91667
1383.89	3287.91667
1387.072	3190.58333
1390.252	3064.58333
1393.429	2967.91667
1396.605	2890.58333
1399.777	2802.91667
1402.948	2770.25
1406.116	2758.25
1409.282	2749.91667
1412.445	2736.91667
1415.606	2767.25
1418.765	2777.25
1421.921	2838.91667
1425.075	2903.58333
1428.227	3008.91667
1431.376	3113.58333
1434.524	3227.58333
1437.668	3296.25
1440.811	3344.25
1443.951	3349.25
1447.089	3381.58333
1450.224	3380.58333
1453.357	3370.25
1456.488	3316.58333
1459.617	3301.25
1462.743	3242.58333
1465.867	3188.91667
1468.989	3131.91667
1472.108	3086.91667
1475.225	3041.58333
1478.34	3020.91667
1481.453	2988.58333
1484.563	2991.25
1487.671	3029.91667
1490.776	3061.25
1493.88	3092.25
1496.981	3148.58333
1500.08	3169.91667
1503.176	3218.25
1506.271	3280.25
1509.363	3300.25
1512.452	3337.91667
1515.54	3387.91667
1518.625	3420.25
1521.708	3492.58333
1524.789	3589.58333
1527.867	3752.91667
1530.944	3924.58333
1534.018	4090.25
1537.089	4232.25
1540.159	4265.91667
1543.226	4268.58333
1546.291	4175.25
1549.354	4062.25
1552.415	3975.58333
1555.473	3878.91667
1558.529	3814.91667
1561.583	3772.58333
1564.634	3741.25
1567.684	3740.91667
1570.731	3741.58333
1573.776	3784.91667
1576.819	3847.91667
1579.859	3890.58333
1582.898	3946.25
1585.934	3976.58333
1588.968	3991.58333
1591.999	3980.91667
1595.029	3960.25
1598.056	4001.25
1601.081	4027.25
1604.104	4013.58333
1607.125	3971.91667
1610.144	3884.91667
1613.16	3824.58333
1616.174	3751.58333
1619.186	3662.58333
1622.196	3585.25
1625.203	3516.91667
1628.209	3466.91667
1631.212	3460.91667
1634.213	3484.25
1637.212	3485.25
1640.209	3465.91667
1643.203	3387.91667
1646.196	3275.58333
1649.186	3116.91667
1652.174	3013.58333
1655.16	2923.91667
1658.144	2846.25
1661.125	2719.25
1664.105	2598.58333
1667.082	2483.91667
1670.057	2367.25
1673.03	2221.58333
1676.001	2083.58333
1678.97	1971.58333
1681.937	1814.25
1684.901	1738.91667
1687.863	1688.25
1690.824	1621.25
1693.782	1599.58333
1696.738	1535.25
1699.692	1499.25
1702.643	1464.25
1705.593	1443.91667
1708.54	1438.25
1711.486	1423.91667
1714.429	1380.58333
1717.37	1395.58333
1720.309	1373.91667
1723.246	1377.58333
1726.181	1341.91667
1729.113	1351.25
1732.044	1321.91667
1734.972	1321.91667
1737.899	1323.91667
1740.823	1320.58333
1743.745	1312.91667
1746.665	1263.91667
1749.583	1253.91667
1752.499	1233.25
1755.413	1242.91667
1758.325	1198.58333
1761.235	1182.25
1764.142	1178.58333
1767.048	1151.58333
1769.951	1162.58333
1772.852	1173.25
1775.752	1241.58333
1778.649	1310.25
1781.544	1195.58333
1784.437	1136.58333
1787.328	1119.91667
1790.217	1132.25
1793.104	1092.58333
1795.989	1092.25
1798.872	1084.25
1801.753	1084.91667
1804.631	1086.91667
1807.508	1106.25
1810.383	1091.91667
1813.255	1091.25
1816.126	1084.58333
1818.994	1072.25
1821.861	1059.25
1824.725	1060.91667
1827.587	1053.58333
1830.448	1047.58333
1833.306	1028.91667
1836.162	1034.91667
1839.017	1031.58333
1841.869	1019.91667
1844.719	1019.91667
1847.567	1006.58333
1850.414	1000.25
1853.258	1009.58333
1856.1	1011.91667
1858.94	1029.58333
1861.778	1011.91667
1864.614	998.25
1867.448	995.91667
1870.28	984.91667
1873.111	1020.58333
1875.939	1004.25
1878.765	1012.58333
1881.589	980.25
1884.411	980.91667
1887.231	998.58333
1890.049	973.25
1892.865	983.58333
1895.68	982.58333
1898.492	1006.25
1901.302	983.25
1904.11	967.91667
1906.916	958.25
1909.721	938.25
1912.523	943.91667
1915.323	930.58333
1918.122	925.58333
1920.918	941.58333
1923.712	924.25
1926.505	908.25
1929.295	918.25
1932.084	945.25
1934.87	923.25
1937.655	919.58333
1940.438	922.58333
1943.218	910.25
1945.997	919.25
1948.774	919.91667
1951.549	919.58333
1954.322	915.58333
1957.093	912.25
1959.862	891.91667
1962.629	893.25
1965.394	884.58333
1968.157	878.25
1970.918	871.91667
1973.678	869.91667
1976.435	886.58333
1979.19	877.25
1981.944	847.25
1984.696	865.25
1987.445	853.25
1990.193	861.91667
1992.939	865.91667
1995.683	856.58333
1998.425	839.25
2001.165	864.58333
2003.903	842.58333
2006.639	838.91667
2009.374	853.58333
2012.106	842.91667
2014.837	831.58333
2017.566	834.25
2020.292	844.58333
2023.017	827.25
2025.74	825.58333
2028.461	827.91667
2031.18	823.25
2033.898	822.58333
2036.613	817.58333
2039.327	814.58333
2042.038	801.58333
2044.748	806.58333
2047.456	825.58333
2050.162	801.58333
2052.866	800.25
2055.568	802.25
2058.268	794.58333
2060.967	799.91667
2063.663	777.91667
2066.358	791.91667
2069.051	777.91667
2071.742	792.58333
2074.431	783.25
2077.118	777.91667
2079.804	777.58333
2082.487	776.58333
2085.169	784.91667
2087.849	794.91667
2090.527	763.25
2093.203	778.25
2095.877	792.25
2098.55	781.91667
2101.22	788.91667
2103.889	781.58333
2106.556	784.91667
2109.221	805.58333
2111.884	813.25
2114.546	859.58333
2117.205	888.91667
2119.863	953.58333
2122.519	987.91667
2125.173	1052.91667
2127.825	1109.91667
2130.475	1123.25
2133.124	1094.25
2135.771	1057.25
2138.416	1020.58333
2141.059	963.91667
2143.7	919.25
2146.339	883.25
2148.977	825.58333
2151.613	819.58333
2154.247	802.58333
2156.879	786.58333
2159.51	766.58333
2162.138	751.25
2164.765	753.25
2167.39	727.91667
2170.013	755.25
2172.634	738.25
2175.254	722.25
2177.872	751.91667
2180.488	703.91667
2183.102	700.91667
2185.714	700.91667
2188.325	678.91667
2190.934	678.25
2193.541	685.91667
2196.146	684.25
2198.75	660.25
2201.351	656.58333
2203.951	655.25
2206.549	669.25
2209.146	651.58333
2211.74	653.91667
2214.333	660.25
2216.924	630.91667
2219.514	648.58333
2222.101	640.25
2224.687	663.91667
2227.271	631.58333
2229.853	630.58333
2232.433	623.91667
2235.012	643.91667
2237.589	634.58333
2240.164	640.91667
2242.738	621.58333
2245.309	614.91667
2247.879	618.91667
2250.448	627.58333
2253.014	596.25
2255.579	590.58333
2258.142	599.91667
2260.703	582.58333
2263.262	606.58333
2265.82	580.25
2268.376	591.58333
2270.93	573.58333
2273.483	566.91667
2276.033	581.91667
2278.583	559.58333
2281.13	563.58333
2283.675	561.25
2286.219	560.25
2288.761	559.58333
2291.302	562.58333
2293.841	567.25
2296.377	558.58333
2298.913	545.25
2301.446	563.25
2303.978	553.91667
2306.508	533.25
2309.037	549.91667
2311.563	554.58333
2314.088	545.25
2316.612	528.25
2319.133	538.58333
2321.653	538.91667
2324.171	522.25
2326.688	534.91667
2329.202	526.25
2331.715	527.58333
2334.227	525.25
2336.736	524.91667
2339.244	511.25
2341.751	503.91667
2344.255	518.91667
2346.758	512.25
2349.259	500.91667
2351.759	511.91667
2354.257	508.58333
2356.753	494.58333
2359.247	500.58333
2361.74	497.58333
2364.231	502.91667
2366.721	508.58333
2369.209	492.58333
2371.695	505.25
2374.179	487.25
2376.662	476.25
2379.143	502.25
2381.622	480.91667
2384.1	510.58333
2386.576	494.25
2389.051	501.25
2391.524	511.25
2393.995	498.91667
2396.464	483.91667
2398.932	475.58333
2401.398	475.58333
2403.863	484.25
2406.325	473.58333
2408.787	483.25
2411.246	473.25
2413.704	462.91667
2416.16	472.25
2418.615	470.58333
2421.068	473.25
2423.519	466.91667
2425.969	459.58333
2428.417	474.25
2430.863	487.58333
2433.308	469.91667
2435.751	461.58333
2438.193	452.58333
2440.633	455.91667
2443.071	461.25
2445.508	452.91667
2447.943	452.58333
2450.376	449.58333
2452.808	454.91667
2455.238	444.91667
2457.667	472.91667
2460.093	453.25
2462.519	442.91667
2464.942	446.25
2467.365	440.25
2469.785	449.91667
2472.204	443.91667
2474.621	429.58333
2477.037	451.25
2479.451	423.58333
2481.863	426.58333
2484.274	421.58333
2486.683	431.25
2489.091	441.91667
2491.497	432.25
2493.901	431.25
2496.304	420.25
2498.705	423.91667
2501.105	431.91667
2503.503	448.25
2505.899	404.25
2508.294	440.58333
2510.687	421.58333
2513.079	421.91667
2515.469	408.91667
2517.858	424.58333
2520.245	430.58333
2522.63	407.25
2525.014	410.91667
2527.396	407.91667
2529.776	404.25
2532.156	412.25
2534.533	404.25
2536.909	401.91667
2539.283	383.25
2541.656	397.91667
2544.027	417.58333
2546.397	405.58333
2548.765	398.58333
2551.131	397.25
2553.496	402.58333
2555.86	399.91667
2558.221	403.58333
2560.582	392.25
2562.94	392.58333
2565.298	396.25
2567.653	402.91667
2570.007	373.25
2572.36	395.91667
2574.711	380.25
2577.06	404.58333
2579.408	385.58333
2581.754	383.25
2584.099	393.25
2586.442	378.25
2588.784	380.58333
2591.124	388.58333
2593.463	386.58333
2595.8	387.25
2598.135	368.25
2600.469	366.25
2602.802	385.25
2605.133	382.58333
2607.462	366.91667
2609.79	358.58333
2612.116	380.58333
2614.441	382.58333
2616.764	375.58333
2619.086	370.91667
2621.406	361.91667
2623.725	384.91667
2626.042	374.58333
2628.358	360.25
2630.672	368.91667
2632.985	379.25
2635.296	379.91667
2637.606	372.25
2639.914	361.58333
2642.22	359.25
2644.525	366.91667
2646.829	377.91667
2649.131	381.91667
2651.432	383.91667
2653.731	374.58333
2656.028	378.58333
2658.324	379.25
2660.619	371.25
2662.912	385.58333
2665.204	366.58333
2667.494	378.25
2669.782	364.25
2672.07	375.25
2674.355	377.91667
2676.639	369.91667
2678.922	360.25
2681.203	368.91667
2683.483	356.25
2685.761	364.58333
2688.038	371.91667
2690.313	392.25
2692.587	365.58333
2694.859	364.91667
2697.13	376.58333
2699.399	378.25
2701.667	382.58333
2703.933	382.91667
2706.198	383.25
2708.461	388.25
2710.723	392.58333
2712.984	381.25
2715.243	393.58333
2717.5	379.91667
2719.757	394.25
2722.011	387.58333
2724.264	395.58333
2726.516	406.25
2728.766	388.91667
2731.015	392.25
2733.262	392.25
2735.508	387.25
2737.753	401.91667
2739.996	377.58333
2742.237	377.58333
2744.477	385.25
2746.716	383.25
2748.953	378.58333
2751.189	375.25
2753.423	367.25
2755.656	358.58333
2757.887	356.58333
2760.117	363.58333
2762.346	359.91667
2764.573	353.25
2766.798	359.91667
2769.022	357.91667
2771.245	365.58333
2773.467	362.58333
2775.686	368.91667
2777.905	369.91667
2780.122	370.58333
2782.337	376.25
2784.552	364.58333
2786.764	376.91667
2788.976	380.91667
2791.186	372.58333
2793.394	378.25
2795.601	389.58333
2797.807	391.91667
2800.011	401.25
2802.214	396.25
2804.415	395.25
2806.615	396.58333
2808.814	403.25
2811.011	414.58333
2813.206	411.58333
2815.401	432.25
2817.594	434.58333
2819.785	442.91667
2821.975	438.91667
2824.164	437.25
2826.351	457.58333
2828.537	469.25
2830.722	479.25
2832.905	476.25
2835.086	506.25
2837.267	544.58333
2839.445	553.58333
2841.623	565.91667
2843.799	590.58333
2845.974	620.91667
2848.147	663.25
2850.319	693.91667
2852.489	705.58333
2854.659	725.91667
2856.826	732.91667
2858.993	743.58333
2861.158	746.91667
2863.321	746.58333
2865.483	760.91667
2867.644	773.91667
2869.804	768.25
2871.962	763.58333
2874.118	773.58333
2876.274	831.91667
2878.428	828.25
2880.58	785.25
2882.731	771.58333
2884.881	768.91667
2887.03	762.58333
2889.177	758.25
2891.322	779.25
2893.467	773.25
2895.61	766.91667
2897.751	789.58333
2899.892	771.25
2902.03	786.58333
2904.168	786.25
2906.304	785.91667
2908.439	810.91667
2910.572	789.25
2912.704	796.91667
2914.835	801.91667
2916.965	795.25
2919.093	810.25
2921.219	777.91667
2923.345	815.25
2925.469	772.25
2927.591	783.25
2929.712	748.91667
2931.832	759.25
2933.951	741.91667
2936.068	715.91667
2938.184	703.91667
2940.299	671.58333
2942.412	656.25
2944.524	619.25
2946.634	612.25
2948.744	573.91667
2950.851	594.58333
2952.958	551.91667
2955.063	551.25
2957.167	538.25
2959.269	501.91667
2961.371	522.91667
2963.471	481.91667
2965.569	489.25
2967.666	457.91667
2969.762	446.25
2971.857	435.91667
2973.95	421.91667
2976.042	411.58333
2978.133	405.58333
2980.222	395.25
2982.31	377.25
2984.396	361.58333
2986.482	369.91667
2988.566	356.58333
2990.648	347.25
2992.73	339.25
2994.81	330.91667
2996.889	338.58333
2998.966	328.58333
3001.042	338.25
3003.117	327.25
3005.191	326.91667
3007.263	320.91667
3009.334	310.58333
3011.403	313.91667
3013.472	302.25
3015.539	314.25
3017.604	314.58333
3019.669	279.91667
3021.732	285.91667
3023.794	290.91667
3025.854	280.91667
3027.914	276.25
3029.971	282.25
3032.028	272.91667
3034.083	270.58333
3036.137	270.91667
3038.19	260.91667
3040.242	259.91667
3042.292	246.58333
3044.341	249.25
3046.388	264.91667
3048.435	245.25
3050.48	258.25
3052.524	253.91667
3054.566	230.91667
3056.607	243.58333
3058.647	239.25
3060.686	225.91667
3062.723	221.58333
3064.759	206.58333
3066.794	0.58333
3068.828	2.25
3070.86	2.91667
