-0.839	555.95833
3.438	650.625
7.711	193.29167
11.981	65.625
16.247	46.95833
20.509	51.29167
24.768	46.95833
29.024	55.625
33.276	45.95833
37.524	53.625
41.769	48.29167
46.01	36.29167
50.247	49.625
54.481	62.29167
58.712	60.95833
62.939	50.95833
67.162	63.625
71.382	56.29167
75.599	46.625
79.812	62.625
84.021	86.625
88.227	61.625
92.429	62.95833
96.628	54.625
100.823	73.29167
105.015	76.29167
109.204	72.29167
113.388	75.625
117.57	79.29167
121.748	92.95833
125.922	86.625
130.093	107.29167
134.261	103.95833
138.425	103.625
142.585	146.625
146.742	139.29167
150.896	175.625
155.046	233.95833
159.193	368.95833
163.336	639.95833
167.476	1202.625
171.613	2182.625
175.746	3632.625
179.875	5296.29167
184.002	6828.625
188.124	7809.95833
192.244	8091.29167
196.36	7960.625
200.472	7643.625
204.581	7322.29167
208.687	7097.29167
212.79	6972.95833
216.889	6854.625
220.984	6803.95833
225.077	6764.95833
229.165	6743.625
233.251	6709.29167
237.333	6636.625
241.412	6598.625
245.487	6475.625
249.559	6433.95833
253.628	6371.95833
257.694	6296.29167
261.756	6270.29167
265.814	6111.29167
269.87	5881.625
273.922	5688.29167
277.97	5562.95833
282.016	5454.95833
286.058	5436.95833
290.097	5501.29167
294.132	5552.625
298.164	5546.29167
302.193	5304.95833
306.219	4931.625
310.241	4551.625
314.26	4236.95833
318.276	3949.625
322.288	3756.29167
326.297	3613.29167
330.303	3525.625
334.305	3421.95833
338.305	3378.29167
342.301	3351.95833
346.294	3323.95833
350.283	3305.95833
354.269	3244.625
358.252	3230.625
362.232	3207.29167
366.209	3206.29167
370.182	3161.29167
374.152	3144.29167
378.119	3160.95833
382.083	3165.95833
386.043	3175.95833
390	3154.625
393.954	3199.95833
397.905	3217.29167
401.852	3212.95833
405.797	3145.95833
409.738	3271.95833
413.676	3410.625
417.61	3513.95833
421.542	3213.29167
425.47	3043.95833
429.396	3020.625
433.318	2986.29167
437.236	2985.29167
441.152	2975.625
445.065	2923.625
448.974	2931.625
452.88	2907.625
456.783	2886.95833
460.683	2857.29167
464.58	2887.625
468.473	2880.95833
472.364	2882.95833
476.251	2894.95833
480.135	2930.29167
484.016	2953.625
487.894	2971.625
491.769	2987.29167
495.641	2976.95833
499.509	2985.95833
503.375	2980.29167
507.237	2974.29167
511.096	2962.95833
514.952	2953.95833
518.805	2959.95833
522.655	2974.29167
526.502	2914.29167
530.346	2943.95833
534.187	2979.625
538.024	2975.95833
541.859	2970.29167
545.69	3018.95833
549.519	3017.95833
553.344	3016.625
557.166	2961.95833
560.985	2929.95833
564.802	2862.29167
568.615	2842.625
572.425	2788.625
576.232	2802.29167
580.036	2806.29167
583.836	2802.625
587.634	2801.29167
591.429	2807.95833
595.221	2856.95833
599.01	2888.625
602.796	2892.29167
606.578	2903.95833
610.358	2940.625
614.135	2893.625
617.909	2904.625
621.679	2872.625
625.447	2857.95833
629.212	2867.29167
632.973	2886.29167
636.732	2899.29167
640.488	2916.95833
644.241	2861.95833
647.991	2832.29167
651.737	2847.625
655.481	2817.625
659.222	2850.29167
662.96	2847.95833
666.695	2846.95833
670.427	2863.29167
674.156	2876.625
677.882	2861.625
681.605	2849.625
685.325	2834.95833
689.043	2814.29167
692.757	2797.95833
696.468	2793.625
700.177	2787.95833
703.882	2751.95833
707.585	2754.95833
711.284	2743.29167
714.981	2738.625
718.675	2750.625
722.366	2778.95833
726.054	2734.625
729.739	2732.625
733.421	2737.95833
737.1	2760.625
740.777	2754.95833
744.45	2790.95833
748.121	2798.95833
751.789	2831.95833
755.453	2834.625
759.115	2858.625
762.774	2876.95833
766.431	2899.29167
770.084	2921.625
773.734	2918.29167
777.382	2967.625
781.027	2984.625
784.669	2986.95833
788.308	3005.29167
791.944	3013.95833
795.577	3009.625
799.208	3059.625
802.835	3066.95833
806.46	3081.29167
810.082	3117.29167
813.701	3116.95833
817.317	3127.625
820.931	3143.625
824.542	3108.625
828.149	3073.625
831.754	3055.95833
835.357	3041.29167
838.956	3067.625
842.553	3123.625
846.146	3129.95833
849.737	3054.95833
853.326	3001.95833
856.911	3020.625
860.493	3049.95833
864.073	3127.625
867.65	3277.625
871.225	3267.95833
874.796	3115.29167
878.365	3093.625
881.931	3137.95833
885.494	3146.29167
889.054	3152.95833
892.612	3143.95833
896.166	3102.625
899.719	3080.29167
903.268	3042.625
906.814	3040.29167
910.358	3008.625
913.899	3019.29167
917.438	3023.625
920.973	2986.625
924.506	3019.625
928.036	3071.625
931.564	3113.625
935.088	3124.29167
938.61	3149.29167
942.129	3179.29167
945.646	3254.95833
949.16	3314.29167
952.671	3358.625
956.179	3370.95833
959.685	3356.625
963.188	3367.625
966.688	3314.95833
970.185	3243.29167
973.68	3163.29167
977.173	3087.95833
980.662	3056.29167
984.149	3091.29167
987.633	3046.625
991.114	3103.29167
994.593	3141.95833
998.069	3226.95833
1001.542	3343.29167
1005.013	3287.95833
1008.481	3102.95833
1011.947	3020.625
1015.409	3035.29167
1018.869	3004.95833
1022.327	3006.95833
1025.782	2985.95833
1029.234	2999.29167
1032.683	2942.625
1036.13	2847.95833
1039.574	2737.95833
1043.016	2682.625
1046.455	2645.95833
1049.891	2629.29167
1053.325	2625.29167
1056.756	2636.625
1060.184	2645.95833
1063.61	2669.625
1067.033	2680.95833
1070.454	2666.29167
1073.872	2707.95833
1077.287	2696.625
1080.7	2706.29167
1084.11	2678.95833
1087.517	2667.29167
1090.922	2639.95833
1094.325	2590.625
1097.724	2581.625
1101.122	2579.95833
1104.516	2573.29167
1107.908	2589.95833
1111.298	2598.29167
1114.684	2641.95833
1118.069	2688.625
1121.45	2702.95833
1124.83	2684.625
1128.206	2702.625
1131.58	2771.625
1134.951	2820.29167
1138.32	2897.29167
1141.687	3028.625
1145.05	3046.29167
1148.412	3052.95833
1151.77	3058.95833
1155.126	3049.29167
1158.48	3009.625
1161.831	3024.95833
1165.18	3047.95833
1168.525	3087.625
1171.869	3148.29167
1175.21	3135.95833
1178.548	3184.625
1181.884	3215.29167
1185.217	3229.29167
1188.548	3312.625
1191.877	3368.29167
1195.202	3465.625
1198.526	3539.95833
1201.846	3582.29167
1205.165	3578.95833
1208.48	3544.625
1211.794	3523.29167
1215.104	3551.625
1218.413	3515.95833
1221.719	3527.95833
1225.022	3474.95833
1228.323	3411.625
1231.621	3399.29167
1234.917	3379.29167
1238.21	3346.95833
1241.501	3349.29167
1244.79	3357.625
1248.076	3357.95833
1251.359	3387.95833
1254.64	3463.95833
1257.919	3489.29167
1261.195	3534.29167
1264.468	3609.625
1267.74	3652.95833
1271.008	3673.29167
1274.275	3639.95833
1277.538	3620.625
1280.8	3606.95833
1284.059	3576.625
1287.315	3623.95833
1290.569	3662.625
1293.821	3668.95833
1297.07	3690.625
1300.317	3694.625
1303.562	3679.625
1306.803	3653.625
1310.043	3635.625
1313.28	3591.95833
1316.515	3581.625
1319.747	3548.29167
1322.977	3531.95833
1326.204	3491.95833
1329.429	3448.95833
1332.652	3439.29167
1335.872	3417.625
1339.09	3375.95833
1342.306	3369.29167
1345.519	3341.95833
1348.729	3331.29167
1351.938	3299.29167
1355.144	3262.95833
1358.347	3215.625
1361.548	3213.95833
1364.747	3232.625
1367.944	3161.29167
1371.138	3173.95833
1374.329	3175.625
1377.518	3224.625
1380.705	3239.625
1383.89	3206.29167
1387.072	3120.95833
1390.252	3001.29167
1393.429	2865.625
1396.605	2804.625
1399.777	2729.29167
1402.948	2724.625
1406.116	2690.625
1409.282	2682.625
1412.445	2665.625
1415.606	2705.625
1418.765	2751.625
1421.921	2773.625
1425.075	2831.95833
1428.227	2913.29167
1431.376	3069.95833
1434.524	3165.29167
1437.668	3267.29167
1440.811	3270.29167
1443.951	3314.625
1447.089	3331.625
1450.224	3345.29167
1453.357	3316.95833
1456.488	3293.29167
1459.617	3227.625
1462.743	3197.95833
1465.867	3123.625
1468.989	3075.625
1472.108	3022.625
1475.225	2962.95833
1478.34	2957.625
1481.453	2937.95833
1484.563	2934.95833
1487.671	2962.625
1490.776	3027.95833
1493.88	3036.29167
1496.981	3081.95833
1500.08	3152.625
1503.176	3191.29167
1506.271	3221.95833
1509.363	3276.625
1512.452	3324.95833
1515.54	3335.95833
1518.625	3425.625
1521.708	3492.95833
1524.789	3591.29167
1527.867	3760.625
1530.944	3912.95833
1534.018	4080.29167
1537.089	4231.29167
1540.159	4301.95833
1543.226	4238.625
1546.291	4170.29167
1549.354	4060.625
1552.415	3968.29167
1555.473	3867.625
1558.529	3811.29167
1561.583	3748.95833
1564.634	3734.625
1567.684	3720.29167
1570.731	3768.625
1573.776	3815.625
1576.819	3843.29167
1579.859	3889.95833
1582.898	3972.29167
1585.934	3982.95833
1588.968	3979.95833
1591.999	3960.95833
1595.029	4005.95833
1598.056	3995.625
1601.081	4019.29167
1604.104	4005.625
1607.125	3963.29167
1610.144	3902.95833
1613.16	3809.625
1616.174	3727.95833
1619.186	3681.29167
1622.196	3555.95833
1625.203	3496.95833
1628.209	3431.29167
1631.212	3417.625
1634.213	3426.95833
1637.212	3422.29167
1640.209	3379.95833
1643.203	3309.95833
1646.196	3199.625
1649.186	3044.625
1652.174	2956.95833
1655.16	2844.625
1658.144	2776.95833
1661.125	2633.625
1664.105	2558.95833
1667.082	2412.95833
1670.057	2315.29167
1673.03	2140.95833
1676.001	2012.29167
1678.97	1906.29167
1681.937	1775.95833
1684.901	1680.29167
1687.863	1652.29167
1690.824	1542.29167
1693.782	1531.625
1696.738	1485.95833
1699.692	1454.625
1702.643	1414.29167
1705.593	1390.95833
1708.54	1381.95833
1711.486	1367.29167
1714.429	1330.29167
1717.37	1337.625
1720.309	1292.95833
1723.246	1328.95833
1726.181	1290.29167
1729.113	1290.625
1732.044	1254.625
1734.972	1260.625
1737.899	1261.625
1740.823	1256.95833
1743.745	1256.625
1746.665	1203.29167
1749.583	1193.29167
1752.499	1177.29167
1755.413	1171.29167
1758.325	1131.95833
1761.235	1136.29167
1764.142	1121.29167
1767.048	1123.29167
1769.951	1105.95833
1772.852	1106.625
1775.752	1194.95833
1778.649	1265.95833
1781.544	1154.95833
1784.437	1063.625
1787.328	1075.95833
1790.217	1060.29167
1793.104	1030.95833
1795.989	1034.625
1798.872	1030.29167
1801.753	1036.625
1804.631	1036.95833
1807.508	1036.625
1810.383	1036.95833
1813.255	1024.625
1816.126	1020.95833
1818.994	1015.625
1821.861	1012.95833
1824.725	1008.95833
1827.587	998.29167
1830.448	991.95833
1833.306	975.29167
1836.162	968.95833
1839.017	975.625
1841.869	966.95833
1844.719	964.95833
1847.567	954.625
1850.414	950.95833
1853.258	960.29167
1856.1	961.29167
1858.94	960.29167
1861.778	964.29167
1864.614	940.625
1867.448	929.95833
1870.28	930.95833
1873.111	956.625
1875.939	933.625
1878.765	953.29167
1881.589	923.29167
1884.411	937.95833
1887.231	935.95833
1890.049	930.95833
1892.865	942.625
1895.68	927.29167
1898.492	952.95833
1901.302	940.29167
1904.11	918.29167
1906.916	893.95833
1909.721	881.29167
1912.523	898.625
1915.323	884.95833
1918.122	876.29167
1920.918	899.625
1923.712	876.625
1926.505	880.29167
1929.295	870.95833
1932.084	878.29167
1934.87	878.29167
1937.655	881.625
1940.438	866.625
1943.218	868.625
1945.997	870.95833
1948.774	877.95833
1951.549	876.29167
1954.322	862.29167
1957.093	866.625
1959.862	853.95833
1962.629	847.29167
1965.394	852.29167
1968.157	830.95833
1970.918	837.625
1973.678	824.625
1976.435	843.625
1979.19	826.625
1981.944	831.95833
1984.696	810.29167
1987.445	809.95833
1990.193	817.95833
1992.939	829.29167
1995.683	808.625
1998.425	787.29167
2001.165	828.29167
2003.903	800.625
2006.639	789.625
2009.374	806.29167
2012.106	803.29167
2014.837	770.95833
2017.566	793.29167
2020.292	788.29167
2023.017	797.625
2025.74	785.95833
2028.461	781.95833
2031.18	792.29167
2033.898	775.29167
2036.613	790.625
2039.327	784.625
2042.038	766.625
2044.748	771.29167
2047.456	769.95833
2050.162	757.625
2052.866	764.95833
2055.568	776.29167
2058.268	757.625
2060.967	755.29167
2063.663	735.95833
2066.358	751.29167
2069.051	730.29167
2071.742	748.29167
2074.431	753.95833
2077.118	744.95833
2079.804	735.29167
2082.487	745.625
2085.169	745.625
2087.849	763.29167
2090.527	727.625
2093.203	747.29167
2095.877	751.625
2098.55	757.29167
2101.22	750.95833
2103.889	750.29167
2106.556	760.625
2109.221	773.625
2111.884	782.29167
2114.546	815.625
2117.205	868.29167
2119.863	924.29167
2122.519	977.625
2125.173	1031.95833
2127.825	1087.29167
2130.475	1107.29167
2133.124	1065.29167
2135.771	1038.95833
2138.416	983.95833
2141.059	928.95833
2143.7	896.95833
2146.339	852.29167
2148.977	801.625
2151.613	803.29167
2154.247	769.625
2156.879	758.625
2159.51	735.625
2162.138	715.29167
2164.765	726.95833
2167.39	706.29167
2170.013	726.29167
2172.634	707.29167
2175.254	693.625
2177.872	721.625
2180.488	671.625
2183.102	676.95833
2185.714	665.95833
2188.325	645.95833
2190.934	655.625
2193.541	660.95833
2196.146	659.29167
2198.75	634.625
2201.351	641.29167
2203.951	625.625
2206.549	655.29167
2209.146	629.625
2211.74	626.29167
2214.333	625.625
2216.924	614.29167
2219.514	621.29167
2222.101	611.95833
2224.687	631.95833
2227.271	613.29167
2229.853	598.625
2232.433	603.625
2235.012	625.29167
2237.589	618.95833
2240.164	622.95833
2242.738	597.95833
2245.309	585.95833
2247.879	597.625
2250.448	595.625
2253.014	584.95833
2255.579	573.625
2258.142	572.29167
2260.703	558.95833
2263.262	561.95833
2265.82	567.625
2268.376	559.625
2270.93	550.625
2273.483	552.625
2276.033	557.29167
2278.583	549.29167
2281.13	548.95833
2283.675	544.95833
2286.219	536.95833
2288.761	547.625
2291.302	537.29167
2293.841	555.29167
2296.377	528.625
2298.913	537.625
2301.446	536.95833
2303.978	535.625
2306.508	521.95833
2309.037	533.95833
2311.563	528.95833
2314.088	539.95833
2316.612	510.29167
2319.133	523.625
2321.653	519.29167
2324.171	504.29167
2326.688	524.625
2329.202	498.95833
2331.715	523.625
2334.227	509.29167
2336.736	504.625
2339.244	491.625
2341.751	493.29167
2344.255	501.95833
2346.758	504.95833
2349.259	480.625
2351.759	491.29167
2354.257	494.625
2356.753	479.29167
2359.247	482.95833
2361.74	489.95833
2364.231	481.95833
2366.721	499.95833
2369.209	483.625
2371.695	490.95833
2374.179	477.29167
2376.662	463.625
2379.143	505.625
2381.622	475.625
2384.1	501.29167
2386.576	486.29167
2389.051	492.95833
2391.524	494.95833
2393.995	483.29167
2396.464	471.625
2398.932	467.95833
2401.398	459.95833
2403.863	467.29167
2406.325	457.29167
2408.787	456.95833
2411.246	464.625
2413.704	446.95833
2416.16	449.95833
2418.615	448.625
2421.068	466.29167
2423.519	459.95833
2425.969	456.625
2428.417	451.95833
2430.863	475.625
2433.308	457.95833
2435.751	453.95833
2438.193	445.95833
2440.633	450.95833
2443.071	453.95833
2445.508	438.625
2447.943	429.95833
2450.376	434.29167
2452.808	435.95833
2455.238	434.29167
2457.667	461.29167
2460.093	430.29167
2462.519	424.625
2464.942	436.95833
2467.365	434.625
2469.785	433.95833
2472.204	424.95833
2474.621	423.625
2477.037	442.95833
2479.451	412.95833
2481.863	417.625
2484.274	422.29167
2486.683	420.95833
2489.091	422.29167
2491.497	419.625
2493.901	433.95833
2496.304	410.29167
2498.705	432.95833
2501.105	417.625
2503.503	439.29167
2505.899	411.625
2508.294	428.29167
2510.687	413.95833
2513.079	420.625
2515.469	400.29167
2517.858	413.29167
2520.245	415.95833
2522.63	404.625
2525.014	395.625
2527.396	402.95833
2529.776	391.29167
2532.156	401.29167
2534.533	395.29167
2536.909	391.29167
2539.283	382.95833
2541.656	388.29167
2544.027	410.29167
2546.397	397.29167
2548.765	386.95833
2551.131	391.29167
2553.496	392.95833
2555.86	394.95833
2558.221	383.625
2560.582	387.95833
2562.94	372.625
2565.298	383.625
2567.653	400.625
2570.007	366.625
2572.36	390.95833
2574.711	380.625
2577.06	390.95833
2579.408	395.29167
2581.754	375.29167
2584.099	381.95833
2586.442	377.625
2588.784	382.29167
2591.124	385.29167
2593.463	377.29167
2595.8	382.29167
2598.135	371.95833
2600.469	372.95833
2602.802	378.29167
2605.133	381.95833
2607.462	366.95833
2609.79	356.95833
2612.116	375.29167
2614.441	370.29167
2616.764	368.95833
2619.086	371.95833
2621.406	353.95833
2623.725	383.95833
2626.042	374.29167
2628.358	362.29167
2630.672	367.95833
2632.985	374.29167
2635.296	373.625
2637.606	365.95833
2639.914	353.29167
2642.22	366.29167
2644.525	368.95833
2646.829	374.95833
2649.131	382.625
2651.432	374.95833
2653.731	365.29167
2656.028	382.625
2658.324	385.625
2660.619	362.95833
2662.912	368.29167
2665.204	354.625
2667.494	368.625
2669.782	358.625
2672.07	364.29167
2674.355	369.625
2676.639	359.625
2678.922	359.95833
2681.203	374.95833
2683.483	357.29167
2685.761	367.625
2688.038	370.29167
2690.313	382.29167
2692.587	372.95833
2694.859	360.625
2697.13	370.29167
2699.399	383.625
2701.667	391.95833
2703.933	382.29167
2706.198	376.95833
2708.461	391.625
2710.723	385.95833
2712.984	378.625
2715.243	387.29167
2717.5	369.625
2719.757	391.95833
2722.011	384.625
2724.264	394.29167
2726.516	405.29167
2728.766	391.625
2731.015	394.29167
2733.262	395.29167
2735.508	387.95833
2737.753	397.29167
2739.996	378.29167
2742.237	373.625
2744.477	386.625
2746.716	386.29167
2748.953	381.625
2751.189	389.29167
2753.423	374.29167
2755.656	364.625
2757.887	363.29167
2760.117	362.29167
2762.346	347.625
2764.573	347.95833
2766.798	358.95833
2769.022	366.29167
2771.245	361.625
2773.467	366.625
2775.686	370.29167
2777.905	373.29167
2780.122	377.625
2782.337	373.29167
2784.552	374.625
2786.764	380.95833
2788.976	372.95833
2791.186	375.95833
2793.394	383.29167
2795.601	390.29167
2797.807	412.625
2800.011	409.95833
2802.214	404.625
2804.415	408.95833
2806.615	408.95833
2808.814	413.29167
2811.011	426.95833
2813.206	422.625
2815.401	434.29167
2817.594	436.95833
2819.785	450.95833
2821.975	438.625
2824.164	445.625
2826.351	465.29167
2828.537	477.95833
2830.722	485.95833
2832.905	486.95833
2835.086	529.625
2837.267	552.95833
2839.445	566.29167
2841.623	583.29167
2843.799	609.625
2845.974	644.29167
2848.147	665.29167
2850.319	703.29167
2852.489	734.29167
2854.659	739.625
2856.826	743.95833
2858.993	783.625
2861.158	770.625
2863.321	766.625
2865.483	788.625
2867.644	794.625
2869.804	785.95833
2871.962	790.95833
2874.118	809.95833
2876.274	861.95833
2878.428	856.95833
2880.58	821.625
2882.731	795.625
2884.881	791.625
2887.03	794.95833
2889.177	785.625
2891.322	793.29167
2893.467	777.95833
2895.61	790.29167
2897.751	811.29167
2899.892	796.29167
2902.03	814.625
2904.168	812.625
2906.304	818.29167
2908.439	827.95833
2910.572	818.29167
2912.704	828.29167
2914.835	823.29167
2916.965	819.95833
2919.093	846.29167
2921.219	815.625
2923.345	831.29167
2925.469	807.29167
2927.591	808.95833
2929.712	769.625
2931.832	767.29167
2933.951	742.29167
2936.068	735.29167
2938.184	711.625
2940.299	689.29167
2942.412	683.625
2944.524	640.29167
2946.634	623.625
2948.744	575.29167
2950.851	598.29167
2952.958	557.625
2955.063	561.625
2957.167	537.625
2959.269	513.29167
2961.371	537.625
2963.471	485.95833
2965.569	491.29167
2967.666	468.625
2969.762	456.625
2971.857	452.95833
2973.95	433.95833
2976.042	421.625
2978.133	413.625
2980.222	399.29167
2982.31	382.29167
2984.396	364.95833
2986.482	369.29167
2988.566	365.95833
2990.648	360.29167
2992.73	359.95833
2994.81	343.95833
2996.889	337.95833
2998.966	335.625
3001.042	341.29167
3003.117	336.95833
3005.191	329.625
3007.263	325.95833
3009.334	309.625
3011.403	325.29167
3013.472	311.95833
3015.539	310.29167
3017.604	317.625
3019.669	282.625
3021.732	288.29167
3023.794	293.29167
3025.854	276.95833
3027.914	282.29167
3029.971	293.95833
3032.028	274.625
3034.083	277.29167
3036.137	274.625
3038.19	256.95833
3040.242	254.625
3042.292	255.95833
3044.341	255.29167
3046.388	259.95833
3048.435	243.95833
3050.48	262.29167
3052.524	246.29167
3054.566	233.29167
3056.607	248.625
3058.647	233.95833
3060.686	224.625
3062.723	220.95833
3064.759	213.29167
3066.794	-1.04167
3068.828	3.625
3070.86	3.95833
