-0.839	464.41667
3.438	534.41667
7.711	164.08333
11.981	63.08333
16.247	44.41667
20.509	51.08333
24.768	47.75
29.024	55.41667
33.276	46.41667
37.524	46.41667
41.769	42.75
46.01	34.75
50.247	47.75
54.481	62.08333
58.712	65.41667
62.939	48.75
67.162	63.75
71.382	58.75
75.599	45.41667
79.812	64.41667
84.021	77.41667
88.227	60.41667
92.429	60.75
96.628	53.75
100.823	72.08333
105.015	74.75
109.204	71.08333
113.388	77.41667
117.57	79.75
121.748	89.08333
125.922	80.75
130.093	100.41667
134.261	102.75
138.425	102.08333
142.585	143.41667
146.742	143.41667
150.896	168.75
155.046	211.08333
159.193	346.41667
163.336	601.41667
167.476	1113.41667
171.613	2043.41667
175.746	3425.08333
179.875	5063.41667
184.002	6534.75
188.124	7517.75
192.244	7827.08333
196.36	7694.75
200.472	7348.75
204.581	7043.41667
208.687	6774.75
212.79	6548.75
216.889	6464.75
220.984	6318.41667
225.077	6290.41667
229.165	6197.75
233.251	6130.75
237.333	6045.08333
241.412	5933.41667
245.487	5783.08333
249.559	5704.75
253.628	5627.75
257.694	5552.41667
261.756	5512.75
265.814	5357.41667
269.87	5179.08333
273.922	4996.75
277.97	4905.75
282.016	4851.08333
286.058	4848.08333
290.097	4916.41667
294.132	4927.08333
298.164	4892.41667
302.193	4652.75
306.219	4367.08333
310.241	4075.08333
314.26	3786.41667
318.276	3561.08333
322.288	3416.08333
326.297	3296.08333
330.303	3225.41667
334.305	3148.08333
338.305	3094.75
342.301	3033.08333
346.294	3012.08333
350.283	2986.08333
354.269	2953.75
358.252	2944.08333
362.232	2919.41667
366.209	2902.08333
370.182	2857.08333
374.152	2871.08333
378.119	2862.08333
382.083	2842.75
386.043	2847.41667
390	2818.41667
393.954	2835.08333
397.905	2837.08333
401.852	2835.41667
405.797	2809.41667
409.738	2814.08333
413.676	2811.08333
417.61	2837.08333
421.542	2775.08333
425.47	2731.08333
429.396	2697.75
433.318	2681.75
437.236	2675.41667
441.152	2686.08333
445.065	2629.75
448.974	2640.41667
452.88	2590.75
456.783	2596.08333
460.683	2562.08333
464.58	2566.41667
468.473	2593.41667
472.364	2580.08333
476.251	2594.75
480.135	2619.41667
484.016	2648.08333
487.894	2669.08333
491.769	2635.75
495.641	2677.08333
499.509	2666.75
503.375	2668.41667
507.237	2651.08333
511.096	2651.08333
514.952	2708.75
518.805	2777.08333
522.655	2805.08333
526.502	2733.75
530.346	2649.08333
534.187	2654.41667
538.024	2645.08333
541.859	2693.41667
545.69	2684.41667
549.519	2691.75
553.344	2672.41667
557.166	2610.75
560.985	2588.41667
564.802	2556.08333
568.615	2503.75
572.425	2479.75
576.232	2474.08333
580.036	2469.08333
583.836	2467.75
587.634	2505.75
591.429	2491.75
595.221	2541.41667
599.01	2561.08333
602.796	2590.08333
606.578	2603.08333
610.358	2592.08333
614.135	2559.08333
617.909	2574.41667
621.679	2539.41667
625.447	2512.41667
629.212	2517.41667
632.973	2541.75
636.732	2543.41667
640.488	2519.75
644.241	2499.41667
647.991	2494.41667
651.737	2520.08333
655.481	2467.41667
659.222	2500.08333
662.96	2470.41667
666.695	2501.41667
670.427	2531.75
674.156	2539.41667
677.882	2506.08333
681.605	2513.41667
685.325	2479.08333
689.043	2479.08333
692.757	2471.08333
696.468	2465.41667
700.177	2455.75
703.882	2435.08333
707.585	2430.08333
711.284	2427.41667
714.981	2443.41667
718.675	2423.41667
722.366	2433.08333
726.054	2400.75
729.739	2419.41667
733.421	2438.41667
737.1	2407.08333
740.777	2443.41667
744.45	2451.75
748.121	2459.75
751.789	2522.08333
755.453	2505.41667
759.115	2532.41667
762.774	2509.75
766.431	2530.08333
770.084	2555.41667
773.734	2569.41667
777.382	2611.41667
781.027	2615.08333
784.669	2647.75
788.308	2651.75
791.944	2660.41667
795.577	2668.75
799.208	2685.75
802.835	2700.75
806.46	2707.75
810.082	2716.41667
813.701	2702.08333
817.317	2748.75
820.931	2753.41667
824.542	2744.41667
828.149	2703.75
831.754	2671.75
835.357	2682.41667
838.956	2681.41667
842.553	2683.41667
846.146	2677.08333
849.737	2621.08333
853.326	2626.75
856.911	2642.41667
860.493	2667.75
864.073	2686.75
867.65	2728.08333
871.225	2760.75
874.796	2736.75
878.365	2719.08333
881.931	2719.08333
885.494	2759.41667
889.054	2750.41667
892.612	2744.41667
896.166	2733.08333
899.719	2710.08333
903.268	2664.41667
906.814	2678.75
910.358	2631.75
913.899	2600.08333
917.438	2622.08333
920.973	2617.75
924.506	2650.75
928.036	2678.75
931.564	2709.75
935.088	2749.41667
938.61	2747.41667
942.129	2766.08333
945.646	2842.41667
949.16	2881.41667
952.671	2917.41667
956.179	2932.08333
959.685	2909.08333
963.188	2909.75
966.688	2867.41667
970.185	2788.08333
973.68	2710.41667
977.173	2689.75
980.662	2656.75
984.149	2669.75
987.633	2661.41667
991.114	2701.75
994.593	2730.08333
998.069	2821.75
1001.542	2859.41667
1005.013	2828.41667
1008.481	2683.41667
1011.947	2638.75
1015.409	2612.41667
1018.869	2606.08333
1022.327	2620.08333
1025.782	2591.75
1029.234	2585.08333
1032.683	2523.08333
1036.13	2487.41667
1039.574	2399.08333
1043.016	2335.08333
1046.455	2298.08333
1049.891	2273.08333
1053.325	2269.75
1056.756	2295.41667
1060.184	2284.08333
1063.61	2298.41667
1067.033	2321.75
1070.454	2322.75
1073.872	2349.08333
1077.287	2330.75
1080.7	2350.75
1084.11	2304.41667
1087.517	2320.41667
1090.922	2291.08333
1094.325	2252.08333
1097.724	2241.41667
1101.122	2239.75
1104.516	2218.75
1107.908	2236.08333
1111.298	2275.75
1114.684	2305.41667
1118.069	2331.41667
1121.45	2346.75
1124.83	2324.41667
1128.206	2364.41667
1131.58	2379.08333
1134.951	2453.41667
1138.32	2505.08333
1141.687	2592.41667
1145.05	2647.75
1148.412	2644.08333
1151.77	2629.41667
1155.126	2610.41667
1158.48	2582.08333
1161.831	2611.08333
1165.18	2610.08333
1168.525	2642.08333
1171.869	2677.41667
1175.21	2698.41667
1178.548	2716.08333
1181.884	2762.08333
1185.217	2787.08333
1188.548	2837.75
1191.877	2879.75
1195.202	2986.08333
1198.526	3023.75
1201.846	3060.41667
1205.165	3050.41667
1208.48	3039.75
1211.794	3045.08333
1215.104	3042.75
1218.413	3044.08333
1221.719	3012.41667
1225.022	2992.08333
1228.323	2953.41667
1231.621	2937.75
1234.917	2887.75
1238.21	2941.41667
1241.501	2935.75
1244.79	2912.75
1248.076	2905.41667
1251.359	2932.75
1254.64	2985.41667
1257.919	2999.08333
1261.195	3051.75
1264.468	3094.75
1267.74	3146.41667
1271.008	3122.08333
1274.275	3140.08333
1277.538	3121.75
1280.8	3118.08333
1284.059	3117.08333
1287.315	3138.75
1290.569	3118.41667
1293.821	3144.41667
1297.07	3169.75
1300.317	3172.75
1303.562	3141.08333
1306.803	3103.41667
1310.043	3113.08333
1313.28	3058.41667
1316.515	3054.75
1319.747	3032.41667
1322.977	2999.08333
1326.204	2999.08333
1329.429	2941.41667
1332.652	2943.08333
1335.872	2913.08333
1339.09	2921.75
1342.306	2892.08333
1345.519	2847.08333
1348.729	2844.08333
1351.938	2841.08333
1355.144	2797.75
1358.347	2778.08333
1361.548	2759.08333
1364.747	2743.41667
1367.944	2696.75
1371.138	2742.41667
1374.329	2742.41667
1377.518	2778.75
1380.705	2772.08333
1383.89	2730.41667
1387.072	2663.41667
1390.252	2571.75
1393.429	2491.41667
1396.605	2390.75
1399.777	2337.75
1402.948	2319.08333
1406.116	2288.75
1409.282	2294.41667
1412.445	2311.08333
1415.606	2304.08333
1418.765	2339.75
1421.921	2366.75
1425.075	2442.75
1428.227	2506.08333
1431.376	2598.08333
1434.524	2690.08333
1437.668	2759.41667
1440.811	2789.75
1443.951	2806.75
1447.089	2819.75
1450.224	2821.08333
1453.357	2802.41667
1456.488	2799.75
1459.617	2743.75
1462.743	2707.08333
1465.867	2626.75
1468.989	2606.41667
1472.108	2574.75
1475.225	2510.08333
1478.34	2478.41667
1481.453	2453.08333
1484.563	2486.08333
1487.671	2521.08333
1490.776	2540.75
1493.88	2599.75
1496.981	2620.08333
1500.08	2647.41667
1503.176	2690.08333
1506.271	2707.41667
1509.363	2755.41667
1512.452	2777.75
1515.54	2790.41667
1518.625	2831.75
1521.708	2912.08333
1524.789	2988.41667
1527.867	3058.75
1530.944	3228.75
1534.018	3354.08333
1537.089	3546.75
1540.159	3552.08333
1543.226	3547.41667
1546.291	3510.75
1549.354	3391.75
1552.415	3292.41667
1555.473	3227.41667
1558.529	3198.75
1561.583	3156.41667
1564.634	3137.41667
1567.684	3136.08333
1570.731	3151.41667
1573.776	3183.41667
1576.819	3181.75
1579.859	3232.08333
1582.898	3278.75
1585.934	3290.08333
1588.968	3308.08333
1591.999	3309.41667
1595.029	3311.75
1598.056	3349.75
1601.081	3352.41667
1604.104	3332.08333
1607.125	3307.08333
1610.144	3245.75
1613.16	3192.08333
1616.174	3132.75
1619.186	3064.41667
1622.196	2968.75
1625.203	2943.41667
1628.209	2870.41667
1631.212	2857.08333
1634.213	2867.75
1637.212	2877.08333
1640.209	2843.08333
1643.203	2772.75
1646.196	2678.41667
1649.186	2566.75
1652.174	2490.08333
1655.16	2394.08333
1658.144	2333.41667
1661.125	2230.75
1664.105	2138.08333
1667.082	2055.75
1670.057	1952.41667
1673.03	1837.41667
1676.001	1707.75
1678.97	1602.08333
1681.937	1527.41667
1684.901	1438.08333
1687.863	1395.41667
1690.824	1332.41667
1693.782	1320.41667
1696.738	1264.75
1699.692	1230.41667
1702.643	1182.08333
1705.593	1192.75
1708.54	1177.08333
1711.486	1177.75
1714.429	1139.08333
1717.37	1144.41667
1720.309	1115.08333
1723.246	1123.75
1726.181	1089.41667
1729.113	1094.41667
1732.044	1066.75
1734.972	1073.08333
1737.899	1077.41667
1740.823	1075.08333
1743.745	1036.41667
1746.665	1031.08333
1749.583	1017.75
1752.499	995.75
1755.413	992.75
1758.325	974.08333
1761.235	965.08333
1764.142	960.08333
1767.048	933.08333
1769.951	945.75
1772.852	939.75
1775.752	947.41667
1778.649	948.75
1781.544	940.41667
1784.437	909.75
1787.328	914.75
1790.217	913.41667
1793.104	876.41667
1795.989	880.08333
1798.872	888.08333
1801.753	895.41667
1804.631	886.41667
1807.508	893.41667
1810.383	877.08333
1813.255	877.41667
1816.126	877.08333
1818.994	865.41667
1821.861	859.08333
1824.725	869.41667
1827.587	854.75
1830.448	856.08333
1833.306	834.41667
1836.162	843.08333
1839.017	826.08333
1841.869	839.08333
1844.719	824.08333
1847.567	811.41667
1850.414	805.08333
1853.258	803.41667
1856.1	813.41667
1858.94	816.75
1861.778	817.75
1864.614	810.08333
1867.448	808.08333
1870.28	793.41667
1873.111	835.08333
1875.939	817.75
1878.765	820.08333
1881.589	801.08333
1884.411	808.75
1887.231	813.08333
1890.049	783.08333
1892.865	802.41667
1895.68	784.41667
1898.492	804.08333
1901.302	782.41667
1904.11	791.08333
1906.916	773.08333
1909.721	766.75
1912.523	771.75
1915.323	754.41667
1918.122	754.41667
1920.918	757.75
1923.712	740.41667
1926.505	744.75
1929.295	747.75
1932.084	770.41667
1934.87	762.08333
1937.655	750.75
1940.438	749.75
1943.218	747.75
1945.997	759.75
1948.774	773.75
1951.549	747.75
1954.322	749.08333
1957.093	748.08333
1959.862	738.75
1962.629	723.75
1965.394	737.41667
1968.157	719.75
1970.918	735.08333
1973.678	712.41667
1976.435	725.75
1979.19	709.08333
1981.944	717.75
1984.696	704.41667
1987.445	690.08333
1990.193	706.41667
1992.939	716.08333
1995.683	702.75
1998.425	687.08333
2001.165	722.75
2003.903	701.08333
2006.639	675.08333
2009.374	708.41667
2012.106	692.08333
2014.837	674.08333
2017.566	700.75
2020.292	698.08333
2023.017	694.75
2025.74	687.41667
2028.461	679.75
2031.18	692.08333
2033.898	680.75
2036.613	681.75
2039.327	674.75
2042.038	667.41667
2044.748	669.41667
2047.456	667.41667
2050.162	660.08333
2052.866	670.75
2055.568	681.08333
2058.268	666.41667
2060.967	663.08333
2063.663	649.08333
2066.358	663.08333
2069.051	655.41667
2071.742	660.08333
2074.431	667.41667
2077.118	657.41667
2079.804	641.75
2082.487	658.41667
2085.169	657.75
2087.849	678.08333
2090.527	660.41667
2093.203	658.08333
2095.877	678.41667
2098.55	676.08333
2101.22	679.41667
2103.889	676.41667
2106.556	693.75
2109.221	711.75
2111.884	719.08333
2114.546	766.75
2117.205	802.75
2119.863	868.08333
2122.519	912.75
2125.173	968.08333
2127.825	1023.08333
2130.475	1014.08333
2133.124	983.75
2135.771	938.41667
2138.416	911.41667
2141.059	845.75
2143.7	815.41667
2146.339	773.08333
2148.977	730.75
2151.613	729.41667
2154.247	708.08333
2156.879	689.08333
2159.51	664.41667
2162.138	667.75
2164.765	657.75
2167.39	624.41667
2170.013	663.08333
2172.634	643.08333
2175.254	626.08333
2177.872	659.41667
2180.488	608.08333
2183.102	622.08333
2185.714	617.75
2188.325	597.08333
2190.934	608.08333
2193.541	608.41667
2196.146	590.75
2198.75	594.41667
2201.351	587.75
2203.951	569.08333
2206.549	604.75
2209.146	581.75
2211.74	572.75
2214.333	586.41667
2216.924	560.75
2219.514	573.08333
2222.101	560.75
2224.687	582.41667
2227.271	560.08333
2229.853	565.41667
2232.433	545.08333
2235.012	575.75
2237.589	564.41667
2240.164	573.41667
2242.738	562.75
2245.309	545.75
2247.879	562.41667
2250.448	563.08333
2253.014	548.75
2255.579	537.08333
2258.142	545.75
2260.703	529.41667
2263.262	537.75
2265.82	528.75
2268.376	532.41667
2270.93	519.75
2273.483	518.75
2276.033	523.75
2278.583	517.75
2281.13	519.75
2283.675	516.08333
2286.219	520.08333
2288.761	514.75
2291.302	528.08333
2293.841	522.75
2296.377	499.08333
2298.913	510.75
2301.446	525.75
2303.978	525.08333
2306.508	511.41667
2309.037	508.41667
2311.563	502.08333
2314.088	521.41667
2316.612	485.75
2319.133	508.75
2321.653	501.08333
2324.171	494.75
2326.688	513.75
2329.202	499.08333
2331.715	498.08333
2334.227	497.41667
2336.736	511.75
2339.244	494.75
2341.751	486.08333
2344.255	507.08333
2346.758	498.41667
2349.259	482.75
2351.759	496.75
2354.257	485.41667
2356.753	484.08333
2359.247	490.75
2361.74	494.08333
2364.231	496.75
2366.721	492.08333
2369.209	488.41667
2371.695	482.41667
2374.179	481.41667
2376.662	470.75
2379.143	492.08333
2381.622	469.08333
2384.1	492.41667
2386.576	482.75
2389.051	496.08333
2391.524	505.41667
2393.995	491.75
2396.464	474.41667
2398.932	483.08333
2401.398	477.75
2403.863	474.08333
2406.325	484.41667
2408.787	480.41667
2411.246	487.08333
2413.704	477.41667
2416.16	476.75
2418.615	473.75
2421.068	487.41667
2423.519	482.08333
2425.969	469.41667
2428.417	483.08333
2430.863	503.41667
2433.308	484.41667
2435.751	479.75
2438.193	479.75
2440.633	480.75
2443.071	479.75
2445.508	478.08333
2447.943	474.41667
2450.376	472.75
2452.808	472.41667
2455.238	467.75
2457.667	507.41667
2460.093	474.08333
2462.519	454.08333
2464.942	479.08333
2467.365	474.75
2469.785	481.75
2472.204	480.41667
2474.621	473.75
2477.037	487.41667
2479.451	460.75
2481.863	452.41667
2484.274	464.41667
2486.683	479.41667
2489.091	482.08333
2491.497	470.08333
2493.901	482.41667
2496.304	477.41667
2498.705	477.41667
2501.105	477.41667
2503.503	494.75
2505.899	465.41667
2508.294	488.41667
2510.687	477.41667
2513.079	483.41667
2515.469	469.75
2517.858	471.41667
2520.245	471.08333
2522.63	474.75
2525.014	452.41667
2527.396	462.08333
2529.776	462.08333
2532.156	479.08333
2534.533	463.08333
2536.909	466.08333
2539.283	454.41667
2541.656	461.08333
2544.027	488.41667
2546.397	467.41667
2548.765	460.75
2551.131	468.41667
2553.496	459.08333
2555.86	481.41667
2558.221	475.41667
2560.582	470.75
2562.94	454.75
2565.298	465.75
2567.653	481.08333
2570.007	451.08333
2572.36	485.08333
2574.711	456.75
2577.06	481.75
2579.408	476.41667
2581.754	472.75
2584.099	480.08333
2586.442	463.75
2588.784	481.08333
2591.124	472.41667
2593.463	474.08333
2595.8	480.41667
2598.135	465.08333
2600.469	466.08333
2602.802	480.08333
2605.133	495.08333
2607.462	462.08333
2609.79	469.41667
2612.116	484.75
2614.441	482.75
2616.764	476.41667
2619.086	477.08333
2621.406	461.75
2623.725	497.41667
2626.042	490.41667
2628.358	476.75
2630.672	472.75
2632.985	495.08333
2635.296	482.08333
2637.606	478.08333
2639.914	475.08333
2642.22	489.75
2644.525	488.08333
2646.829	489.08333
2649.131	503.08333
2651.432	493.41667
2653.731	487.75
2656.028	506.08333
2658.324	515.08333
2660.619	489.08333
2662.912	496.75
2665.204	492.08333
2667.494	504.08333
2669.782	493.08333
2672.07	507.75
2674.355	515.08333
2676.639	506.08333
2678.922	493.75
2681.203	505.41667
2683.483	489.75
2685.761	498.75
2688.038	501.75
2690.313	520.75
2692.587	513.41667
2694.859	501.75
2697.13	514.41667
2699.399	517.41667
2701.667	532.41667
2703.933	526.08333
2706.198	520.41667
2708.461	534.41667
2710.723	537.41667
2712.984	517.41667
2715.243	539.08333
2717.5	526.08333
2719.757	545.08333
2722.011	533.41667
2724.264	543.41667
2726.516	551.08333
2728.766	550.75
2731.015	546.75
2733.262	560.08333
2735.508	541.08333
2737.753	550.75
2739.996	536.08333
2742.237	546.41667
2744.477	545.75
2746.716	547.75
2748.953	542.75
2751.189	541.08333
2753.423	540.75
2755.656	529.41667
2757.887	531.08333
2760.117	522.75
2762.346	523.41667
2764.573	527.08333
2766.798	537.75
2769.022	535.41667
2771.245	542.75
2773.467	543.08333
2775.686	540.41667
2777.905	537.75
2780.122	551.75
2782.337	561.41667
2784.552	542.41667
2786.764	541.75
2788.976	560.08333
2791.186	559.41667
2793.394	570.41667
2795.601	573.75
2797.807	579.75
2800.011	586.75
2802.214	591.75
2804.415	588.75
2806.615	586.75
2808.814	588.75
2811.011	604.08333
2813.206	606.08333
2815.401	617.75
2817.594	619.08333
2819.785	622.75
2821.975	615.08333
2824.164	613.41667
2826.351	638.08333
2828.537	639.41667
2830.722	648.41667
2832.905	649.75
2835.086	674.75
2837.267	698.75
2839.445	710.08333
2841.623	719.41667
2843.799	746.75
2845.974	782.75
2848.147	795.75
2850.319	808.41667
2852.489	844.41667
2854.659	850.75
2856.826	863.75
2858.993	886.08333
2861.158	873.75
2863.321	874.41667
2865.483	890.08333
2867.644	882.41667
2869.804	878.41667
2871.962	884.41667
2874.118	887.08333
2876.274	893.41667
2878.428	883.75
2880.58	860.75
2882.731	857.08333
2884.881	871.41667
2887.03	875.08333
2889.177	868.41667
2891.322	884.41667
2893.467	878.41667
2895.61	874.08333
2897.751	893.75
2899.892	894.08333
2902.03	892.41667
2904.168	896.75
2906.304	898.75
2908.439	929.41667
2910.572	901.08333
2912.704	928.75
2914.835	926.08333
2916.965	922.08333
2919.093	942.41667
2921.219	913.08333
2923.345	937.41667
2925.469	891.41667
2927.591	912.08333
2929.712	875.41667
2931.832	881.75
2933.951	867.75
2936.068	857.08333
2938.184	844.08333
2940.299	813.41667
2942.412	803.08333
2944.524	776.08333
2946.634	765.41667
2948.744	740.08333
2950.851	755.08333
2952.958	725.41667
2955.063	717.41667
2957.167	720.41667
2959.269	689.41667
2961.371	717.75
2963.471	690.08333
2965.569	694.75
2967.666	660.41667
2969.762	669.08333
2971.857	654.41667
2973.95	635.41667
2976.042	640.75
2978.133	628.75
2980.222	613.41667
2982.31	602.41667
2984.396	578.75
2986.482	598.41667
2988.566	574.08333
2990.648	572.08333
2992.73	577.41667
2994.81	570.41667
2996.889	578.41667
2998.966	579.08333
3001.042	571.75
3003.117	569.41667
3005.191	574.08333
3007.263	571.41667
3009.334	547.75
3011.403	563.08333
3013.472	543.75
3015.539	543.75
3017.604	556.41667
3019.669	519.75
3021.732	526.08333
3023.794	526.75
3025.854	516.08333
3027.914	513.75
3029.971	524.75
3032.028	529.08333
3034.083	521.75
3036.137	516.08333
3038.19	496.75
3040.242	488.41667
3042.292	471.08333
3044.341	482.75
3046.388	492.41667
3048.435	456.08333
3050.48	476.08333
3052.524	466.41667
3054.566	457.75
3056.607	468.08333
3058.647	447.08333
3060.686	437.41667
3062.723	420.41667
3064.759	406.75
3066.794	1.41667
3068.828	1.08333
3070.86	1.41667
