-0.839	479.5
3.438	557.83333
7.711	167.16667
11.981	60.16667
16.247	44.16667
20.509	50.16667
24.768	43.5
29.024	54.5
33.276	44.16667
37.524	50.5
41.769	42.5
46.01	30.5
50.247	44.83333
54.481	55.16667
58.712	61.5
62.939	45.16667
67.162	63.16667
71.382	54.16667
75.599	46.5
79.812	59.5
84.021	77.5
88.227	58.83333
92.429	62.16667
96.628	56.16667
100.823	68.16667
105.015	70.16667
109.204	64.5
113.388	73.83333
117.57	71.83333
121.748	79.83333
125.922	75.5
130.093	91.83333
134.261	95.16667
138.425	94.5
142.585	132.5
146.742	119.5
150.896	147.83333
155.046	185.5
159.193	285.5
163.336	479.16667
167.476	902.83333
171.613	1625.5
175.746	2722.16667
179.875	3985.16667
184.002	5187.5
188.124	6017.5
192.244	6238.5
196.36	6164.16667
200.472	5929.5
204.581	5739.5
208.687	5549.83333
212.79	5419.5
216.889	5349.16667
220.984	5325.16667
225.077	5321.83333
229.165	5308.16667
233.251	5310.5
237.333	5266.83333
241.412	5190.83333
245.487	5099.83333
249.559	5022.83333
253.628	5015.5
257.694	5007.16667
261.756	4952.83333
265.814	4807.5
269.87	4657.83333
273.922	4527.83333
277.97	4463.83333
282.016	4399.16667
286.058	4378.16667
290.097	4486.83333
294.132	4527.5
298.164	4496.83333
302.193	4323.5
306.219	4027.5
310.241	3717.5
314.26	3443.83333
318.276	3184.83333
322.288	3032.83333
326.297	2900.5
330.303	2803.5
334.305	2749.16667
338.305	2704.83333
342.301	2654.16667
346.294	2635.83333
350.283	2636.16667
354.269	2604.83333
358.252	2590.5
362.232	2574.16667
366.209	2554.16667
370.182	2528.5
374.152	2516.16667
378.119	2514.16667
382.083	2519.83333
386.043	2531.16667
390	2502.83333
393.954	2529.16667
397.905	2506.83333
401.852	2514.16667
405.797	2472.16667
409.738	2507.16667
413.676	2547.83333
417.61	2559.5
421.542	2451.83333
425.47	2432.83333
429.396	2404.83333
433.318	2384.83333
437.236	2384.83333
441.152	2415.16667
445.065	2350.5
448.974	2348.5
452.88	2331.83333
456.783	2315.5
460.683	2300.83333
464.58	2308.16667
468.473	2301.83333
472.364	2303.16667
476.251	2303.16667
480.135	2350.16667
484.016	2363.16667
487.894	2403.83333
491.769	2387.5
495.641	2366.5
499.509	2387.5
503.375	2368.5
507.237	2376.16667
511.096	2356.83333
514.952	2405.83333
518.805	2416.16667
522.655	2448.16667
526.502	2418.5
530.346	2387.83333
534.187	2414.5
538.024	2391.83333
541.859	2401.5
545.69	2409.16667
549.519	2413.16667
553.344	2389.16667
557.166	2363.16667
560.985	2348.83333
564.802	2304.83333
568.615	2287.5
572.425	2235.83333
576.232	2234.83333
580.036	2214.83333
583.836	2224.5
587.634	2241.16667
591.429	2240.16667
595.221	2286.16667
599.01	2302.16667
602.796	2329.5
606.578	2328.16667
610.358	2350.83333
614.135	2306.16667
617.909	2320.83333
621.679	2290.16667
625.447	2259.5
629.212	2277.16667
632.973	2291.83333
636.732	2291.5
640.488	2273.5
644.241	2253.16667
647.991	2257.83333
651.737	2278.16667
655.481	2238.16667
659.222	2263.5
662.96	2243.5
666.695	2258.16667
670.427	2275.83333
674.156	2294.16667
677.882	2265.83333
681.605	2259.5
685.325	2257.5
689.043	2247.16667
692.757	2216.16667
696.468	2213.5
700.177	2228.16667
703.882	2211.16667
707.585	2203.83333
711.284	2186.5
714.981	2209.83333
718.675	2194.16667
722.366	2217.16667
726.054	2173.83333
729.739	2196.16667
733.421	2200.5
737.1	2195.16667
740.777	2221.83333
744.45	2222.83333
748.121	2220.5
751.789	2287.16667
755.453	2267.83333
759.115	2278.16667
762.774	2286.16667
766.431	2300.16667
770.084	2308.5
773.734	2325.83333
777.382	2361.5
781.027	2377.16667
784.669	2396.83333
788.308	2383.83333
791.944	2401.16667
795.577	2437.83333
799.208	2423.16667
802.835	2456.5
806.46	2457.83333
810.082	2475.83333
813.701	2487.83333
817.317	2499.83333
820.931	2503.16667
824.542	2500.16667
828.149	2455.83333
831.754	2451.5
835.357	2447.83333
838.956	2463.16667
842.553	2466.16667
846.146	2464.5
849.737	2409.16667
853.326	2399.83333
856.911	2405.83333
860.493	2431.5
864.073	2473.5
867.65	2514.83333
871.225	2539.5
874.796	2474.5
878.365	2490.83333
881.931	2498.5
885.494	2519.83333
889.054	2514.5
892.612	2510.5
896.166	2483.5
899.719	2463.16667
903.268	2425.16667
906.814	2429.16667
910.358	2399.83333
913.899	2396.5
917.438	2415.16667
920.973	2381.16667
924.506	2418.5
928.036	2452.16667
931.564	2466.5
935.088	2511.16667
938.61	2516.16667
942.129	2565.5
945.646	2591.5
949.16	2656.5
952.671	2676.16667
956.179	2706.83333
959.685	2662.83333
963.188	2666.16667
966.688	2671.5
970.185	2595.5
973.68	2542.83333
977.173	2484.16667
980.662	2443.16667
984.149	2441.5
987.633	2425.16667
991.114	2473.83333
994.593	2518.83333
998.069	2587.83333
1001.542	2658.83333
1005.013	2616.5
1008.481	2483.83333
1011.947	2426.83333
1015.409	2414.16667
1018.869	2399.5
1022.327	2419.5
1025.782	2384.5
1029.234	2407.16667
1032.683	2364.16667
1036.13	2296.16667
1039.574	2235.83333
1043.016	2160.5
1046.455	2118.83333
1049.891	2099.16667
1053.325	2109.16667
1056.756	2122.5
1060.184	2107.83333
1063.61	2136.5
1067.033	2139.5
1070.454	2150.16667
1073.872	2190.5
1077.287	2150.5
1080.7	2165.16667
1084.11	2162.83333
1087.517	2167.16667
1090.922	2117.5
1094.325	2090.83333
1097.724	2071.16667
1101.122	2072.5
1104.516	2074.5
1107.908	2056.5
1111.298	2113.16667
1114.684	2132.83333
1118.069	2142.5
1121.45	2188.5
1124.83	2157.5
1128.206	2191.83333
1131.58	2215.16667
1134.951	2279.5
1138.32	2336.16667
1141.687	2410.5
1145.05	2473.16667
1148.412	2444.5
1151.77	2446.83333
1155.126	2432.83333
1158.48	2404.83333
1161.831	2445.83333
1165.18	2438.16667
1168.525	2479.5
1171.869	2493.16667
1175.21	2520.16667
1178.548	2550.16667
1181.884	2561.16667
1185.217	2596.5
1188.548	2643.83333
1191.877	2698.16667
1195.202	2769.83333
1198.526	2825.83333
1201.846	2884.5
1205.165	2842.5
1208.48	2847.83333
1211.794	2827.16667
1215.104	2843.83333
1218.413	2832.16667
1221.719	2845.83333
1225.022	2814.5
1228.323	2749.83333
1231.621	2735.83333
1234.917	2709.16667
1238.21	2733.5
1241.501	2690.5
1244.79	2698.16667
1248.076	2687.16667
1251.359	2729.83333
1254.64	2778.83333
1257.919	2796.83333
1261.195	2837.5
1264.468	2888.5
1267.74	2926.16667
1271.008	2921.16667
1274.275	2911.83333
1277.538	2905.83333
1280.8	2882.5
1284.059	2865.83333
1287.315	2922.83333
1290.569	2934.83333
1293.821	2947.83333
1297.07	2978.5
1300.317	2995.5
1303.562	2980.5
1306.803	2941.16667
1310.043	2928.5
1313.28	2888.5
1316.515	2897.5
1319.747	2851.5
1322.977	2843.5
1326.204	2822.5
1329.429	2750.83333
1332.652	2773.5
1335.872	2741.16667
1339.09	2700.83333
1342.306	2696.83333
1345.519	2673.16667
1348.729	2633.16667
1351.938	2645.83333
1355.144	2645.83333
1358.347	2600.5
1361.548	2545.83333
1364.747	2550.5
1367.944	2544.83333
1371.138	2547.5
1374.329	2549.83333
1377.518	2588.5
1380.705	2574.5
1383.89	2577.16667
1387.072	2496.16667
1390.252	2387.83333
1393.429	2307.16667
1396.605	2271.83333
1399.777	2190.5
1402.948	2160.5
1406.116	2150.5
1409.282	2165.16667
1412.445	2176.5
1415.606	2183.83333
1418.765	2185.5
1421.921	2228.83333
1425.075	2285.16667
1428.227	2373.5
1431.376	2465.16667
1434.524	2557.83333
1437.668	2638.83333
1440.811	2653.5
1443.951	2679.16667
1447.089	2682.16667
1450.224	2684.16667
1453.357	2648.5
1456.488	2633.5
1459.617	2588.16667
1462.743	2574.83333
1465.867	2499.5
1468.989	2468.16667
1472.108	2453.5
1475.225	2401.83333
1478.34	2344.83333
1481.453	2346.5
1484.563	2352.5
1487.671	2378.16667
1490.776	2409.16667
1493.88	2416.83333
1496.981	2482.16667
1500.08	2504.5
1503.176	2528.16667
1506.271	2556.83333
1509.363	2580.83333
1512.452	2608.83333
1515.54	2665.5
1518.625	2682.16667
1521.708	2756.5
1524.789	2832.5
1527.867	2926.16667
1530.944	3099.83333
1534.018	3200.5
1537.089	3359.5
1540.159	3386.16667
1543.226	3366.5
1546.291	3294.83333
1549.354	3228.5
1552.415	3171.5
1555.473	3068.83333
1558.529	3011.83333
1561.583	2972.16667
1564.634	2972.5
1567.684	2961.5
1570.731	2972.5
1573.776	3011.16667
1576.819	3064.16667
1579.859	3076.83333
1582.898	3119.83333
1585.934	3166.83333
1588.968	3184.16667
1591.999	3144.83333
1595.029	3175.83333
1598.056	3182.5
1601.081	3199.16667
1604.104	3203.16667
1607.125	3169.83333
1610.144	3106.16667
1613.16	3045.83333
1616.174	2969.16667
1619.186	2912.83333
1622.196	2836.16667
1625.203	2771.83333
1628.209	2732.5
1631.212	2697.16667
1634.213	2706.16667
1637.212	2708.5
1640.209	2653.83333
1643.203	2584.16667
1646.196	2515.16667
1649.186	2422.5
1652.174	2351.16667
1655.16	2269.16667
1658.144	2212.16667
1661.125	2100.16667
1664.105	2026.83333
1667.082	1937.83333
1670.057	1832.16667
1673.03	1733.83333
1676.001	1596.83333
1678.97	1520.83333
1681.937	1439.16667
1684.901	1353.5
1687.863	1319.5
1690.824	1256.5
1693.782	1238.5
1696.738	1183.16667
1699.692	1144.83333
1702.643	1114.16667
1705.593	1119.16667
1708.54	1088.83333
1711.486	1108.83333
1714.429	1061.5
1717.37	1068.5
1720.309	1044.5
1723.246	1055.16667
1726.181	1026.16667
1729.113	1031.5
1732.044	1025.16667
1734.972	1010.83333
1737.899	1019.83333
1740.823	1017.16667
1743.745	1022.5
1746.665	974.83333
1749.583	957.83333
1752.499	935.83333
1755.413	940.83333
1758.325	916.16667
1761.235	908.83333
1764.142	894.16667
1767.048	884.16667
1769.951	900.16667
1772.852	884.5
1775.752	898.5
1778.649	917.83333
1781.544	890.16667
1784.437	848.5
1787.328	863.5
1790.217	855.5
1793.104	840.16667
1795.989	826.83333
1798.872	828.5
1801.753	835.5
1804.631	827.83333
1807.508	843.16667
1810.383	836.83333
1813.255	820.16667
1816.126	818.5
1818.994	820.5
1821.861	796.16667
1824.725	817.83333
1827.587	806.83333
1830.448	793.16667
1833.306	780.16667
1836.162	788.16667
1839.017	786.16667
1841.869	772.5
1844.719	781.5
1847.567	767.5
1850.414	763.83333
1853.258	767.5
1856.1	774.16667
1858.94	780.83333
1861.778	758.5
1864.614	751.5
1867.448	758.16667
1870.28	748.16667
1873.111	774.5
1875.939	754.83333
1878.765	770.5
1881.589	754.5
1884.411	750.5
1887.231	760.83333
1890.049	759.16667
1892.865	756.16667
1895.68	749.5
1898.492	750.16667
1901.302	749.5
1904.11	743.16667
1906.916	718.16667
1909.721	718.5
1912.523	732.83333
1915.323	719.83333
1918.122	707.83333
1920.918	728.5
1923.712	708.83333
1926.505	707.5
1929.295	690.5
1932.084	714.83333
1934.87	708.83333
1937.655	701.83333
1940.438	698.83333
1943.218	691.5
1945.997	707.5
1948.774	706.83333
1951.549	705.5
1954.322	703.16667
1957.093	693.5
1959.862	683.16667
1962.629	689.5
1965.394	686.83333
1968.157	663.83333
1970.918	678.16667
1973.678	664.5
1976.435	682.5
1979.19	661.83333
1981.944	664.5
1984.696	662.16667
1987.445	651.16667
1990.193	665.16667
1992.939	674.16667
1995.683	656.5
1998.425	649.83333
2001.165	667.16667
2003.903	650.5
2006.639	647.16667
2009.374	655.83333
2012.106	649.5
2014.837	635.83333
2017.566	638.16667
2020.292	651.83333
2023.017	637.5
2025.74	636.83333
2028.461	627.83333
2031.18	635.83333
2033.898	628.16667
2036.613	628.16667
2039.327	626.83333
2042.038	616.83333
2044.748	620.83333
2047.456	629.16667
2050.162	618.5
2052.866	620.5
2055.568	628.83333
2058.268	619.83333
2060.967	623.16667
2063.663	606.83333
2066.358	607.16667
2069.051	593.16667
2071.742	599.16667
2074.431	608.83333
2077.118	603.83333
2079.804	597.83333
2082.487	593.83333
2085.169	613.5
2087.849	625.5
2090.527	591.5
2093.203	605.16667
2095.877	616.83333
2098.55	622.16667
2101.22	616.5
2103.889	620.16667
2106.556	628.83333
2109.221	637.16667
2111.884	641.83333
2114.546	683.83333
2117.205	711.83333
2119.863	765.16667
2122.519	793.83333
2125.173	828.5
2127.825	875.16667
2130.475	889.83333
2133.124	846.83333
2135.771	814.5
2138.416	804.83333
2141.059	744.16667
2143.7	721.83333
2146.339	685.16667
2148.977	652.83333
2151.613	653.83333
2154.247	625.83333
2156.879	618.83333
2159.51	608.83333
2162.138	586.83333
2164.765	595.5
2167.39	573.5
2170.013	590.5
2172.634	579.5
2175.254	576.5
2177.872	595.16667
2180.488	550.5
2183.102	572.83333
2185.714	554.83333
2188.325	544.5
2190.934	544.5
2193.541	544.83333
2196.146	542.16667
2198.75	521.5
2201.351	519.16667
2203.951	517.83333
2206.549	532.83333
2209.146	522.83333
2211.74	526.5
2214.333	517.16667
2216.924	491.83333
2219.514	515.5
2222.101	501.83333
2224.687	522.83333
2227.271	506.16667
2229.853	495.5
2232.433	478.5
2235.012	526.16667
2237.589	515.83333
2240.164	515.16667
2242.738	500.83333
2245.309	489.5
2247.879	505.83333
2250.448	495.16667
2253.014	474.16667
2255.579	462.83333
2258.142	476.5
2260.703	467.16667
2263.262	478.5
2265.82	469.5
2268.376	480.5
2270.93	456.5
2273.483	456.5
2276.033	463.16667
2278.583	462.83333
2281.13	451.5
2283.675	448.16667
2286.219	455.5
2288.761	451.83333
2291.302	461.5
2293.841	463.5
2296.377	444.5
2298.913	459.5
2301.446	459.83333
2303.978	450.5
2306.508	443.5
2309.037	442.83333
2311.563	448.83333
2314.088	445.5
2316.612	423.5
2319.133	441.83333
2321.653	438.16667
2324.171	426.83333
2326.688	452.5
2329.202	426.83333
2331.715	439.83333
2334.227	423.5
2336.736	435.5
2339.244	418.5
2341.751	416.83333
2344.255	433.16667
2346.758	426.83333
2349.259	423.16667
2351.759	417.83333
2354.257	403.16667
2356.753	408.5
2359.247	415.5
2361.74	414.5
2364.231	419.16667
2366.721	415.83333
2369.209	410.83333
2371.695	417.16667
2374.179	409.16667
2376.662	398.5
2379.143	420.83333
2381.622	402.83333
2384.1	417.83333
2386.576	413.83333
2389.051	423.83333
2391.524	422.16667
2393.995	410.16667
2396.464	393.16667
2398.932	407.5
2401.398	390.83333
2403.863	399.5
2406.325	402.5
2408.787	400.5
2411.246	403.5
2413.704	394.83333
2416.16	396.16667
2418.615	397.16667
2421.068	403.83333
2423.519	402.5
2425.969	387.5
2428.417	406.5
2430.863	423.5
2433.308	410.16667
2435.751	393.16667
2438.193	393.5
2440.633	394.5
2443.071	391.83333
2445.508	384.83333
2447.943	388.83333
2450.376	388.5
2452.808	385.16667
2455.238	386.5
2457.667	417.83333
2460.093	384.83333
2462.519	382.5
2464.942	382.83333
2467.365	388.5
2469.785	396.16667
2472.204	388.83333
2474.621	370.5
2477.037	397.16667
2479.451	368.83333
2481.863	360.5
2484.274	376.5
2486.683	380.5
2489.091	387.83333
2491.497	383.16667
2493.901	385.83333
2496.304	375.83333
2498.705	385.83333
2501.105	370.83333
2503.503	404.5
2505.899	370.16667
2508.294	389.83333
2510.687	371.5
2513.079	377.83333
2515.469	366.83333
2517.858	369.83333
2520.245	376.83333
2522.63	368.5
2525.014	360.5
2527.396	358.83333
2529.776	361.83333
2532.156	377.5
2534.533	363.5
2536.909	355.83333
2539.283	338.5
2541.656	355.83333
2544.027	383.16667
2546.397	369.83333
2548.765	358.5
2551.131	361.83333
2553.496	365.83333
2555.86	361.83333
2558.221	363.16667
2560.582	357.5
2562.94	350.83333
2565.298	361.16667
2567.653	373.83333
2570.007	345.5
2572.36	373.16667
2574.711	351.16667
2577.06	369.16667
2579.408	360.83333
2581.754	353.83333
2584.099	363.16667
2586.442	349.16667
2588.784	364.83333
2591.124	357.16667
2593.463	348.83333
2595.8	363.5
2598.135	356.5
2600.469	353.83333
2602.802	359.16667
2605.133	366.16667
2607.462	348.16667
2609.79	348.16667
2612.116	356.5
2614.441	358.83333
2616.764	359.5
2619.086	352.5
2621.406	333.16667
2623.725	371.83333
2626.042	356.16667
2628.358	346.83333
2630.672	341.83333
2632.985	362.83333
2635.296	353.5
2637.606	346.83333
2639.914	342.5
2642.22	353.5
2644.525	351.83333
2646.829	359.16667
2649.131	374.16667
2651.432	369.83333
2653.731	351.83333
2656.028	369.83333
2658.324	366.83333
2660.619	354.83333
2662.912	361.5
2665.204	354.83333
2667.494	370.83333
2669.782	361.83333
2672.07	372.16667
2674.355	367.5
2676.639	360.83333
2678.922	353.16667
2681.203	358.83333
2683.483	352.16667
2685.761	352.5
2688.038	367.83333
2690.313	377.16667
2692.587	362.83333
2694.859	357.5
2697.13	362.5
2699.399	374.16667
2701.667	382.83333
2703.933	372.83333
2706.198	381.16667
2708.461	382.83333
2710.723	386.5
2712.984	385.83333
2715.243	382.16667
2717.5	374.5
2719.757	395.16667
2722.011	378.83333
2724.264	391.83333
2726.516	405.5
2728.766	382.5
2731.015	398.5
2733.262	390.16667
2735.508	385.16667
2737.753	388.83333
2739.996	369.16667
2742.237	373.83333
2744.477	385.83333
2746.716	384.16667
2748.953	393.83333
2751.189	384.5
2753.423	380.5
2755.656	361.5
2757.887	355.5
2760.117	368.83333
2762.346	364.16667
2764.573	364.16667
2766.798	367.5
2769.022	364.16667
2771.245	372.83333
2773.467	367.83333
2775.686	381.83333
2777.905	379.83333
2780.122	379.16667
2782.337	385.5
2784.552	385.83333
2786.764	380.83333
2788.976	386.16667
2791.186	388.5
2793.394	392.5
2795.601	392.16667
2797.807	408.16667
2800.011	411.5
2802.214	410.16667
2804.415	416.5
2806.615	408.83333
2808.814	414.5
2811.011	415.83333
2813.206	413.5
2815.401	430.5
2817.594	437.16667
2819.785	446.83333
2821.975	437.5
2824.164	446.5
2826.351	463.16667
2828.537	471.5
2830.722	483.16667
2832.905	483.83333
2835.086	515.16667
2837.267	528.83333
2839.445	538.5
2841.623	554.83333
2843.799	578.83333
2845.974	612.5
2848.147	638.5
2850.319	653.16667
2852.489	677.5
2854.659	691.16667
2856.826	702.16667
2858.993	728.5
2861.158	720.83333
2863.321	713.83333
2865.483	725.83333
2867.644	738.16667
2869.804	723.16667
2871.962	719.83333
2874.118	727.5
2876.274	740.16667
2878.428	746.16667
2880.58	743.83333
2882.731	712.83333
2884.881	726.5
2887.03	723.5
2889.177	714.83333
2891.322	733.16667
2893.467	728.83333
2895.61	721.5
2897.751	764.83333
2899.892	738.83333
2902.03	750.83333
2904.168	753.83333
2906.304	761.16667
2908.439	770.16667
2910.572	762.16667
2912.704	775.16667
2914.835	771.5
2916.965	753.5
2919.093	775.5
2921.219	761.5
2923.345	763.16667
2925.469	741.5
2927.591	738.5
2929.712	721.16667
2931.832	719.16667
2933.951	702.83333
2936.068	687.5
2938.184	674.83333
2940.299	657.83333
2942.412	637.5
2944.524	606.83333
2946.634	610.83333
2948.744	569.83333
2950.851	601.5
2952.958	555.5
2955.063	552.5
2957.167	542.16667
2959.269	517.5
2961.371	538.83333
2963.471	500.16667
2965.569	503.83333
2967.666	482.5
2969.762	466.5
2971.857	462.83333
2973.95	448.5
2976.042	440.83333
2978.133	432.16667
2980.222	430.83333
2982.31	405.16667
2984.396	396.83333
2986.482	399.5
2988.566	393.5
2990.648	385.83333
2992.73	381.16667
2994.81	372.83333
2996.889	371.83333
2998.966	378.16667
3001.042	377.16667
3003.117	376.16667
3005.191	375.83333
3007.263	377.16667
3009.334	357.16667
3011.403	358.83333
3013.472	352.83333
3015.539	355.83333
3017.604	367.5
3019.669	332.5
3021.732	338.16667
3023.794	337.5
3025.854	328.16667
3027.914	331.5
3029.971	336.5
3032.028	325.16667
3034.083	325.83333
3036.137	321.83333
3038.19	306.83333
3040.242	301.83333
3042.292	295.5
3044.341	300.83333
3046.388	305.16667
3048.435	290.5
3050.48	307.16667
3052.524	294.5
3054.566	282.5
3056.607	300.5
3058.647	284.83333
3060.686	266.83333
3062.723	264.16667
3064.759	250.83333
3066.794	-0.5
3068.828	1.5
3070.86	4.16667
