-0.839	471.125
3.438	544.79167
7.711	162.125
11.981	61.45833
16.247	44.79167
20.509	47.79167
24.768	44.125
29.024	54.125
33.276	44.79167
37.524	47.125
41.769	44.79167
46.01	34.125
50.247	46.125
54.481	58.45833
58.712	62.125
62.939	48.125
67.162	62.45833
71.382	54.79167
75.599	50.125
79.812	64.79167
84.021	78.79167
88.227	62.125
92.429	58.125
96.628	51.125
100.823	70.125
105.015	74.125
109.204	72.79167
113.388	77.45833
117.57	77.79167
121.748	88.45833
125.922	79.45833
130.093	97.79167
134.261	102.125
138.425	99.45833
142.585	140.45833
146.742	133.79167
150.896	170.79167
155.046	212.125
159.193	335.79167
163.336	582.125
167.476	1104.125
171.613	2031.79167
175.746	3377.45833
179.875	4960.79167
184.002	6472.125
188.124	7407.79167
192.244	7694.79167
196.36	7573.45833
200.472	7189.45833
204.581	6898.79167
208.687	6588.125
212.79	6400.45833
216.889	6277.45833
220.984	6182.125
225.077	6070.45833
229.165	6036.125
233.251	5939.125
237.333	5837.45833
241.412	5744.79167
245.487	5599.79167
249.559	5520.79167
253.628	5461.79167
257.694	5407.125
261.756	5286.79167
265.814	5150.45833
269.87	5013.125
273.922	4842.79167
277.97	4727.45833
282.016	4668.79167
286.058	4692.79167
290.097	4759.45833
294.132	4766.79167
298.164	4678.125
302.193	4516.125
306.219	4212.79167
310.241	3881.79167
314.26	3638.79167
318.276	3421.125
322.288	3272.45833
326.297	3144.125
330.303	3039.45833
334.305	2986.45833
338.305	2925.45833
342.301	2852.79167
346.294	2849.79167
350.283	2813.125
354.269	2789.45833
358.252	2765.79167
362.232	2736.79167
366.209	2737.79167
370.182	2703.125
374.152	2669.79167
378.119	2691.79167
382.083	2673.45833
386.043	2661.79167
390	2654.79167
393.954	2655.45833
397.905	2660.45833
401.852	2644.125
405.797	2610.79167
409.738	2635.125
413.676	2648.79167
417.61	2621.45833
421.542	2580.125
425.47	2532.45833
429.396	2516.125
433.318	2492.45833
437.236	2490.79167
441.152	2493.125
445.065	2450.125
448.974	2434.45833
452.88	2396.125
456.783	2394.125
460.683	2382.79167
464.58	2380.125
468.473	2390.125
472.364	2385.79167
476.251	2385.45833
480.135	2419.125
484.016	2456.79167
487.894	2450.125
491.769	2463.79167
495.641	2464.45833
499.509	2466.45833
503.375	2455.79167
507.237	2443.125
511.096	2447.79167
514.952	2519.125
518.805	2587.125
522.655	2620.125
526.502	2512.45833
530.346	2471.45833
534.187	2439.125
538.024	2475.45833
541.859	2478.45833
545.69	2486.125
549.519	2459.45833
553.344	2465.45833
557.166	2406.45833
560.985	2382.125
564.802	2356.45833
568.615	2330.125
572.425	2291.125
576.232	2284.79167
580.036	2271.45833
583.836	2267.79167
587.634	2290.79167
591.429	2279.45833
595.221	2333.79167
599.01	2361.79167
602.796	2398.125
606.578	2406.45833
610.358	2387.45833
614.135	2361.45833
617.909	2372.45833
621.679	2354.79167
625.447	2328.125
629.212	2349.79167
632.973	2328.45833
636.732	2349.45833
640.488	2349.45833
644.241	2320.45833
647.991	2303.45833
651.737	2312.125
655.481	2268.45833
659.222	2267.79167
662.96	2290.79167
666.695	2284.79167
670.427	2291.79167
674.156	2338.125
677.882	2320.79167
681.605	2320.45833
685.325	2289.79167
689.043	2301.45833
692.757	2269.79167
696.468	2289.79167
700.177	2259.45833
703.882	2240.79167
707.585	2238.125
711.284	2226.79167
714.981	2232.45833
718.675	2239.45833
722.366	2237.45833
726.054	2231.79167
729.739	2231.79167
733.421	2238.79167
737.1	2241.45833
740.777	2266.79167
744.45	2274.45833
748.121	2282.79167
751.789	2326.45833
755.453	2309.79167
759.115	2340.125
762.774	2352.79167
766.431	2343.125
770.084	2380.125
773.734	2387.125
777.382	2414.125
781.027	2459.79167
784.669	2468.125
788.308	2455.79167
791.944	2482.45833
795.577	2453.79167
799.208	2491.125
802.835	2515.45833
806.46	2512.79167
810.082	2534.45833
813.701	2522.45833
817.317	2571.45833
820.931	2541.79167
824.542	2524.45833
828.149	2507.79167
831.754	2491.45833
835.357	2489.125
838.956	2499.125
842.553	2504.125
846.146	2493.79167
849.737	2473.125
853.326	2464.45833
856.911	2460.125
860.493	2506.45833
864.073	2532.125
867.65	2553.45833
871.225	2595.125
874.796	2572.125
878.365	2555.125
881.931	2594.79167
885.494	2619.79167
889.054	2612.125
892.612	2615.125
896.166	2572.45833
899.719	2547.45833
903.268	2518.79167
906.814	2508.45833
910.358	2482.79167
913.899	2477.125
917.438	2457.125
920.973	2464.45833
924.506	2507.125
928.036	2531.79167
931.564	2570.125
935.088	2598.79167
938.61	2594.79167
942.129	2619.79167
945.646	2675.45833
949.16	2726.125
952.671	2782.45833
956.179	2777.125
959.685	2742.125
963.188	2733.125
966.688	2696.125
970.185	2627.45833
973.68	2555.45833
977.173	2526.45833
980.662	2502.79167
984.149	2508.125
987.633	2511.45833
991.114	2548.125
994.593	2595.125
998.069	2646.45833
1001.542	2720.45833
1005.013	2678.45833
1008.481	2523.45833
1011.947	2498.79167
1015.409	2488.79167
1018.869	2464.125
1022.327	2449.79167
1025.782	2459.79167
1029.234	2451.45833
1032.683	2399.125
1036.13	2344.79167
1039.574	2253.45833
1043.016	2207.79167
1046.455	2150.45833
1049.891	2144.79167
1053.325	2150.125
1056.756	2149.79167
1060.184	2189.79167
1063.61	2158.79167
1067.033	2198.45833
1070.454	2193.125
1073.872	2221.125
1077.287	2181.45833
1080.7	2199.125
1084.11	2187.45833
1087.517	2200.79167
1090.922	2139.45833
1094.325	2143.125
1097.724	2120.79167
1101.122	2129.79167
1104.516	2121.79167
1107.908	2103.79167
1111.298	2135.45833
1114.684	2168.125
1118.069	2201.79167
1121.45	2237.45833
1124.83	2218.45833
1128.206	2251.79167
1131.58	2281.79167
1134.951	2320.125
1138.32	2369.79167
1141.687	2482.45833
1145.05	2521.79167
1148.412	2535.79167
1151.77	2501.125
1155.126	2503.45833
1158.48	2499.45833
1161.831	2519.125
1165.18	2510.45833
1168.525	2558.79167
1171.869	2575.45833
1175.21	2605.45833
1178.548	2641.125
1181.884	2648.45833
1185.217	2677.125
1188.548	2731.125
1191.877	2762.45833
1195.202	2856.125
1198.526	2930.79167
1201.846	2939.79167
1205.165	2917.125
1208.48	2906.79167
1211.794	2912.79167
1215.104	2906.45833
1218.413	2922.125
1221.719	2911.79167
1225.022	2872.125
1228.323	2824.45833
1231.621	2815.125
1234.917	2792.45833
1238.21	2815.125
1241.501	2793.45833
1244.79	2796.125
1248.076	2787.79167
1251.359	2825.125
1254.64	2882.79167
1257.919	2882.79167
1261.195	2940.45833
1264.468	2970.45833
1267.74	3022.45833
1271.008	3027.125
1274.275	2995.79167
1277.538	3003.79167
1280.8	2984.79167
1284.059	2980.45833
1287.315	2998.125
1290.569	3010.79167
1293.821	3033.45833
1297.07	3052.125
1300.317	3056.125
1303.562	3041.79167
1306.803	3022.45833
1310.043	3017.45833
1313.28	2970.125
1316.515	2948.45833
1319.747	2929.125
1322.977	2916.79167
1326.204	2873.45833
1329.429	2821.79167
1332.652	2814.45833
1335.872	2787.45833
1339.09	2793.79167
1342.306	2758.79167
1345.519	2723.79167
1348.729	2692.45833
1351.938	2713.79167
1355.144	2663.125
1358.347	2630.125
1361.548	2626.45833
1364.747	2635.125
1367.944	2583.125
1371.138	2598.79167
1374.329	2622.79167
1377.518	2638.125
1380.705	2662.79167
1383.89	2646.125
1387.072	2551.125
1390.252	2478.45833
1393.429	2384.79167
1396.605	2306.79167
1399.777	2228.125
1402.948	2229.125
1406.116	2208.45833
1409.282	2201.125
1412.445	2172.45833
1415.606	2213.79167
1418.765	2242.79167
1421.921	2274.79167
1425.075	2326.79167
1428.227	2406.79167
1431.376	2509.79167
1434.524	2588.79167
1437.668	2635.125
1440.811	2679.125
1443.951	2720.45833
1447.089	2717.45833
1450.224	2713.125
1453.357	2719.45833
1456.488	2688.79167
1459.617	2649.45833
1462.743	2605.45833
1465.867	2560.45833
1468.989	2501.79167
1472.108	2456.45833
1475.225	2443.45833
1478.34	2400.125
1481.453	2395.45833
1484.563	2409.79167
1487.671	2455.45833
1490.776	2464.45833
1493.88	2527.45833
1496.981	2538.125
1500.08	2567.125
1503.176	2587.79167
1506.271	2605.79167
1509.363	2647.125
1512.452	2683.125
1515.54	2704.125
1518.625	2727.125
1521.708	2799.45833
1524.789	2886.125
1527.867	2998.45833
1530.944	3132.45833
1534.018	3278.45833
1537.089	3401.79167
1540.159	3459.45833
1543.226	3447.45833
1546.291	3387.125
1549.354	3312.45833
1552.415	3269.125
1555.473	3184.79167
1558.529	3121.45833
1561.583	3068.45833
1564.634	3049.125
1567.684	3047.125
1570.731	3066.125
1573.776	3094.79167
1576.819	3138.45833
1579.859	3156.45833
1582.898	3189.79167
1585.934	3257.45833
1588.968	3250.45833
1591.999	3237.125
1595.029	3224.79167
1598.056	3263.79167
1601.081	3288.45833
1604.104	3257.79167
1607.125	3223.125
1610.144	3183.125
1613.16	3135.125
1616.174	3071.79167
1619.186	2945.45833
1622.196	2887.79167
1625.203	2811.45833
1628.209	2785.45833
1631.212	2750.45833
1634.213	2745.125
1637.212	2750.79167
1640.209	2687.79167
1643.203	2626.45833
1646.196	2543.79167
1649.186	2461.45833
1652.174	2378.79167
1655.16	2285.45833
1658.144	2222.79167
1661.125	2125.125
1664.105	2039.45833
1667.082	1973.125
1670.057	1848.45833
1673.03	1745.45833
1676.001	1638.79167
1678.97	1550.45833
1681.937	1447.45833
1684.901	1383.79167
1687.863	1340.45833
1690.824	1271.79167
1693.782	1239.45833
1696.738	1198.125
1699.692	1181.125
1702.643	1126.45833
1705.593	1123.79167
1708.54	1107.125
1711.486	1108.45833
1714.429	1069.125
1717.37	1080.125
1720.309	1045.45833
1723.246	1064.79167
1726.181	1037.45833
1729.113	1043.79167
1732.044	1018.79167
1734.972	1018.125
1737.899	1024.79167
1740.823	1024.79167
1743.745	981.79167
1746.665	989.79167
1749.583	950.125
1752.499	944.125
1755.413	935.45833
1758.325	912.79167
1761.235	912.125
1764.142	896.79167
1767.048	889.45833
1769.951	891.79167
1772.852	883.79167
1775.752	891.79167
1778.649	892.125
1781.544	884.125
1784.437	835.79167
1787.328	860.45833
1790.217	851.125
1793.104	824.125
1795.989	823.45833
1798.872	822.79167
1801.753	836.125
1804.631	830.45833
1807.508	832.125
1810.383	839.45833
1813.255	815.45833
1816.126	813.79167
1818.994	811.79167
1821.861	799.79167
1824.725	818.125
1827.587	797.45833
1830.448	801.45833
1833.306	785.45833
1836.162	783.45833
1839.017	790.125
1841.869	787.45833
1844.719	769.125
1847.567	756.79167
1850.414	766.125
1853.258	762.125
1856.1	791.45833
1858.94	780.125
1861.778	764.125
1864.614	754.79167
1867.448	762.45833
1870.28	751.45833
1873.111	778.45833
1875.939	757.125
1878.765	770.125
1881.589	748.79167
1884.411	752.45833
1887.231	762.79167
1890.049	756.45833
1892.865	752.79167
1895.68	740.45833
1898.492	752.125
1901.302	736.45833
1904.11	732.45833
1906.916	715.79167
1909.721	717.79167
1912.523	737.45833
1915.323	714.125
1918.122	711.79167
1920.918	733.79167
1923.712	712.125
1926.505	701.79167
1929.295	711.125
1932.084	723.125
1934.87	714.79167
1937.655	703.125
1940.438	698.79167
1943.218	707.79167
1945.997	709.125
1948.774	716.45833
1951.549	731.125
1954.322	703.125
1957.093	699.125
1959.862	683.79167
1962.629	689.79167
1965.394	683.79167
1968.157	678.45833
1970.918	680.125
1973.678	667.125
1976.435	687.79167
1979.19	670.45833
1981.944	679.79167
1984.696	664.45833
1987.445	656.79167
1990.193	662.125
1992.939	684.79167
1995.683	672.79167
1998.425	647.125
2001.165	674.125
2003.903	652.45833
2006.639	659.79167
2009.374	667.79167
2012.106	660.79167
2014.837	639.79167
2017.566	663.125
2020.292	667.125
2023.017	661.45833
2025.74	654.45833
2028.461	648.45833
2031.18	649.125
2033.898	637.79167
2036.613	639.125
2039.327	652.125
2042.038	630.45833
2044.748	635.79167
2047.456	642.125
2050.162	622.125
2052.866	632.79167
2055.568	636.125
2058.268	623.125
2060.967	622.79167
2063.663	625.125
2066.358	635.45833
2069.051	624.45833
2071.742	624.125
2074.431	636.45833
2077.118	625.45833
2079.804	618.125
2082.487	621.79167
2085.169	626.79167
2087.849	643.79167
2090.527	620.125
2093.203	630.45833
2095.877	638.79167
2098.55	639.79167
2101.22	645.45833
2103.889	653.45833
2106.556	651.125
2109.221	682.45833
2111.884	691.45833
2114.546	734.45833
2117.205	782.125
2119.863	842.125
2122.519	881.45833
2125.173	937.45833
2127.825	992.45833
2130.475	1002.125
2133.124	949.125
2135.771	917.125
2138.416	887.125
2141.059	836.125
2143.7	792.45833
2146.339	747.79167
2148.977	703.125
2151.613	695.125
2154.247	675.79167
2156.879	656.45833
2159.51	649.125
2162.138	631.79167
2164.765	628.125
2167.39	605.45833
2170.013	625.79167
2172.634	613.79167
2175.254	603.125
2177.872	636.79167
2180.488	586.79167
2183.102	601.45833
2185.714	594.79167
2188.325	563.125
2190.934	582.45833
2193.541	582.125
2196.146	581.125
2198.75	566.79167
2201.351	570.125
2203.951	549.125
2206.549	574.79167
2209.146	555.79167
2211.74	552.79167
2214.333	562.45833
2216.924	538.45833
2219.514	552.45833
2222.101	553.125
2224.687	562.45833
2227.271	537.79167
2229.853	530.79167
2232.433	528.125
2235.012	550.125
2237.589	550.45833
2240.164	556.79167
2242.738	531.45833
2245.309	532.125
2247.879	539.125
2250.448	535.45833
2253.014	528.45833
2255.579	507.45833
2258.142	524.79167
2260.703	514.45833
2263.262	517.79167
2265.82	515.125
2268.376	514.125
2270.93	506.79167
2273.483	491.45833
2276.033	509.79167
2278.583	500.125
2281.13	505.45833
2283.675	493.45833
2286.219	500.45833
2288.761	499.79167
2291.302	499.45833
2293.841	501.125
2296.377	492.45833
2298.913	487.79167
2301.446	506.45833
2303.978	495.125
2306.508	491.79167
2309.037	496.45833
2311.563	492.45833
2314.088	504.79167
2316.612	484.79167
2319.133	479.45833
2321.653	490.45833
2324.171	480.79167
2326.688	498.125
2329.202	487.125
2331.715	490.125
2334.227	486.45833
2336.736	492.45833
2339.244	483.45833
2341.751	468.125
2344.255	493.125
2346.758	485.125
2349.259	469.125
2351.759	475.125
2354.257	474.125
2356.753	469.45833
2359.247	470.79167
2361.74	482.125
2364.231	477.79167
2366.721	479.125
2369.209	471.45833
2371.695	479.45833
2374.179	464.45833
2376.662	473.125
2379.143	484.79167
2381.622	473.125
2384.1	491.79167
2386.576	476.45833
2389.051	485.125
2391.524	491.125
2393.995	485.125
2396.464	463.125
2398.932	468.79167
2401.398	457.79167
2403.863	462.125
2406.325	469.125
2408.787	469.45833
2411.246	467.125
2413.704	463.79167
2416.16	466.45833
2418.615	473.79167
2421.068	483.79167
2423.519	478.125
2425.969	462.125
2428.417	475.125
2430.863	487.79167
2433.308	479.79167
2435.751	479.79167
2438.193	466.45833
2440.633	475.45833
2443.071	471.45833
2445.508	466.79167
2447.943	462.125
2450.376	466.45833
2452.808	468.45833
2455.238	466.45833
2457.667	505.79167
2460.093	474.79167
2462.519	454.125
2464.942	476.45833
2467.365	471.125
2469.785	481.45833
2472.204	475.79167
2474.621	463.125
2477.037	485.45833
2479.451	454.45833
2481.863	459.79167
2484.274	453.45833
2486.683	467.125
2489.091	471.79167
2491.497	467.125
2493.901	477.125
2496.304	469.125
2498.705	490.45833
2501.105	466.125
2503.503	484.125
2505.899	453.79167
2508.294	481.45833
2510.687	475.125
2513.079	466.45833
2515.469	455.45833
2517.858	471.45833
2520.245	472.79167
2522.63	458.79167
2525.014	467.79167
2527.396	462.79167
2529.776	461.45833
2532.156	476.45833
2534.533	459.79167
2536.909	454.45833
2539.283	458.45833
2541.656	460.45833
2544.027	487.125
2546.397	478.45833
2548.765	464.79167
2551.131	468.79167
2553.496	469.79167
2555.86	469.125
2558.221	476.45833
2560.582	463.45833
2562.94	463.45833
2565.298	483.45833
2567.653	482.125
2570.007	458.79167
2572.36	477.79167
2574.711	466.79167
2577.06	494.45833
2579.408	481.125
2581.754	478.125
2584.099	474.45833
2586.442	469.125
2588.784	480.45833
2591.124	482.79167
2593.463	481.125
2595.8	481.45833
2598.135	463.45833
2600.469	483.125
2602.802	491.125
2605.133	478.125
2607.462	473.45833
2609.79	474.125
2612.116	480.45833
2614.441	485.125
2616.764	480.45833
2619.086	486.45833
2621.406	473.45833
2623.725	491.45833
2626.042	492.45833
2628.358	490.125
2630.672	470.45833
2632.985	499.79167
2635.296	491.125
2637.606	494.125
2639.914	484.125
2642.22	491.45833
2644.525	491.125
2646.829	498.45833
2649.131	510.45833
2651.432	509.45833
2653.731	498.125
2656.028	516.125
2658.324	518.45833
2660.619	490.79167
2662.912	512.125
2665.204	494.45833
2667.494	508.45833
2669.782	496.125
2672.07	514.79167
2674.355	518.45833
2676.639	508.79167
2678.922	496.125
2681.203	513.79167
2683.483	502.45833
2685.761	501.125
2688.038	517.45833
2690.313	529.79167
2692.587	514.79167
2694.859	510.45833
2697.13	518.79167
2699.399	532.125
2701.667	530.125
2703.933	532.125
2706.198	539.79167
2708.461	541.79167
2710.723	550.125
2712.984	542.125
2715.243	544.79167
2717.5	540.125
2719.757	556.125
2722.011	538.125
2724.264	564.79167
2726.516	574.45833
2728.766	555.45833
2731.015	566.125
2733.262	558.45833
2735.508	563.45833
2737.753	559.125
2739.996	544.125
2742.237	550.125
2744.477	567.79167
2746.716	563.79167
2748.953	548.45833
2751.189	567.45833
2753.423	551.45833
2755.656	546.125
2757.887	545.79167
2760.117	536.45833
2762.346	533.45833
2764.573	528.45833
2766.798	543.45833
2769.022	544.125
2771.245	553.125
2773.467	549.79167
2775.686	550.79167
2777.905	557.125
2780.122	558.45833
2782.337	567.125
2784.552	565.125
2786.764	556.45833
2788.976	576.125
2791.186	573.45833
2793.394	583.79167
2795.601	579.45833
2797.807	589.125
2800.011	593.79167
2802.214	607.79167
2804.415	595.125
2806.615	605.45833
2808.814	611.125
2811.011	614.125
2813.206	608.125
2815.401	631.125
2817.594	628.79167
2819.785	643.45833
2821.975	636.79167
2824.164	635.79167
2826.351	652.45833
2828.537	658.45833
2830.722	666.45833
2832.905	667.45833
2835.086	698.45833
2837.267	720.45833
2839.445	728.45833
2841.623	744.125
2843.799	758.79167
2845.974	786.79167
2848.147	821.79167
2850.319	819.45833
2852.489	866.125
2854.659	858.79167
2856.826	871.45833
2858.993	900.125
2861.158	875.45833
2863.321	887.79167
2865.483	907.79167
2867.644	905.45833
2869.804	892.45833
2871.962	895.45833
2874.118	900.125
2876.274	894.79167
2878.428	903.79167
2880.58	901.125
2882.731	873.79167
2884.881	880.79167
2887.03	893.79167
2889.177	897.79167
2891.322	898.45833
2893.467	880.79167
2895.61	896.79167
2897.751	907.45833
2899.892	896.125
2902.03	911.45833
2904.168	917.45833
2906.304	917.79167
2908.439	951.45833
2910.572	914.125
2912.704	951.125
2914.835	944.125
2916.965	935.45833
2919.093	963.45833
2921.219	923.125
2923.345	942.125
2925.469	914.45833
2927.591	927.125
2929.712	910.79167
2931.832	893.45833
2933.951	866.45833
2936.068	866.79167
2938.184	853.45833
2940.299	835.45833
2942.412	819.125
2944.524	787.79167
2946.634	796.45833
2948.744	750.45833
2950.851	782.79167
2952.958	740.79167
2955.063	765.79167
2957.167	733.125
2959.269	712.45833
2961.371	749.45833
2963.471	713.79167
2965.569	704.125
2967.666	689.79167
2969.762	696.125
2971.857	678.125
2973.95	656.125
2976.042	654.45833
2978.133	640.79167
2980.222	631.79167
2982.31	622.45833
2984.396	602.125
2986.482	601.79167
2988.566	593.79167
2990.648	600.45833
2992.73	603.45833
2994.81	585.45833
2996.889	591.45833
2998.966	592.45833
3001.042	595.79167
3003.117	593.45833
3005.191	591.79167
3007.263	593.125
3009.334	574.79167
3011.403	591.125
3013.472	555.79167
3015.539	568.79167
3017.604	575.79167
3019.669	536.125
3021.732	543.79167
3023.794	545.45833
3025.854	536.79167
3027.914	540.125
3029.971	542.79167
3032.028	528.79167
3034.083	544.79167
3036.137	533.45833
3038.19	502.79167
3040.242	505.125
3042.292	506.125
3044.341	490.125
3046.388	502.125
3048.435	488.125
3050.48	498.79167
3052.524	480.125
3054.566	473.45833
3056.607	481.125
3058.647	464.125
3060.686	450.79167
3062.723	435.79167
3064.759	419.125
3066.794	0.125
3068.828	3.125
3070.86	1.79167
