-0.839	478.83333
3.438	565.83333
7.711	165.83333
11.981	60.16667
16.247	45.5
20.509	45.16667
24.768	44.5
29.024	54.5
33.276	42.5
37.524	45.16667
41.769	46.83333
46.01	31.83333
50.247	45.16667
54.481	60.16667
58.712	60.5
62.939	50.16667
67.162	63.16667
71.382	59.83333
75.599	41.16667
79.812	60.16667
84.021	76.16667
88.227	58.83333
92.429	57.83333
96.628	55.16667
100.823	66.16667
105.015	70.5
109.204	65.16667
113.388	73.16667
117.57	69.5
121.748	85.16667
125.922	79.5
130.093	96.83333
134.261	92.83333
138.425	88.83333
142.585	126.83333
146.742	120.16667
150.896	146.83333
155.046	185.83333
159.193	291.83333
163.336	492.83333
167.476	910.83333
171.613	1643.16667
175.746	2744.83333
179.875	4026.16667
184.002	5242.5
188.124	6021.16667
192.244	6269.83333
196.36	6185.5
200.472	5990.5
204.581	5826.83333
208.687	5590.16667
212.79	5482.16667
216.889	5405.5
220.984	5412.16667
225.077	5379.5
229.165	5365.16667
233.251	5307.83333
237.333	5297.5
241.412	5266.83333
245.487	5163.83333
249.559	5105.5
253.628	5067.16667
257.694	5022.83333
261.756	4991.5
265.814	4891.16667
269.87	4751.16667
273.922	4593.5
277.97	4494.16667
282.016	4452.5
286.058	4457.83333
290.097	4520.83333
294.132	4566.83333
298.164	4558.5
302.193	4362.16667
306.219	4082.5
310.241	3749.5
314.26	3481.5
318.276	3246.16667
322.288	3096.5
326.297	2986.5
330.303	2854.83333
334.305	2797.16667
338.305	2771.16667
342.301	2742.16667
346.294	2699.83333
350.283	2681.5
354.269	2662.83333
358.252	2646.5
362.232	2620.16667
366.209	2611.5
370.182	2573.5
374.152	2558.16667
378.119	2589.83333
382.083	2554.83333
386.043	2597.16667
390	2582.5
393.954	2576.16667
397.905	2563.83333
401.852	2559.16667
405.797	2530.83333
409.738	2587.16667
413.676	2592.16667
417.61	2604.83333
421.542	2534.83333
425.47	2494.16667
429.396	2464.5
433.318	2448.16667
437.236	2437.83333
441.152	2468.83333
445.065	2419.83333
448.974	2416.5
452.88	2377.16667
456.783	2380.83333
460.683	2357.83333
464.58	2366.5
468.473	2367.5
472.364	2383.83333
476.251	2391.83333
480.135	2422.16667
484.016	2437.16667
487.894	2447.83333
491.769	2446.83333
495.641	2459.83333
499.509	2457.83333
503.375	2458.5
507.237	2432.5
511.096	2432.16667
514.952	2458.16667
518.805	2498.16667
522.655	2501.5
526.502	2459.16667
530.346	2435.16667
534.187	2434.5
538.024	2466.83333
541.859	2467.16667
545.69	2488.16667
549.519	2467.83333
553.344	2453.16667
557.166	2413.83333
560.985	2394.5
564.802	2381.16667
568.615	2345.83333
572.425	2305.5
576.232	2289.83333
580.036	2291.5
583.836	2298.5
587.634	2306.5
591.429	2293.83333
595.221	2360.16667
599.01	2349.16667
602.796	2387.5
606.578	2393.5
610.358	2419.83333
614.135	2379.16667
617.909	2363.5
621.679	2362.16667
625.447	2339.83333
629.212	2335.83333
632.973	2360.16667
636.732	2344.5
640.488	2353.16667
644.241	2320.16667
647.991	2307.5
651.737	2322.5
655.481	2301.5
659.222	2309.83333
662.96	2308.16667
666.695	2334.16667
670.427	2326.83333
674.156	2344.5
677.882	2331.83333
681.605	2317.16667
685.325	2296.83333
689.043	2303.16667
692.757	2289.16667
696.468	2285.5
700.177	2281.83333
703.882	2255.5
707.585	2238.83333
711.284	2244.5
714.981	2243.83333
718.675	2240.83333
722.366	2261.16667
726.054	2247.5
729.739	2277.16667
733.421	2253.16667
737.1	2246.16667
740.777	2266.16667
744.45	2267.16667
748.121	2290.16667
751.789	2330.16667
755.453	2317.5
759.115	2351.83333
762.774	2348.5
766.431	2351.83333
770.084	2372.5
773.734	2368.16667
777.382	2436.5
781.027	2424.83333
784.669	2448.83333
788.308	2443.5
791.944	2468.16667
795.577	2458.16667
799.208	2481.83333
802.835	2516.5
806.46	2520.5
810.082	2540.83333
813.701	2544.83333
817.317	2551.83333
820.931	2549.16667
824.542	2554.5
828.149	2510.16667
831.754	2504.16667
835.357	2485.16667
838.956	2509.5
842.553	2524.16667
846.146	2493.5
849.737	2464.83333
853.326	2457.5
856.911	2448.16667
860.493	2492.16667
864.073	2514.16667
867.65	2569.5
871.225	2592.83333
874.796	2543.16667
878.365	2548.5
881.931	2545.5
885.494	2560.5
889.054	2560.5
892.612	2572.16667
896.166	2534.16667
899.719	2511.16667
903.268	2492.5
906.814	2484.5
910.358	2468.83333
913.899	2430.83333
917.438	2443.5
920.973	2436.16667
924.506	2474.83333
928.036	2518.83333
931.564	2523.83333
935.088	2573.83333
938.61	2567.16667
942.129	2593.83333
945.646	2662.16667
949.16	2693.5
952.671	2734.16667
956.179	2745.83333
959.685	2732.16667
963.188	2737.16667
966.688	2699.16667
970.185	2630.5
973.68	2588.16667
977.173	2528.83333
980.662	2508.16667
984.149	2496.83333
987.633	2488.83333
991.114	2528.5
994.593	2559.16667
998.069	2627.16667
1001.542	2695.16667
1005.013	2646.5
1008.481	2523.5
1011.947	2469.5
1015.409	2445.83333
1018.869	2459.5
1022.327	2443.5
1025.782	2434.16667
1029.234	2432.5
1032.683	2415.83333
1036.13	2318.5
1039.574	2258.83333
1043.016	2183.5
1046.455	2159.83333
1049.891	2150.83333
1053.325	2147.5
1056.756	2166.5
1060.184	2166.16667
1063.61	2143.5
1067.033	2176.16667
1070.454	2195.5
1073.872	2215.5
1077.287	2210.83333
1080.7	2199.83333
1084.11	2195.5
1087.517	2189.5
1090.922	2165.5
1094.325	2136.16667
1097.724	2113.83333
1101.122	2116.83333
1104.516	2099.83333
1107.908	2103.5
1111.298	2134.83333
1114.684	2153.16667
1118.069	2202.5
1121.45	2213.83333
1124.83	2208.83333
1128.206	2220.83333
1131.58	2256.83333
1134.951	2297.16667
1138.32	2379.5
1141.687	2462.83333
1145.05	2512.83333
1148.412	2511.5
1151.77	2499.16667
1155.126	2472.16667
1158.48	2447.83333
1161.831	2464.16667
1165.18	2488.5
1168.525	2506.5
1171.869	2547.5
1175.21	2566.16667
1178.548	2575.5
1181.884	2612.16667
1185.217	2605.5
1188.548	2688.16667
1191.877	2731.83333
1195.202	2818.16667
1198.526	2877.83333
1201.846	2894.16667
1205.165	2894.5
1208.48	2874.5
1211.794	2882.16667
1215.104	2890.83333
1218.413	2891.83333
1221.719	2902.83333
1225.022	2848.16667
1228.323	2799.83333
1231.621	2762.5
1234.917	2748.5
1238.21	2775.16667
1241.501	2748.5
1244.79	2745.16667
1248.076	2727.16667
1251.359	2765.5
1254.64	2817.16667
1257.919	2840.16667
1261.195	2845.16667
1264.468	2907.83333
1267.74	2954.5
1271.008	2969.83333
1274.275	2969.83333
1277.538	2913.5
1280.8	2936.5
1284.059	2931.83333
1287.315	2951.5
1290.569	2972.5
1293.821	2980.5
1297.07	3011.16667
1300.317	3001.16667
1303.562	3013.16667
1306.803	2972.83333
1310.043	2958.83333
1313.28	2937.83333
1316.515	2923.16667
1319.747	2892.16667
1322.977	2908.5
1326.204	2859.16667
1329.429	2811.83333
1332.652	2800.16667
1335.872	2781.83333
1339.09	2761.83333
1342.306	2746.83333
1345.519	2710.83333
1348.729	2698.16667
1351.938	2678.83333
1355.144	2657.5
1358.347	2607.83333
1361.548	2608.16667
1364.747	2610.16667
1367.944	2582.5
1371.138	2588.5
1374.329	2585.5
1377.518	2599.83333
1380.705	2628.16667
1383.89	2587.5
1387.072	2513.83333
1390.252	2422.16667
1393.429	2354.16667
1396.605	2296.83333
1399.777	2231.83333
1402.948	2201.5
1406.116	2191.16667
1409.282	2184.5
1412.445	2182.16667
1415.606	2208.5
1418.765	2233.5
1421.921	2272.16667
1425.075	2321.5
1428.227	2400.5
1431.376	2461.5
1434.524	2582.16667
1437.668	2661.5
1440.811	2681.5
1443.951	2727.16667
1447.089	2724.83333
1450.224	2719.16667
1453.357	2724.16667
1456.488	2679.16667
1459.617	2644.5
1462.743	2621.5
1465.867	2552.16667
1468.989	2517.5
1472.108	2450.5
1475.225	2422.83333
1478.34	2383.83333
1481.453	2395.16667
1484.563	2373.16667
1487.671	2421.5
1490.776	2427.83333
1493.88	2476.83333
1496.981	2498.5
1500.08	2550.83333
1503.176	2560.83333
1506.271	2573.83333
1509.363	2614.5
1512.452	2641.16667
1515.54	2681.83333
1518.625	2705.5
1521.708	2783.5
1524.789	2872.16667
1527.867	2963.5
1530.944	3118.83333
1534.018	3242.83333
1537.089	3373.5
1540.159	3405.83333
1543.226	3395.16667
1546.291	3330.5
1549.354	3271.5
1552.415	3164.5
1555.473	3105.83333
1558.529	3037.83333
1561.583	3006.5
1564.634	2993.83333
1567.684	2963.5
1570.731	3015.5
1573.776	3046.16667
1576.819	3083.5
1579.859	3118.5
1582.898	3155.5
1585.934	3201.83333
1588.968	3201.16667
1591.999	3175.16667
1595.029	3187.5
1598.056	3212.83333
1601.081	3262.5
1604.104	3226.5
1607.125	3204.16667
1610.144	3133.16667
1613.16	3056.16667
1616.174	3014.5
1619.186	2934.16667
1622.196	2859.16667
1625.203	2809.16667
1628.209	2761.83333
1631.212	2727.16667
1634.213	2753.83333
1637.212	2743.83333
1640.209	2732.16667
1643.203	2645.5
1646.196	2574.83333
1649.186	2452.83333
1652.174	2379.5
1655.16	2317.83333
1658.144	2249.83333
1661.125	2166.83333
1664.105	2076.83333
1667.082	1969.5
1670.057	1882.83333
1673.03	1760.83333
1676.001	1653.16667
1678.97	1541.5
1681.937	1449.5
1684.901	1376.5
1687.863	1330.83333
1690.824	1274.16667
1693.782	1258.16667
1696.738	1197.16667
1699.692	1179.5
1702.643	1142.83333
1705.593	1131.16667
1708.54	1123.16667
1711.486	1122.83333
1714.429	1100.5
1717.37	1086.5
1720.309	1071.83333
1723.246	1066.16667
1726.181	1044.5
1729.113	1040.5
1732.044	1044.5
1734.972	1023.16667
1737.899	1031.83333
1740.823	1022.83333
1743.745	1036.16667
1746.665	999.83333
1749.583	984.16667
1752.499	957.5
1755.413	970.16667
1758.325	930.16667
1761.235	932.16667
1764.142	913.5
1767.048	906.83333
1769.951	900.16667
1772.852	904.83333
1775.752	925.5
1778.649	926.16667
1781.544	916.5
1784.437	864.83333
1787.328	892.5
1790.217	869.83333
1793.104	841.16667
1795.989	852.16667
1798.872	845.16667
1801.753	864.16667
1804.631	846.5
1807.508	848.83333
1810.383	850.83333
1813.255	841.83333
1816.126	840.16667
1818.994	830.83333
1821.861	828.5
1824.725	828.5
1827.587	825.83333
1830.448	821.5
1833.306	802.16667
1836.162	808.5
1839.017	785.83333
1841.869	805.83333
1844.719	805.83333
1847.567	777.5
1850.414	774.83333
1853.258	776.5
1856.1	796.83333
1858.94	789.5
1861.778	783.5
1864.614	788.5
1867.448	784.16667
1870.28	765.16667
1873.111	789.5
1875.939	778.5
1878.765	797.83333
1881.589	768.16667
1884.411	769.5
1887.231	774.83333
1890.049	774.16667
1892.865	768.16667
1895.68	758.16667
1898.492	782.83333
1901.302	750.5
1904.11	749.5
1906.916	739.16667
1909.721	738.5
1912.523	749.5
1915.323	717.5
1918.122	732.16667
1920.918	748.5
1923.712	718.16667
1926.505	726.5
1929.295	713.83333
1932.084	728.83333
1934.87	722.16667
1937.655	720.83333
1940.438	718.5
1943.218	719.83333
1945.997	719.16667
1948.774	729.16667
1951.549	724.16667
1954.322	711.5
1957.093	715.5
1959.862	700.5
1962.629	701.5
1965.394	697.83333
1968.157	686.5
1970.918	690.83333
1973.678	682.16667
1976.435	700.5
1979.19	698.5
1981.944	680.16667
1984.696	671.83333
1987.445	661.83333
1990.193	685.83333
1992.939	686.5
1995.683	675.16667
1998.425	651.5
2001.165	695.16667
2003.903	662.5
2006.639	663.16667
2009.374	662.16667
2012.106	666.83333
2014.837	648.5
2017.566	665.16667
2020.292	655.5
2023.017	651.16667
2025.74	651.5
2028.461	645.5
2031.18	644.83333
2033.898	633.83333
2036.613	654.5
2039.327	656.16667
2042.038	638.5
2044.748	636.16667
2047.456	645.83333
2050.162	634.83333
2052.866	623.83333
2055.568	639.16667
2058.268	626.83333
2060.967	630.5
2063.663	611.16667
2066.358	621.16667
2069.051	613.16667
2071.742	628.5
2074.431	629.16667
2077.118	620.16667
2079.804	595.83333
2082.487	610.83333
2085.169	624.5
2087.849	642.5
2090.527	612.5
2093.203	618.83333
2095.877	625.83333
2098.55	628.16667
2101.22	630.83333
2103.889	629.83333
2106.556	626.83333
2109.221	640.5
2111.884	652.83333
2114.546	685.83333
2117.205	707.5
2119.863	780.5
2122.519	794.5
2125.173	828.5
2127.825	885.16667
2130.475	888.83333
2133.124	864.83333
2135.771	836.16667
2138.416	806.16667
2141.059	754.83333
2143.7	737.5
2146.339	702.83333
2148.977	654.16667
2151.613	653.83333
2154.247	630.83333
2156.879	631.16667
2159.51	613.5
2162.138	607.16667
2164.765	605.83333
2167.39	574.16667
2170.013	594.83333
2172.634	589.16667
2175.254	582.5
2177.872	608.83333
2180.488	567.83333
2183.102	577.16667
2185.714	564.16667
2188.325	546.83333
2190.934	559.16667
2193.541	569.83333
2196.146	539.83333
2198.75	528.5
2201.351	540.83333
2203.951	533.5
2206.549	544.83333
2209.146	534.83333
2211.74	532.16667
2214.333	522.16667
2216.924	515.16667
2219.514	533.16667
2222.101	515.16667
2224.687	519.16667
2227.271	519.5
2229.853	507.16667
2232.433	504.83333
2235.012	523.83333
2237.589	518.5
2240.164	518.5
2242.738	504.5
2245.309	496.5
2247.879	514.5
2250.448	509.16667
2253.014	495.5
2255.579	476.16667
2258.142	487.83333
2260.703	473.83333
2263.262	481.5
2265.82	470.16667
2268.376	475.5
2270.93	467.83333
2273.483	461.5
2276.033	478.16667
2278.583	474.16667
2281.13	468.5
2283.675	456.83333
2286.219	459.83333
2288.761	455.83333
2291.302	462.16667
2293.841	472.16667
2296.377	451.83333
2298.913	452.83333
2301.446	469.5
2303.978	469.16667
2306.508	448.5
2309.037	453.16667
2311.563	461.83333
2314.088	453.16667
2316.612	441.5
2319.133	445.83333
2321.653	449.16667
2324.171	447.5
2326.688	459.83333
2329.202	441.5
2331.715	442.83333
2334.227	432.5
2336.736	446.83333
2339.244	442.16667
2341.751	415.16667
2344.255	437.5
2346.758	437.83333
2349.259	421.16667
2351.759	428.16667
2354.257	424.83333
2356.753	422.5
2359.247	430.5
2361.74	431.83333
2364.231	423.16667
2366.721	428.5
2369.209	418.83333
2371.695	425.16667
2374.179	410.5
2376.662	405.16667
2379.143	432.5
2381.622	410.83333
2384.1	427.5
2386.576	423.16667
2389.051	440.16667
2391.524	433.5
2393.995	422.83333
2396.464	413.83333
2398.932	413.83333
2401.398	408.5
2403.863	420.83333
2406.325	406.5
2408.787	414.83333
2411.246	408.5
2413.704	406.5
2416.16	404.83333
2418.615	403.16667
2421.068	414.16667
2423.519	405.5
2425.969	396.16667
2428.417	403.5
2430.863	419.5
2433.308	408.16667
2435.751	398.83333
2438.193	397.83333
2440.633	390.83333
2443.071	406.83333
2445.508	387.83333
2447.943	396.83333
2450.376	394.16667
2452.808	387.16667
2455.238	386.83333
2457.667	423.16667
2460.093	395.83333
2462.519	395.16667
2464.942	390.16667
2467.365	391.83333
2469.785	395.16667
2472.204	394.5
2474.621	386.5
2477.037	409.5
2479.451	383.5
2481.863	369.83333
2484.274	382.5
2486.683	390.5
2489.091	386.83333
2491.497	375.83333
2493.901	390.83333
2496.304	382.5
2498.705	392.83333
2501.105	382.16667
2503.503	406.16667
2505.899	372.16667
2508.294	398.16667
2510.687	384.16667
2513.079	386.83333
2515.469	369.83333
2517.858	380.83333
2520.245	390.5
2522.63	375.83333
2525.014	371.16667
2527.396	365.16667
2529.776	368.5
2532.156	368.83333
2534.533	364.16667
2536.909	357.16667
2539.283	343.83333
2541.656	364.83333
2544.027	380.5
2546.397	369.16667
2548.765	366.5
2551.131	368.83333
2553.496	362.83333
2555.86	370.5
2558.221	371.83333
2560.582	361.5
2562.94	353.5
2565.298	365.83333
2567.653	378.5
2570.007	352.16667
2572.36	373.16667
2574.711	350.83333
2577.06	376.83333
2579.408	364.5
2581.754	360.16667
2584.099	368.16667
2586.442	362.83333
2588.784	366.16667
2591.124	368.83333
2593.463	360.83333
2595.8	360.5
2598.135	353.5
2600.469	353.5
2602.802	364.5
2605.133	371.16667
2607.462	351.5
2609.79	350.16667
2612.116	368.16667
2614.441	357.16667
2616.764	355.83333
2619.086	351.5
2621.406	345.5
2623.725	370.83333
2626.042	364.5
2628.358	344.83333
2630.672	357.16667
2632.985	372.83333
2635.296	364.16667
2637.606	354.16667
2639.914	353.16667
2642.22	351.83333
2644.525	353.5
2646.829	357.5
2649.131	369.16667
2651.432	363.83333
2653.731	358.5
2656.028	368.83333
2658.324	381.5
2660.619	357.83333
2662.912	368.83333
2665.204	354.16667
2667.494	366.83333
2669.782	358.83333
2672.07	362.83333
2674.355	369.16667
2676.639	367.5
2678.922	357.5
2681.203	365.5
2683.483	353.5
2685.761	355.16667
2688.038	368.16667
2690.313	379.83333
2692.587	371.5
2694.859	360.16667
2697.13	375.16667
2699.399	375.5
2701.667	383.83333
2703.933	379.16667
2706.198	383.16667
2708.461	388.83333
2710.723	383.16667
2712.984	380.5
2715.243	388.16667
2717.5	372.16667
2719.757	399.83333
2722.011	385.5
2724.264	394.83333
2726.516	404.5
2728.766	394.5
2731.015	401.83333
2733.262	395.5
2735.508	394.5
2737.753	395.5
2739.996	380.83333
2742.237	375.16667
2744.477	388.83333
2746.716	392.5
2748.953	372.83333
2751.189	385.83333
2753.423	380.16667
2755.656	370.5
2757.887	372.5
2760.117	364.83333
2762.346	368.16667
2764.573	358.16667
2766.798	374.16667
2769.022	366.16667
2771.245	386.83333
2773.467	374.5
2775.686	378.16667
2777.905	382.5
2780.122	384.16667
2782.337	392.5
2784.552	387.16667
2786.764	382.83333
2788.976	390.16667
2791.186	388.5
2793.394	402.16667
2795.601	402.5
2797.807	407.16667
2800.011	416.83333
2802.214	416.5
2804.415	413.16667
2806.615	413.5
2808.814	410.83333
2811.011	435.83333
2813.206	422.5
2815.401	433.16667
2817.594	443.16667
2819.785	447.16667
2821.975	445.5
2824.164	442.16667
2826.351	465.16667
2828.537	469.5
2830.722	485.16667
2832.905	486.16667
2835.086	524.5
2837.267	532.5
2839.445	548.5
2841.623	557.5
2843.799	587.5
2845.974	617.16667
2848.147	631.5
2850.319	657.83333
2852.489	687.16667
2854.659	700.83333
2856.826	705.16667
2858.993	733.16667
2861.158	715.5
2863.321	721.5
2865.483	730.16667
2867.644	732.83333
2869.804	732.16667
2871.962	722.5
2874.118	730.5
2876.274	752.16667
2878.428	735.16667
2880.58	732.16667
2882.731	725.16667
2884.881	724.5
2887.03	738.16667
2889.177	722.83333
2891.322	745.5
2893.467	731.16667
2895.61	732.16667
2897.751	759.83333
2899.892	729.5
2902.03	755.16667
2904.168	758.5
2906.304	760.16667
2908.439	774.83333
2910.572	751.83333
2912.704	779.83333
2914.835	777.5
2916.965	761.83333
2919.093	787.5
2921.219	751.5
2923.345	786.5
2925.469	742.16667
2927.591	746.5
2929.712	725.16667
2931.832	723.16667
2933.951	701.83333
2936.068	693.83333
2938.184	674.5
2940.299	656.83333
2942.412	655.83333
2944.524	605.5
2946.634	609.16667
2948.744	573.83333
2950.851	595.83333
2952.958	553.5
2955.063	555.16667
2957.167	537.16667
2959.269	512.16667
2961.371	546.5
2963.471	508.83333
2965.569	509.16667
2967.666	483.83333
2969.762	484.16667
2971.857	460.83333
2973.95	442.16667
2976.042	447.83333
2978.133	441.16667
2980.222	423.83333
2982.31	412.83333
2984.396	394.16667
2986.482	403.83333
2988.566	392.83333
2990.648	385.83333
2992.73	390.5
2994.81	366.5
2996.889	377.16667
2998.966	375.5
3001.042	383.5
3003.117	375.16667
3005.191	374.83333
3007.263	372.5
3009.334	362.16667
3011.403	361.83333
3013.472	351.5
3015.539	351.16667
3017.604	356.83333
3019.669	331.83333
3021.732	334.16667
3023.794	335.16667
3025.854	329.83333
3027.914	329.83333
3029.971	333.16667
3032.028	332.83333
3034.083	329.83333
3036.137	323.16667
3038.19	312.5
3040.242	305.16667
3042.292	298.16667
3044.341	308.5
3046.388	313.5
3048.435	291.16667
3050.48	305.5
3052.524	294.5
3054.566	282.83333
3056.607	294.83333
3058.647	290.16667
3060.686	276.16667
3062.723	262.83333
3064.759	259.5
3066.794	0.5
3068.828	1.16667
3070.86	1.83333
