-0.839	464.08333
3.438	553.75
7.711	161.08333
11.981	59.41667
16.247	47.08333
20.509	49.75
24.768	43.41667
29.024	54.75
33.276	41.75
37.524	51.08333
41.769	44.41667
46.01	35.41667
50.247	45.08333
54.481	61.41667
58.712	60.41667
62.939	48.75
67.162	58.75
71.382	55.75
75.599	48.75
79.812	60.08333
84.021	79.41667
88.227	63.41667
92.429	57.08333
96.628	52.41667
100.823	74.41667
105.015	75.75
109.204	68.75
113.388	82.41667
117.57	77.75
121.748	88.41667
125.922	79.08333
130.093	102.75
134.261	102.08333
138.425	102.41667
142.585	144.41667
146.742	137.75
150.896	173.75
155.046	220.41667
159.193	347.75
163.336	582.08333
167.476	1103.75
171.613	2030.41667
175.746	3405.08333
179.875	5023.08333
184.002	6504.75
188.124	7471.08333
192.244	7759.41667
196.36	7596.75
200.472	7277.08333
204.581	6956.08333
208.687	6713.08333
212.79	6480.08333
216.889	6391.08333
220.984	6350.41667
225.077	6227.75
229.165	6129.08333
233.251	6046.08333
237.333	5987.08333
241.412	5850.41667
245.487	5731.08333
249.559	5630.75
253.628	5584.75
257.694	5506.75
261.756	5424.75
265.814	5273.75
269.87	5119.08333
273.922	4963.41667
277.97	4830.75
282.016	4785.41667
286.058	4769.75
290.097	4863.08333
294.132	4872.75
298.164	4846.75
302.193	4620.41667
306.219	4295.08333
310.241	3999.41667
314.26	3747.08333
318.276	3530.08333
322.288	3374.08333
326.297	3248.08333
330.303	3136.41667
334.305	3090.08333
338.305	3046.41667
342.301	2996.75
346.294	2970.75
350.283	2941.75
354.269	2916.08333
358.252	2878.08333
362.232	2849.41667
366.209	2858.08333
370.182	2808.08333
374.152	2782.75
378.119	2805.08333
382.083	2800.08333
386.043	2813.08333
390	2789.08333
393.954	2797.41667
397.905	2765.41667
401.852	2771.41667
405.797	2726.75
409.738	2749.08333
413.676	2769.41667
417.61	2772.41667
421.542	2712.41667
425.47	2658.08333
429.396	2640.08333
433.318	2635.75
437.236	2602.75
441.152	2631.08333
445.065	2577.75
448.974	2567.41667
452.88	2545.75
456.783	2526.08333
460.683	2497.08333
464.58	2514.75
468.473	2505.75
472.364	2522.41667
476.251	2530.75
480.135	2556.08333
484.016	2576.41667
487.894	2596.08333
491.769	2603.08333
495.641	2606.41667
499.509	2611.41667
503.375	2584.75
507.237	2586.08333
511.096	2609.75
514.952	2648.08333
518.805	2733.75
522.655	2747.41667
526.502	2645.41667
530.346	2609.08333
534.187	2585.41667
538.024	2599.41667
541.859	2603.08333
545.69	2635.75
549.519	2603.41667
553.344	2589.08333
557.166	2561.08333
560.985	2544.41667
564.802	2498.08333
568.615	2462.41667
572.425	2429.08333
576.232	2419.41667
580.036	2433.08333
583.836	2414.75
587.634	2414.08333
591.429	2423.75
595.221	2483.75
599.01	2502.75
602.796	2510.41667
606.578	2534.08333
610.358	2546.41667
614.135	2511.75
617.909	2517.75
621.679	2489.41667
625.447	2470.08333
629.212	2485.41667
632.973	2491.75
636.732	2466.08333
640.488	2487.41667
644.241	2447.41667
647.991	2431.08333
651.737	2440.75
655.481	2437.08333
659.222	2439.41667
662.96	2437.41667
666.695	2445.08333
670.427	2467.41667
674.156	2494.75
677.882	2441.08333
681.605	2470.08333
685.325	2405.41667
689.043	2427.75
692.757	2418.41667
696.468	2417.75
700.177	2386.41667
703.882	2378.41667
707.585	2381.75
711.284	2364.08333
714.981	2373.08333
718.675	2372.41667
722.366	2371.41667
726.054	2364.75
729.739	2371.08333
733.421	2373.75
737.1	2375.41667
740.777	2388.75
744.45	2408.75
748.121	2421.75
751.789	2463.08333
755.453	2436.75
759.115	2462.75
762.774	2456.41667
766.431	2476.75
770.084	2503.41667
773.734	2507.75
777.382	2573.75
781.027	2578.08333
784.669	2558.75
788.308	2597.08333
791.944	2600.75
795.577	2610.75
799.208	2618.08333
802.835	2644.08333
806.46	2645.75
810.082	2668.41667
813.701	2682.41667
817.317	2690.75
820.931	2698.08333
824.542	2676.75
828.149	2658.41667
831.754	2616.41667
835.357	2620.75
838.956	2618.41667
842.553	2640.08333
846.146	2611.08333
849.737	2593.41667
853.326	2599.08333
856.911	2578.41667
860.493	2627.41667
864.073	2661.08333
867.65	2693.41667
871.225	2701.41667
874.796	2693.08333
878.365	2704.75
881.931	2709.41667
885.494	2707.75
889.054	2703.08333
892.612	2703.75
896.166	2661.41667
899.719	2650.75
903.268	2623.41667
906.814	2621.08333
910.358	2587.41667
913.899	2569.08333
917.438	2570.75
920.973	2576.41667
924.506	2572.41667
928.036	2641.08333
931.564	2676.41667
935.088	2714.75
938.61	2720.41667
942.129	2755.41667
945.646	2793.41667
949.16	2843.08333
952.671	2872.41667
956.179	2864.75
959.685	2849.75
963.188	2866.75
966.688	2813.08333
970.185	2752.08333
973.68	2681.41667
977.173	2648.75
980.662	2632.08333
984.149	2633.08333
987.633	2611.08333
991.114	2653.75
994.593	2704.08333
998.069	2764.41667
1001.542	2834.75
1005.013	2798.41667
1008.481	2659.08333
1011.947	2590.41667
1015.409	2584.08333
1018.869	2595.75
1022.327	2563.41667
1025.782	2549.41667
1029.234	2540.41667
1032.683	2527.08333
1036.13	2442.08333
1039.574	2353.41667
1043.016	2299.75
1046.455	2270.41667
1049.891	2231.41667
1053.325	2258.75
1056.756	2254.75
1060.184	2273.41667
1063.61	2252.08333
1067.033	2299.75
1070.454	2287.41667
1073.872	2322.41667
1077.287	2299.08333
1080.7	2295.75
1084.11	2305.75
1087.517	2304.41667
1090.922	2235.41667
1094.325	2211.41667
1097.724	2210.41667
1101.122	2213.08333
1104.516	2209.41667
1107.908	2186.08333
1111.298	2220.08333
1114.684	2261.75
1118.069	2292.08333
1121.45	2308.75
1124.83	2288.75
1128.206	2322.41667
1131.58	2352.08333
1134.951	2416.08333
1138.32	2477.41667
1141.687	2567.08333
1145.05	2604.41667
1148.412	2587.41667
1151.77	2589.75
1155.126	2600.41667
1158.48	2566.75
1161.831	2556.08333
1165.18	2580.41667
1168.525	2648.75
1171.869	2652.75
1175.21	2666.75
1178.548	2685.75
1181.884	2732.75
1185.217	2750.08333
1188.548	2809.41667
1191.877	2858.08333
1195.202	2951.41667
1198.526	3016.75
1201.846	3017.75
1205.165	3011.08333
1208.48	3027.75
1211.794	2991.75
1215.104	3044.41667
1218.413	3005.75
1221.719	2991.41667
1225.022	2947.41667
1228.323	2922.41667
1231.621	2900.08333
1234.917	2882.08333
1238.21	2907.41667
1241.501	2876.41667
1244.79	2881.08333
1248.076	2869.41667
1251.359	2918.08333
1254.64	2959.41667
1257.919	2995.75
1261.195	3008.75
1264.468	3063.08333
1267.74	3113.41667
1271.008	3093.08333
1274.275	3104.75
1277.538	3092.08333
1280.8	3067.08333
1284.059	3059.08333
1287.315	3098.41667
1290.569	3100.41667
1293.821	3112.08333
1297.07	3116.75
1300.317	3119.08333
1303.562	3127.75
1306.803	3106.41667
1310.043	3092.41667
1313.28	3034.41667
1316.515	3012.08333
1319.747	3032.75
1322.977	2998.41667
1326.204	2976.08333
1329.429	2913.08333
1332.652	2917.75
1335.872	2918.41667
1339.09	2857.08333
1342.306	2836.41667
1345.519	2814.75
1348.729	2801.41667
1351.938	2815.75
1355.144	2753.41667
1358.347	2739.75
1361.548	2733.75
1364.747	2709.41667
1367.944	2699.08333
1371.138	2669.41667
1374.329	2702.41667
1377.518	2725.41667
1380.705	2734.41667
1383.89	2710.75
1387.072	2637.08333
1390.252	2538.08333
1393.429	2440.75
1396.605	2365.41667
1399.777	2315.08333
1402.948	2298.75
1406.116	2277.75
1409.282	2254.75
1412.445	2260.75
1415.606	2301.08333
1418.765	2311.08333
1421.921	2376.75
1425.075	2399.08333
1428.227	2479.75
1431.376	2585.41667
1434.524	2655.41667
1437.668	2742.41667
1440.811	2763.75
1443.951	2795.75
1447.089	2777.08333
1450.224	2807.08333
1453.357	2770.08333
1456.488	2753.75
1459.617	2728.75
1462.743	2672.41667
1465.867	2601.08333
1468.989	2592.08333
1472.108	2506.41667
1475.225	2473.41667
1478.34	2438.75
1481.453	2438.08333
1484.563	2438.41667
1487.671	2488.75
1490.776	2531.08333
1493.88	2583.08333
1496.981	2585.75
1500.08	2593.08333
1503.176	2636.75
1506.271	2692.41667
1509.363	2707.75
1512.452	2746.75
1515.54	2779.08333
1518.625	2814.75
1521.708	2886.41667
1524.789	2944.75
1527.867	3054.41667
1530.944	3192.41667
1534.018	3360.08333
1537.089	3499.41667
1540.159	3519.41667
1543.226	3529.41667
1546.291	3463.75
1549.354	3382.41667
1552.415	3299.08333
1555.473	3220.41667
1558.529	3154.08333
1561.583	3134.41667
1564.634	3119.41667
1567.684	3089.08333
1570.731	3116.41667
1573.776	3127.08333
1576.819	3182.08333
1579.859	3209.41667
1582.898	3269.08333
1585.934	3291.41667
1588.968	3299.08333
1591.999	3278.08333
1595.029	3306.75
1598.056	3322.41667
1601.081	3357.41667
1604.104	3311.75
1607.125	3290.08333
1610.144	3224.75
1613.16	3155.75
1616.174	3101.75
1619.186	3030.75
1622.196	2940.08333
1625.203	2911.75
1628.209	2846.41667
1631.212	2832.75
1634.213	2847.75
1637.212	2843.08333
1640.209	2810.75
1643.203	2733.75
1646.196	2655.08333
1649.186	2538.75
1652.174	2462.41667
1655.16	2366.08333
1658.144	2294.08333
1661.125	2197.75
1664.105	2102.75
1667.082	2015.08333
1670.057	1920.08333
1673.03	1799.75
1676.001	1702.75
1678.97	1580.75
1681.937	1484.75
1684.901	1420.75
1687.863	1375.41667
1690.824	1310.41667
1693.782	1297.41667
1696.738	1239.08333
1699.692	1214.41667
1702.643	1190.75
1705.593	1170.41667
1708.54	1160.41667
1711.486	1161.75
1714.429	1122.75
1717.37	1113.08333
1720.309	1087.41667
1723.246	1104.08333
1726.181	1078.08333
1729.113	1070.41667
1732.044	1070.08333
1734.972	1037.08333
1737.899	1073.75
1740.823	1099.41667
1743.745	1035.41667
1746.665	1012.41667
1749.583	999.08333
1752.499	982.75
1755.413	983.75
1758.325	960.08333
1761.235	955.41667
1764.142	930.75
1767.048	928.41667
1769.951	932.08333
1772.852	922.08333
1775.752	931.75
1778.649	944.75
1781.544	921.75
1784.437	893.75
1787.328	902.08333
1790.217	899.41667
1793.104	861.41667
1795.989	861.08333
1798.872	868.08333
1801.753	870.41667
1804.631	873.41667
1807.508	866.75
1810.383	870.08333
1813.255	853.41667
1816.126	852.08333
1818.994	841.75
1821.861	845.08333
1824.725	845.75
1827.587	833.41667
1830.448	835.75
1833.306	805.41667
1836.162	831.75
1839.017	822.08333
1841.869	818.41667
1844.719	811.75
1847.567	799.75
1850.414	793.75
1853.258	796.08333
1856.1	798.75
1858.94	812.41667
1861.778	802.75
1864.614	803.41667
1867.448	800.41667
1870.28	784.75
1873.111	807.41667
1875.939	801.41667
1878.765	806.75
1881.589	771.41667
1884.411	786.08333
1887.231	785.75
1890.049	783.41667
1892.865	786.75
1895.68	761.08333
1898.492	782.41667
1901.302	773.08333
1904.11	776.41667
1906.916	752.08333
1909.721	752.08333
1912.523	762.75
1915.323	751.41667
1918.122	753.41667
1920.918	758.41667
1923.712	744.41667
1926.505	732.75
1929.295	732.08333
1932.084	755.41667
1934.87	736.75
1937.655	739.41667
1940.438	726.41667
1943.218	737.08333
1945.997	737.75
1948.774	737.75
1951.549	749.41667
1954.322	736.41667
1957.093	724.08333
1959.862	722.75
1962.629	709.75
1965.394	718.08333
1968.157	705.08333
1970.918	712.08333
1973.678	699.08333
1976.435	709.75
1979.19	701.41667
1981.944	697.08333
1984.696	697.41667
1987.445	696.41667
1990.193	705.08333
1992.939	710.41667
1995.683	696.08333
1998.425	684.08333
2001.165	707.41667
2003.903	682.41667
2006.639	680.75
2009.374	693.41667
2012.106	697.08333
2014.837	668.75
2017.566	692.75
2020.292	688.41667
2023.017	680.75
2025.74	685.41667
2028.461	665.08333
2031.18	682.08333
2033.898	663.08333
2036.613	667.75
2039.327	666.75
2042.038	656.41667
2044.748	661.08333
2047.456	671.75
2050.162	646.41667
2052.866	656.75
2055.568	661.41667
2058.268	640.75
2060.967	662.41667
2063.663	642.75
2066.358	649.75
2069.051	643.75
2071.742	653.75
2074.431	650.08333
2077.118	660.75
2079.804	640.41667
2082.487	640.75
2085.169	666.75
2087.849	662.75
2090.527	644.75
2093.203	654.41667
2095.877	656.08333
2098.55	668.75
2101.22	668.75
2103.889	673.08333
2106.556	673.75
2109.221	705.75
2111.884	699.41667
2114.546	764.75
2117.205	795.75
2119.863	857.08333
2122.519	896.41667
2125.173	951.75
2127.825	1020.75
2130.475	1005.41667
2133.124	973.41667
2135.771	928.08333
2138.416	887.08333
2141.059	844.75
2143.7	802.75
2146.339	764.41667
2148.977	716.41667
2151.613	712.08333
2154.247	696.08333
2156.879	683.75
2159.51	664.41667
2162.138	645.08333
2164.765	649.08333
2167.39	627.75
2170.013	653.41667
2172.634	630.08333
2175.254	622.75
2177.872	660.41667
2180.488	613.41667
2183.102	618.08333
2185.714	607.75
2188.325	590.75
2190.934	594.08333
2193.541	609.08333
2196.146	587.75
2198.75	578.75
2201.351	573.41667
2203.951	568.41667
2206.549	594.08333
2209.146	570.75
2211.74	567.08333
2214.333	573.08333
2216.924	554.75
2219.514	570.08333
2222.101	563.41667
2224.687	572.41667
2227.271	556.08333
2229.853	545.75
2232.433	540.75
2235.012	573.41667
2237.589	560.75
2240.164	561.41667
2242.738	553.41667
2245.309	533.75
2247.879	558.41667
2250.448	555.08333
2253.014	532.75
2255.579	528.41667
2258.142	534.08333
2260.703	520.41667
2263.262	537.41667
2265.82	522.75
2268.376	524.75
2270.93	514.75
2273.483	514.75
2276.033	524.08333
2278.583	513.08333
2281.13	514.75
2283.675	501.08333
2286.219	508.41667
2288.761	510.08333
2291.302	512.75
2293.841	520.75
2296.377	496.41667
2298.913	515.08333
2301.446	518.41667
2303.978	508.75
2306.508	503.41667
2309.037	506.41667
2311.563	505.75
2314.088	500.75
2316.612	488.08333
2319.133	492.08333
2321.653	496.08333
2324.171	488.41667
2326.688	500.41667
2329.202	495.75
2331.715	491.41667
2334.227	493.75
2336.736	495.75
2339.244	486.75
2341.751	477.75
2344.255	493.08333
2346.758	488.08333
2349.259	471.08333
2351.759	490.08333
2354.257	475.75
2356.753	474.75
2359.247	489.41667
2361.74	489.75
2364.231	488.75
2366.721	487.41667
2369.209	485.41667
2371.695	476.08333
2374.179	475.75
2376.662	471.75
2379.143	488.08333
2381.622	477.41667
2384.1	496.75
2386.576	477.41667
2389.051	494.08333
2391.524	500.08333
2393.995	487.08333
2396.464	475.41667
2398.932	477.08333
2401.398	470.08333
2403.863	481.41667
2406.325	483.75
2408.787	475.75
2411.246	476.75
2413.704	470.41667
2416.16	471.75
2418.615	482.41667
2421.068	484.41667
2423.519	481.08333
2425.969	472.41667
2428.417	472.08333
2430.863	505.75
2433.308	485.75
2435.751	476.08333
2438.193	472.08333
2440.633	479.75
2443.071	478.08333
2445.508	474.08333
2447.943	465.41667
2450.376	463.41667
2452.808	472.75
2455.238	458.08333
2457.667	498.41667
2460.093	468.08333
2462.519	460.08333
2464.942	465.08333
2467.365	470.08333
2469.785	481.08333
2472.204	467.08333
2474.621	462.08333
2477.037	488.75
2479.451	452.75
2481.863	455.75
2484.274	458.08333
2486.683	474.41667
2489.091	472.41667
2491.497	465.41667
2493.901	472.08333
2496.304	476.75
2498.705	479.75
2501.105	458.08333
2503.503	487.75
2505.899	456.41667
2508.294	488.08333
2510.687	467.41667
2513.079	471.75
2515.469	456.75
2517.858	472.08333
2520.245	475.41667
2522.63	458.08333
2525.014	459.41667
2527.396	458.41667
2529.776	449.08333
2532.156	478.08333
2534.533	455.41667
2536.909	467.75
2539.283	444.75
2541.656	461.08333
2544.027	480.08333
2546.397	458.08333
2548.765	459.75
2551.131	469.75
2553.496	455.08333
2555.86	479.75
2558.221	467.08333
2560.582	468.08333
2562.94	458.41667
2565.298	467.75
2567.653	470.75
2570.007	459.75
2572.36	481.75
2574.711	461.75
2577.06	478.41667
2579.408	470.41667
2581.754	464.75
2584.099	473.75
2586.442	471.75
2588.784	473.08333
2591.124	473.08333
2593.463	460.75
2595.8	470.08333
2598.135	461.41667
2600.469	465.75
2602.802	479.08333
2605.133	477.41667
2607.462	470.75
2609.79	460.75
2612.116	475.41667
2614.441	473.08333
2616.764	471.08333
2619.086	477.41667
2621.406	462.75
2623.725	488.41667
2626.042	483.08333
2628.358	476.41667
2630.672	465.75
2632.985	490.08333
2635.296	476.41667
2637.606	483.41667
2639.914	471.08333
2642.22	472.08333
2644.525	484.75
2646.829	491.08333
2649.131	489.75
2651.432	497.41667
2653.731	490.41667
2656.028	512.08333
2658.324	500.08333
2660.619	493.08333
2662.912	507.41667
2665.204	490.08333
2667.494	499.08333
2669.782	495.75
2672.07	497.75
2674.355	501.41667
2676.639	493.41667
2678.922	478.08333
2681.203	495.41667
2683.483	491.08333
2685.761	491.41667
2688.038	511.08333
2690.313	521.08333
2692.587	500.08333
2694.859	495.75
2697.13	505.75
2699.399	518.41667
2701.667	523.75
2703.933	510.75
2706.198	518.41667
2708.461	526.75
2710.723	530.41667
2712.984	527.08333
2715.243	538.41667
2717.5	523.41667
2719.757	539.41667
2722.011	527.75
2724.264	534.08333
2726.516	559.08333
2728.766	542.41667
2731.015	544.41667
2733.262	549.08333
2735.508	548.41667
2737.753	544.41667
2739.996	526.41667
2742.237	534.41667
2744.477	543.08333
2746.716	549.08333
2748.953	545.75
2751.189	546.41667
2753.423	533.75
2755.656	516.41667
2757.887	534.75
2760.117	525.75
2762.346	522.08333
2764.573	517.75
2766.798	528.41667
2769.022	520.08333
2771.245	536.41667
2773.467	535.08333
2775.686	539.41667
2777.905	542.41667
2780.122	548.41667
2782.337	547.08333
2784.552	544.75
2786.764	547.08333
2788.976	549.08333
2791.186	561.08333
2793.394	569.41667
2795.601	569.41667
2797.807	583.75
2800.011	579.41667
2802.214	583.75
2804.415	582.75
2806.615	594.41667
2808.814	591.08333
2811.011	601.08333
2813.206	593.75
2815.401	619.41667
2817.594	609.75
2819.785	628.75
2821.975	612.08333
2824.164	622.75
2826.351	631.41667
2828.537	642.75
2830.722	648.08333
2832.905	656.41667
2835.086	688.41667
2837.267	691.75
2839.445	715.41667
2841.623	717.08333
2843.799	730.75
2845.974	773.08333
2848.147	784.08333
2850.319	804.41667
2852.489	836.75
2854.659	844.75
2856.826	872.08333
2858.993	891.41667
2861.158	867.75
2863.321	871.41667
2865.483	884.75
2867.644	879.41667
2869.804	872.41667
2871.962	863.75
2874.118	873.75
2876.274	888.08333
2878.428	878.75
2880.58	865.08333
2882.731	863.41667
2884.881	855.41667
2887.03	873.75
2889.177	874.41667
2891.322	880.08333
2893.467	882.08333
2895.61	862.75
2897.751	890.75
2899.892	906.75
2902.03	893.08333
2904.168	904.08333
2906.304	904.75
2908.439	916.08333
2910.572	908.08333
2912.704	909.41667
2914.835	928.41667
2916.965	912.75
2919.093	927.75
2921.219	908.08333
2923.345	936.08333
2925.469	906.75
2927.591	908.08333
2929.712	888.41667
2931.832	880.75
2933.951	860.75
2936.068	847.41667
2938.184	832.41667
2940.299	819.41667
2942.412	804.75
2944.524	785.08333
2946.634	776.75
2948.744	741.41667
2950.851	763.08333
2952.958	730.41667
2955.063	733.75
2957.167	718.41667
2959.269	691.41667
2961.371	714.08333
2963.471	683.75
2965.569	685.08333
2967.666	673.75
2969.762	659.41667
2971.857	655.75
2973.95	640.41667
2976.042	633.41667
2978.133	628.41667
2980.222	606.41667
2982.31	593.41667
2984.396	584.41667
2986.482	590.08333
2988.566	576.41667
2990.648	584.75
2992.73	565.41667
2994.81	564.41667
2996.889	561.41667
2998.966	568.08333
3001.042	575.08333
3003.117	577.08333
3005.191	561.08333
3007.263	569.41667
3009.334	553.41667
3011.403	558.41667
3013.472	535.75
3015.539	540.08333
3017.604	556.08333
3019.669	517.75
3021.732	525.75
3023.794	513.75
3025.854	513.41667
3027.914	515.75
3029.971	532.08333
3032.028	509.75
3034.083	514.08333
3036.137	503.08333
3038.19	500.08333
3040.242	475.41667
3042.292	479.08333
3044.341	473.08333
3046.388	492.75
3048.435	456.41667
3050.48	475.41667
3052.524	471.41667
3054.566	462.75
3056.607	468.41667
3058.647	449.41667
3060.686	431.75
3062.723	416.75
3064.759	396.41667
3066.794	-2.25
3068.828	2.08333
3070.86	3.08333
