-0.839	474.79167
3.438	560.79167
7.711	171.125
11.981	61.79167
16.247	42.79167
20.509	49.79167
24.768	46.125
29.024	49.125
33.276	43.45833
37.524	49.45833
41.769	42.79167
46.01	32.45833
50.247	47.45833
54.481	59.45833
58.712	61.79167
62.939	46.45833
67.162	61.125
71.382	58.45833
75.599	43.45833
79.812	60.79167
84.021	78.125
88.227	58.79167
92.429	56.45833
96.628	48.125
100.823	69.79167
105.015	74.125
109.204	63.125
113.388	75.125
117.57	69.45833
121.748	82.79167
125.922	72.79167
130.093	96.79167
134.261	93.79167
138.425	93.125
142.585	137.79167
146.742	123.79167
150.896	150.45833
155.046	189.79167
159.193	291.45833
163.336	490.79167
167.476	916.79167
171.613	1663.125
175.746	2742.79167
179.875	4061.125
184.002	5284.79167
188.124	6094.125
192.244	6374.125
196.36	6327.79167
200.472	6069.45833
204.581	5906.45833
208.687	5673.125
212.79	5569.45833
216.889	5515.125
220.984	5491.79167
225.077	5487.45833
229.165	5489.45833
233.251	5456.45833
237.333	5431.125
241.412	5348.45833
245.487	5304.45833
249.559	5252.125
253.628	5165.79167
257.694	5119.45833
261.756	5084.45833
265.814	5022.79167
269.87	4875.45833
273.922	4725.79167
277.97	4626.45833
282.016	4525.125
286.058	4557.79167
290.097	4637.125
294.132	4688.79167
298.164	4678.79167
302.193	4521.125
306.219	4200.79167
310.241	3866.79167
314.26	3588.125
318.276	3337.45833
322.288	3201.45833
326.297	3063.125
330.303	2975.45833
334.305	2889.45833
338.305	2868.125
342.301	2851.125
346.294	2814.45833
350.283	2790.79167
354.269	2764.79167
358.252	2751.45833
362.232	2737.125
366.209	2728.125
370.182	2696.79167
374.152	2673.45833
378.119	2700.45833
382.083	2694.45833
386.043	2701.45833
390	2692.45833
393.954	2692.45833
397.905	2701.125
401.852	2686.45833
405.797	2669.125
409.738	2687.45833
413.676	2723.79167
417.61	2756.125
421.542	2645.125
425.47	2605.79167
429.396	2575.125
433.318	2596.45833
437.236	2564.45833
441.152	2575.45833
445.065	2534.45833
448.974	2555.45833
452.88	2512.125
456.783	2486.125
460.683	2500.125
464.58	2501.45833
468.473	2502.45833
472.364	2495.79167
476.251	2499.79167
480.135	2543.79167
484.016	2585.125
487.894	2575.79167
491.769	2599.45833
495.641	2594.45833
499.509	2598.79167
503.375	2587.125
507.237	2578.45833
511.096	2547.45833
514.952	2592.125
518.805	2611.45833
522.655	2634.125
526.502	2575.79167
530.346	2568.125
534.187	2569.79167
538.024	2575.45833
541.859	2581.125
545.69	2598.79167
549.519	2609.79167
553.344	2558.79167
557.166	2542.79167
560.985	2514.125
564.802	2491.125
568.615	2464.79167
572.425	2422.125
576.232	2419.45833
580.036	2411.125
583.836	2419.79167
587.634	2429.79167
591.429	2416.125
595.221	2468.79167
599.01	2488.45833
602.796	2513.79167
606.578	2518.125
610.358	2534.79167
614.135	2505.125
617.909	2508.79167
621.679	2493.45833
625.447	2445.79167
629.212	2464.125
632.973	2462.79167
636.732	2466.125
640.488	2446.125
644.241	2430.125
647.991	2416.125
651.737	2460.125
655.481	2421.45833
659.222	2447.45833
662.96	2442.79167
666.695	2448.45833
670.427	2459.125
674.156	2491.125
677.882	2464.45833
681.605	2434.125
685.325	2415.79167
689.043	2443.45833
692.757	2410.45833
696.468	2385.45833
700.177	2408.79167
703.882	2386.79167
707.585	2373.79167
711.284	2376.125
714.981	2356.125
718.675	2382.125
722.366	2367.125
726.054	2367.125
729.739	2352.45833
733.421	2379.125
737.1	2347.45833
740.777	2368.45833
744.45	2382.79167
748.121	2409.125
751.789	2441.45833
755.453	2439.125
759.115	2444.125
762.774	2443.45833
766.431	2464.125
770.084	2499.125
773.734	2490.45833
777.382	2516.45833
781.027	2567.45833
784.669	2547.45833
788.308	2560.79167
791.944	2573.45833
795.577	2596.45833
799.208	2597.125
802.835	2608.45833
806.46	2636.79167
810.082	2660.45833
813.701	2637.45833
817.317	2683.125
820.931	2665.79167
824.542	2661.79167
828.149	2625.45833
831.754	2608.125
835.357	2620.125
838.956	2596.125
842.553	2619.125
846.146	2604.45833
849.737	2546.45833
853.326	2557.125
856.911	2528.79167
860.493	2595.45833
864.073	2588.79167
867.65	2658.79167
871.225	2701.79167
874.796	2618.79167
878.365	2634.45833
881.931	2640.79167
885.494	2651.45833
889.054	2634.125
892.612	2659.45833
896.166	2646.125
899.719	2618.125
903.268	2573.79167
906.814	2568.79167
910.358	2538.125
913.899	2551.125
917.438	2512.125
920.973	2518.45833
924.506	2540.79167
928.036	2589.45833
931.564	2637.45833
935.088	2649.79167
938.61	2653.125
942.129	2678.79167
945.646	2737.79167
949.16	2767.79167
952.671	2839.125
956.179	2825.45833
959.685	2810.79167
963.188	2831.45833
966.688	2813.45833
970.185	2720.125
973.68	2671.79167
977.173	2642.45833
980.662	2590.125
984.149	2604.79167
987.633	2578.45833
991.114	2641.45833
994.593	2662.45833
998.069	2734.125
1001.542	2783.125
1005.013	2768.79167
1008.481	2618.45833
1011.947	2557.45833
1015.409	2543.125
1018.869	2527.125
1022.327	2533.45833
1025.782	2524.45833
1029.234	2529.125
1032.683	2488.79167
1036.13	2424.125
1039.574	2338.45833
1043.016	2282.125
1046.455	2243.125
1049.891	2217.79167
1053.325	2241.45833
1056.756	2230.79167
1060.184	2270.79167
1063.61	2270.125
1067.033	2257.45833
1070.454	2265.79167
1073.872	2300.45833
1077.287	2278.79167
1080.7	2286.79167
1084.11	2283.45833
1087.517	2246.45833
1090.922	2230.79167
1094.325	2207.79167
1097.724	2178.45833
1101.122	2194.79167
1104.516	2160.45833
1107.908	2175.125
1111.298	2206.45833
1114.684	2239.79167
1118.069	2268.45833
1121.45	2281.125
1124.83	2260.45833
1128.206	2291.45833
1131.58	2330.45833
1134.951	2382.79167
1138.32	2440.79167
1141.687	2526.125
1145.05	2577.125
1148.412	2565.125
1151.77	2544.45833
1155.126	2562.45833
1158.48	2523.125
1161.831	2522.79167
1165.18	2528.45833
1168.525	2562.125
1171.869	2614.45833
1175.21	2622.125
1178.548	2647.79167
1181.884	2660.45833
1185.217	2684.45833
1188.548	2761.45833
1191.877	2786.45833
1195.202	2881.125
1198.526	2943.79167
1201.846	2965.45833
1205.165	2966.45833
1208.48	2946.79167
1211.794	2951.79167
1215.104	2922.79167
1218.413	2947.45833
1221.719	2946.45833
1225.022	2889.79167
1228.323	2852.45833
1231.621	2842.125
1234.917	2808.45833
1238.21	2825.79167
1241.501	2811.45833
1244.79	2788.79167
1248.076	2783.125
1251.359	2820.79167
1254.64	2895.79167
1257.919	2884.79167
1261.195	2954.125
1264.468	2972.79167
1267.74	3007.45833
1271.008	3031.125
1274.275	3015.79167
1277.538	2999.125
1280.8	3003.125
1284.059	2989.45833
1287.315	3040.125
1290.569	3032.79167
1293.821	3059.125
1297.07	3079.125
1300.317	3064.125
1303.562	3057.45833
1306.803	3035.125
1310.043	3023.125
1313.28	2989.45833
1316.515	2997.125
1319.747	2977.45833
1322.977	2955.125
1326.204	2942.125
1329.429	2879.45833
1332.652	2854.79167
1335.872	2853.79167
1339.09	2824.45833
1342.306	2828.79167
1345.519	2803.79167
1348.729	2752.79167
1351.938	2759.79167
1355.144	2737.79167
1358.347	2698.125
1361.548	2681.45833
1364.747	2677.45833
1367.944	2669.79167
1371.138	2651.79167
1374.329	2648.45833
1377.518	2659.45833
1380.705	2708.45833
1383.89	2678.79167
1387.072	2589.79167
1390.252	2498.45833
1393.429	2429.45833
1396.605	2363.45833
1399.777	2288.125
1402.948	2269.79167
1406.116	2252.79167
1409.282	2256.79167
1412.445	2255.45833
1415.606	2257.79167
1418.765	2307.125
1421.921	2341.45833
1425.075	2388.45833
1428.227	2445.125
1431.376	2552.79167
1434.524	2649.125
1437.668	2729.125
1440.811	2748.125
1443.951	2770.45833
1447.089	2779.79167
1450.224	2768.45833
1453.357	2764.79167
1456.488	2741.45833
1459.617	2699.45833
1462.743	2660.125
1465.867	2607.45833
1468.989	2551.45833
1472.108	2521.79167
1475.225	2481.45833
1478.34	2454.125
1481.453	2423.125
1484.563	2423.45833
1487.671	2462.79167
1490.776	2471.79167
1493.88	2505.125
1496.981	2550.125
1500.08	2583.45833
1503.176	2617.125
1506.271	2642.125
1509.363	2677.45833
1512.452	2696.125
1515.54	2742.45833
1518.625	2770.45833
1521.708	2829.79167
1524.789	2936.45833
1527.867	3011.125
1530.944	3175.125
1534.018	3292.125
1537.089	3425.79167
1540.159	3462.125
1543.226	3448.125
1546.291	3381.45833
1549.354	3327.79167
1552.415	3234.125
1555.473	3142.125
1558.529	3092.125
1561.583	3061.45833
1564.634	3024.125
1567.684	3053.45833
1570.731	3050.125
1573.776	3102.125
1576.819	3125.79167
1579.859	3152.125
1582.898	3204.45833
1585.934	3235.79167
1588.968	3238.45833
1591.999	3226.125
1595.029	3244.45833
1598.056	3254.125
1601.081	3282.45833
1604.104	3269.79167
1607.125	3220.125
1610.144	3161.125
1613.16	3111.45833
1616.174	3053.79167
1619.186	3004.45833
1622.196	2917.45833
1625.203	2858.125
1628.209	2804.45833
1631.212	2809.45833
1634.213	2819.45833
1637.212	2841.125
1640.209	2802.79167
1643.203	2727.125
1646.196	2631.79167
1649.186	2536.45833
1652.174	2460.125
1655.16	2371.45833
1658.144	2315.125
1661.125	2201.79167
1664.105	2131.79167
1667.082	2024.45833
1670.057	1942.125
1673.03	1809.45833
1676.001	1692.79167
1678.97	1600.79167
1681.937	1496.79167
1684.901	1427.125
1687.863	1381.125
1690.824	1308.45833
1693.782	1288.45833
1696.738	1238.125
1699.692	1223.45833
1702.643	1187.45833
1705.593	1167.125
1708.54	1166.79167
1711.486	1150.125
1714.429	1135.125
1717.37	1121.125
1720.309	1090.125
1723.246	1121.45833
1726.181	1093.79167
1729.113	1102.79167
1732.044	1082.79167
1734.972	1060.125
1737.899	1064.79167
1740.823	1070.79167
1743.745	1069.125
1746.665	1034.45833
1749.583	1012.45833
1752.499	1000.125
1755.413	999.125
1758.325	965.45833
1761.235	971.45833
1764.142	958.125
1767.048	939.45833
1769.951	937.45833
1772.852	945.79167
1775.752	952.79167
1778.649	970.45833
1781.544	965.125
1784.437	903.45833
1787.328	931.79167
1790.217	908.79167
1793.104	888.45833
1795.989	895.45833
1798.872	887.45833
1801.753	882.125
1804.631	870.79167
1807.508	882.79167
1810.383	887.45833
1813.255	872.79167
1816.126	881.125
1818.994	870.79167
1821.861	865.125
1824.725	862.45833
1827.587	852.79167
1830.448	858.79167
1833.306	829.79167
1836.162	846.125
1839.017	842.125
1841.869	840.125
1844.719	839.79167
1847.567	813.125
1850.414	817.125
1853.258	813.45833
1856.1	826.79167
1858.94	835.79167
1861.778	824.125
1864.614	819.79167
1867.448	807.45833
1870.28	794.45833
1873.111	820.45833
1875.939	817.45833
1878.765	829.45833
1881.589	800.125
1884.411	805.45833
1887.231	807.125
1890.049	796.79167
1892.865	797.79167
1895.68	782.79167
1898.492	812.125
1901.302	795.125
1904.11	784.125
1906.916	761.125
1909.721	753.125
1912.523	769.79167
1915.323	761.79167
1918.122	765.45833
1920.918	778.45833
1923.712	754.45833
1926.505	762.45833
1929.295	745.45833
1932.084	762.45833
1934.87	743.45833
1937.655	751.79167
1940.438	741.45833
1943.218	744.45833
1945.997	755.79167
1948.774	765.45833
1951.549	759.79167
1954.322	742.45833
1957.093	742.79167
1959.862	735.45833
1962.629	722.45833
1965.394	726.45833
1968.157	718.79167
1970.918	722.45833
1973.678	714.79167
1976.435	724.79167
1979.19	720.125
1981.944	689.79167
1984.696	699.125
1987.445	691.125
1990.193	710.125
1992.939	717.45833
1995.683	698.79167
1998.425	681.125
2001.165	727.125
2003.903	682.45833
2006.639	691.45833
2009.374	694.125
2012.106	697.125
2014.837	667.125
2017.566	684.45833
2020.292	688.79167
2023.017	684.79167
2025.74	673.45833
2028.461	671.125
2031.18	682.125
2033.898	672.79167
2036.613	675.125
2039.327	668.79167
2042.038	659.45833
2044.748	660.125
2047.456	671.125
2050.162	642.45833
2052.866	661.125
2055.568	661.45833
2058.268	652.45833
2060.967	663.125
2063.663	638.125
2066.358	644.79167
2069.051	629.79167
2071.742	654.45833
2074.431	648.125
2077.118	639.79167
2079.804	621.79167
2082.487	640.45833
2085.169	653.125
2087.849	666.45833
2090.527	632.125
2093.203	638.125
2095.877	644.125
2098.55	652.45833
2101.22	647.79167
2103.889	655.45833
2106.556	658.45833
2109.221	667.79167
2111.884	680.45833
2114.546	710.125
2117.205	741.125
2119.863	796.79167
2122.519	807.45833
2125.173	867.79167
2127.825	904.79167
2130.475	922.45833
2133.124	874.45833
2135.771	862.79167
2138.416	836.45833
2141.059	785.125
2143.7	758.79167
2146.339	721.125
2148.977	682.125
2151.613	672.45833
2154.247	661.125
2156.879	647.79167
2159.51	632.125
2162.138	612.79167
2164.765	636.45833
2167.39	596.79167
2170.013	623.79167
2172.634	610.45833
2175.254	597.125
2177.872	628.125
2180.488	576.45833
2183.102	594.45833
2185.714	575.45833
2188.325	560.125
2190.934	571.79167
2193.541	581.125
2196.146	566.79167
2198.75	557.79167
2201.351	552.45833
2203.951	553.79167
2206.549	565.45833
2209.146	536.79167
2211.74	547.45833
2214.333	550.79167
2216.924	532.79167
2219.514	535.125
2222.101	529.125
2224.687	545.79167
2227.271	528.79167
2229.853	529.45833
2232.433	513.79167
2235.012	537.79167
2237.589	531.45833
2240.164	542.79167
2242.738	512.125
2245.309	516.45833
2247.879	529.125
2250.448	534.125
2253.014	506.125
2255.579	489.125
2258.142	505.79167
2260.703	488.125
2263.262	491.45833
2265.82	489.79167
2268.376	496.125
2270.93	485.79167
2273.483	480.45833
2276.033	489.79167
2278.583	479.45833
2281.13	479.125
2283.675	479.125
2286.219	464.79167
2288.761	485.79167
2291.302	482.125
2293.841	486.45833
2296.377	468.45833
2298.913	471.45833
2301.446	488.125
2303.978	473.125
2306.508	462.79167
2309.037	475.125
2311.563	463.79167
2314.088	470.79167
2316.612	446.125
2319.133	463.45833
2321.653	457.45833
2324.171	449.125
2326.688	468.125
2329.202	454.79167
2331.715	442.79167
2334.227	450.79167
2336.736	449.79167
2339.244	445.79167
2341.751	445.45833
2344.255	449.45833
2346.758	452.45833
2349.259	433.45833
2351.759	441.125
2354.257	434.45833
2356.753	427.45833
2359.247	435.45833
2361.74	442.79167
2364.231	434.125
2366.721	443.79167
2369.209	432.45833
2371.695	434.125
2374.179	435.79167
2376.662	420.125
2379.143	441.45833
2381.622	434.79167
2384.1	443.125
2386.576	423.79167
2389.051	433.79167
2391.524	447.79167
2393.995	436.45833
2396.464	418.45833
2398.932	422.125
2401.398	426.79167
2403.863	417.45833
2406.325	413.79167
2408.787	420.125
2411.246	424.45833
2413.704	417.45833
2416.16	420.125
2418.615	421.45833
2421.068	422.79167
2423.519	419.79167
2425.969	406.45833
2428.417	416.125
2430.863	432.45833
2433.308	421.125
2435.751	416.125
2438.193	405.125
2440.633	414.125
2443.071	412.79167
2445.508	410.79167
2447.943	403.125
2450.376	399.79167
2452.808	400.45833
2455.238	398.125
2457.667	440.125
2460.093	394.79167
2462.519	396.79167
2464.942	396.79167
2467.365	404.45833
2469.785	412.45833
2472.204	401.79167
2474.621	388.125
2477.037	414.79167
2479.451	389.45833
2481.863	383.125
2484.274	388.79167
2486.683	388.45833
2489.091	405.125
2491.497	398.125
2493.901	395.125
2496.304	391.125
2498.705	400.45833
2501.105	392.79167
2503.503	412.45833
2505.899	381.79167
2508.294	405.79167
2510.687	385.125
2513.079	391.45833
2515.469	384.125
2517.858	385.45833
2520.245	398.45833
2522.63	383.45833
2525.014	375.125
2527.396	381.45833
2529.776	373.45833
2532.156	381.125
2534.533	378.45833
2536.909	367.79167
2539.283	360.45833
2541.656	368.79167
2544.027	384.125
2546.397	376.79167
2548.765	371.125
2551.131	378.125
2553.496	379.125
2555.86	382.125
2558.221	382.45833
2560.582	368.45833
2562.94	362.45833
2565.298	371.45833
2567.653	385.45833
2570.007	355.125
2572.36	382.45833
2574.711	364.79167
2577.06	378.125
2579.408	373.79167
2581.754	368.45833
2584.099	371.45833
2586.442	369.45833
2588.784	373.79167
2591.124	370.125
2593.463	372.79167
2595.8	374.125
2598.135	356.45833
2600.469	371.79167
2602.802	374.125
2605.133	378.79167
2607.462	355.79167
2609.79	359.79167
2612.116	375.45833
2614.441	373.79167
2616.764	365.125
2619.086	362.125
2621.406	352.125
2623.725	374.125
2626.042	376.45833
2628.358	358.125
2630.672	357.125
2632.985	376.125
2635.296	374.125
2637.606	361.45833
2639.914	357.79167
2642.22	367.45833
2644.525	370.45833
2646.829	378.45833
2649.131	370.45833
2651.432	371.79167
2653.731	368.45833
2656.028	378.79167
2658.324	369.125
2660.619	372.79167
2662.912	372.45833
2665.204	363.125
2667.494	371.125
2669.782	367.125
2672.07	376.125
2674.355	381.79167
2676.639	370.45833
2678.922	364.125
2681.203	371.45833
2683.483	366.125
2685.761	364.125
2688.038	384.125
2690.313	390.125
2692.587	376.45833
2694.859	370.79167
2697.13	374.79167
2699.399	381.125
2701.667	391.79167
2703.933	382.45833
2706.198	390.79167
2708.461	397.125
2710.723	389.79167
2712.984	383.45833
2715.243	391.125
2717.5	384.45833
2719.757	419.79167
2722.011	400.79167
2724.264	404.45833
2726.516	422.45833
2728.766	394.45833
2731.015	407.45833
2733.262	409.79167
2735.508	399.125
2737.753	395.79167
2739.996	388.125
2742.237	383.45833
2744.477	393.79167
2746.716	394.125
2748.953	395.45833
2751.189	390.125
2753.423	381.45833
2755.656	368.79167
2757.887	373.125
2760.117	380.79167
2762.346	369.79167
2764.573	361.79167
2766.798	380.45833
2769.022	366.125
2771.245	378.45833
2773.467	380.125
2775.686	388.45833
2777.905	387.45833
2780.122	389.125
2782.337	394.45833
2784.552	389.79167
2786.764	386.79167
2788.976	398.125
2791.186	397.45833
2793.394	403.45833
2795.601	406.125
2797.807	411.125
2800.011	416.79167
2802.214	420.45833
2804.415	414.45833
2806.615	422.45833
2808.814	422.125
2811.011	429.79167
2813.206	434.125
2815.401	441.125
2817.594	445.79167
2819.785	451.125
2821.975	440.125
2824.164	443.45833
2826.351	461.79167
2828.537	473.45833
2830.722	490.79167
2832.905	492.125
2835.086	524.79167
2837.267	528.45833
2839.445	555.79167
2841.623	559.45833
2843.799	582.79167
2845.974	618.45833
2848.147	650.79167
2850.319	660.125
2852.489	686.79167
2854.659	696.79167
2856.826	703.45833
2858.993	735.79167
2861.158	711.125
2863.321	719.79167
2865.483	731.45833
2867.644	732.45833
2869.804	729.45833
2871.962	725.45833
2874.118	738.45833
2876.274	744.45833
2878.428	735.79167
2880.58	732.45833
2882.731	723.79167
2884.881	720.45833
2887.03	738.125
2889.177	730.79167
2891.322	740.79167
2893.467	736.45833
2895.61	736.79167
2897.751	760.125
2899.892	740.45833
2902.03	754.79167
2904.168	761.79167
2906.304	761.45833
2908.439	773.79167
2910.572	758.45833
2912.704	779.125
2914.835	775.45833
2916.965	772.125
2919.093	779.79167
2921.219	761.79167
2923.345	783.45833
2925.469	758.45833
2927.591	753.79167
2929.712	720.45833
2931.832	728.125
2933.951	720.79167
2936.068	694.125
2938.184	687.45833
2940.299	667.45833
2942.412	655.79167
2944.524	625.45833
2946.634	618.79167
2948.744	566.125
2950.851	595.45833
2952.958	555.45833
2955.063	563.79167
2957.167	556.125
2959.269	521.125
2961.371	542.125
2963.471	506.79167
2965.569	504.79167
2967.666	486.125
2969.762	482.79167
2971.857	463.45833
2973.95	449.125
2976.042	452.45833
2978.133	435.79167
2980.222	431.125
2982.31	413.79167
2984.396	400.45833
2986.482	406.45833
2988.566	387.45833
2990.648	390.125
2992.73	382.79167
2994.81	379.125
2996.889	379.79167
2998.966	388.125
3001.042	388.79167
3003.117	376.125
3005.191	372.45833
3007.263	371.79167
3009.334	371.125
3011.403	376.125
3013.472	355.79167
3015.539	357.45833
3017.604	369.79167
3019.669	328.45833
3021.732	337.79167
3023.794	338.125
3025.854	334.45833
3027.914	333.45833
3029.971	345.125
3032.028	327.79167
3034.083	329.125
3036.137	322.79167
3038.19	317.45833
3040.242	302.45833
3042.292	301.79167
3044.341	311.79167
3046.388	312.45833
3048.435	290.79167
3050.48	304.45833
3052.524	303.125
3054.566	278.45833
3056.607	300.79167
3058.647	285.79167
3060.686	276.125
3062.723	264.45833
3064.759	252.125
3066.794	-0.54167
3068.828	1.79167
3070.86	1.79167
