-0.839	377.04167
3.438	453.70833
7.711	141.375
11.981	60.375
16.247	42.375
20.509	47.375
24.768	41.04167
29.024	52.375
33.276	44.04167
37.524	48.70833
41.769	48.375
46.01	33.04167
50.247	44.70833
54.481	55.375
58.712	58.70833
62.939	47.375
67.162	61.70833
71.382	57.04167
75.599	49.70833
79.812	59.04167
84.021	81.70833
88.227	62.70833
92.429	57.04167
96.628	53.04167
100.823	66.375
105.015	74.04167
109.204	70.70833
113.388	75.70833
117.57	75.04167
121.748	83.375
125.922	74.70833
130.093	92.04167
134.261	96.04167
138.425	92.375
142.585	139.04167
146.742	127.375
150.896	155.375
155.046	203.375
159.193	309.70833
163.336	524.04167
167.476	975.375
171.613	1798.70833
175.746	3034.375
179.875	4469.375
184.002	5812.375
188.124	6709.375
192.244	6968.70833
196.36	6855.375
200.472	6604.375
204.581	6325.375
208.687	6132.375
212.79	6020.70833
216.889	5941.70833
220.984	5877.375
225.077	5831.70833
229.165	5811.375
233.251	5781.04167
237.333	5735.70833
241.412	5625.04167
245.487	5510.375
249.559	5440.04167
253.628	5411.70833
257.694	5315.375
261.756	5249.70833
265.814	5143.375
269.87	4985.04167
273.922	4803.70833
277.97	4749.70833
282.016	4705.70833
286.058	4718.04167
290.097	4835.04167
294.132	4840.04167
298.164	4787.375
302.193	4543.70833
306.219	4211.70833
310.241	3873.04167
314.26	3599.70833
318.276	3328.375
322.288	3156.375
326.297	3015.70833
330.303	2909.04167
334.305	2834.04167
338.305	2770.70833
342.301	2717.70833
346.294	2704.375
350.283	2659.04167
354.269	2647.375
358.252	2598.04167
362.232	2584.375
366.209	2582.70833
370.182	2539.04167
374.152	2505.04167
378.119	2514.70833
382.083	2497.70833
386.043	2506.04167
390	2465.70833
393.954	2496.375
397.905	2476.04167
401.852	2470.04167
405.797	2411.04167
409.738	2420.375
413.676	2420.375
417.61	2435.375
421.542	2380.375
425.47	2362.70833
429.396	2324.70833
433.318	2315.375
437.236	2329.04167
441.152	2351.375
445.065	2296.375
448.974	2273.70833
452.88	2239.70833
456.783	2237.04167
460.683	2212.70833
464.58	2203.375
468.473	2197.375
472.364	2229.04167
476.251	2204.04167
480.135	2236.04167
484.016	2259.375
487.894	2279.375
491.769	2282.04167
495.641	2291.375
499.509	2280.375
503.375	2276.375
507.237	2238.04167
511.096	2261.04167
514.952	2368.04167
518.805	2412.04167
522.655	2462.375
526.502	2373.04167
530.346	2305.375
534.187	2286.04167
538.024	2304.70833
541.859	2312.70833
545.69	2321.375
549.519	2316.375
553.344	2285.70833
557.166	2248.375
560.985	2226.375
564.802	2183.70833
568.615	2140.04167
572.425	2097.04167
576.232	2104.375
580.036	2115.04167
583.836	2092.70833
587.634	2136.04167
591.429	2130.375
595.221	2191.70833
599.01	2197.375
602.796	2225.70833
606.578	2226.375
610.358	2238.04167
614.135	2179.375
617.909	2205.70833
621.679	2167.70833
625.447	2164.375
629.212	2164.04167
632.973	2182.04167
636.732	2158.375
640.488	2159.70833
644.241	2148.04167
647.991	2141.04167
651.737	2149.70833
655.481	2106.375
659.222	2108.70833
662.96	2106.375
666.695	2127.04167
670.427	2148.04167
674.156	2156.375
677.882	2132.04167
681.605	2147.375
685.325	2103.04167
689.043	2117.04167
692.757	2080.375
696.468	2078.04167
700.177	2098.04167
703.882	2065.04167
707.585	2096.04167
711.284	2085.375
714.981	2082.375
718.675	2073.70833
722.366	2088.70833
726.054	2081.04167
729.739	2067.375
733.421	2101.04167
737.1	2085.04167
740.777	2123.375
744.45	2117.375
748.121	2129.375
751.789	2175.04167
755.453	2171.375
759.115	2202.70833
762.774	2208.04167
766.431	2219.04167
770.084	2223.70833
773.734	2244.70833
777.382	2287.375
781.027	2307.375
784.669	2313.04167
788.308	2321.375
791.944	2354.375
795.577	2379.70833
799.208	2389.70833
802.835	2405.04167
806.46	2411.70833
810.082	2429.375
813.701	2435.04167
817.317	2452.70833
820.931	2430.70833
824.542	2430.375
828.149	2432.375
831.754	2402.70833
835.357	2406.70833
838.956	2410.375
842.553	2424.375
846.146	2368.70833
849.737	2381.70833
853.326	2391.375
856.911	2376.70833
860.493	2425.70833
864.073	2448.70833
867.65	2483.04167
871.225	2529.70833
874.796	2515.375
878.365	2499.04167
881.931	2530.70833
885.494	2519.375
889.054	2529.70833
892.612	2567.70833
896.166	2522.70833
899.719	2483.04167
903.268	2437.04167
906.814	2460.70833
910.358	2417.04167
913.899	2428.04167
917.438	2444.04167
920.973	2409.70833
924.506	2453.04167
928.036	2463.70833
931.564	2505.375
935.088	2537.04167
938.61	2546.375
942.129	2589.70833
945.646	2671.375
949.16	2731.375
952.671	2742.70833
956.179	2760.375
959.685	2699.04167
963.188	2678.70833
966.688	2667.70833
970.185	2581.70833
973.68	2502.04167
977.173	2478.04167
980.662	2448.04167
984.149	2440.70833
987.633	2447.375
991.114	2481.375
994.593	2534.375
998.069	2606.375
1001.542	2685.375
1005.013	2631.04167
1008.481	2497.04167
1011.947	2427.70833
1015.409	2436.70833
1018.869	2450.04167
1022.327	2445.70833
1025.782	2434.04167
1029.234	2402.375
1032.683	2362.04167
1036.13	2281.70833
1039.574	2196.375
1043.016	2141.70833
1046.455	2102.375
1049.891	2081.375
1053.325	2104.04167
1056.756	2117.70833
1060.184	2135.04167
1063.61	2122.375
1067.033	2159.375
1070.454	2139.375
1073.872	2182.375
1077.287	2172.375
1080.7	2152.04167
1084.11	2158.375
1087.517	2126.375
1090.922	2117.375
1094.325	2086.70833
1097.724	2068.375
1101.122	2092.70833
1104.516	2075.70833
1107.908	2087.04167
1111.298	2134.04167
1114.684	2131.04167
1118.069	2201.04167
1121.45	2204.70833
1124.83	2197.04167
1128.206	2230.04167
1131.58	2269.04167
1134.951	2320.04167
1138.32	2391.04167
1141.687	2471.70833
1145.05	2513.04167
1148.412	2523.70833
1151.77	2527.375
1155.126	2520.04167
1158.48	2512.70833
1161.831	2524.04167
1165.18	2513.375
1168.525	2554.04167
1171.869	2582.04167
1175.21	2606.70833
1178.548	2606.04167
1181.884	2657.375
1185.217	2681.04167
1188.548	2741.375
1191.877	2813.375
1195.202	2858.04167
1198.526	2951.70833
1201.846	2971.375
1205.165	2936.375
1208.48	2947.70833
1211.794	2916.04167
1215.104	2924.375
1218.413	2912.70833
1221.719	2926.375
1225.022	2904.375
1228.323	2857.04167
1231.621	2824.375
1234.917	2793.375
1238.21	2794.04167
1241.501	2779.375
1244.79	2792.375
1248.076	2780.04167
1251.359	2794.04167
1254.64	2856.70833
1257.919	2894.375
1261.195	2924.04167
1264.468	2985.70833
1267.74	3022.70833
1271.008	3014.70833
1274.275	3000.375
1277.538	3002.375
1280.8	2978.70833
1284.059	2986.375
1287.315	3040.04167
1290.569	3050.375
1293.821	3045.375
1297.07	3084.375
1300.317	3093.04167
1303.562	3096.04167
1306.803	3049.04167
1310.043	3042.375
1313.28	3004.70833
1316.515	2974.70833
1319.747	2954.70833
1322.977	2906.375
1326.204	2858.70833
1329.429	2823.04167
1332.652	2818.04167
1335.872	2785.375
1339.09	2732.70833
1342.306	2729.70833
1345.519	2692.04167
1348.729	2685.04167
1351.938	2698.04167
1355.144	2650.70833
1358.347	2630.70833
1361.548	2636.70833
1364.747	2628.375
1367.944	2580.70833
1371.138	2570.70833
1374.329	2633.375
1377.518	2653.04167
1380.705	2641.04167
1383.89	2612.70833
1387.072	2533.375
1390.252	2432.04167
1393.429	2340.70833
1396.605	2278.375
1399.777	2202.70833
1402.948	2212.70833
1406.116	2179.04167
1409.282	2177.70833
1412.445	2187.04167
1415.606	2206.70833
1418.765	2252.70833
1421.921	2304.375
1425.075	2341.375
1428.227	2435.04167
1431.376	2535.70833
1434.524	2623.70833
1437.668	2709.70833
1440.811	2747.375
1443.951	2785.375
1447.089	2770.70833
1450.224	2738.375
1453.357	2722.375
1456.488	2710.375
1459.617	2679.375
1462.743	2644.375
1465.867	2557.375
1468.989	2520.375
1472.108	2473.375
1475.225	2415.70833
1478.34	2390.375
1481.453	2396.04167
1484.563	2395.70833
1487.671	2429.375
1490.776	2472.375
1493.88	2525.04167
1496.981	2567.375
1500.08	2599.70833
1503.176	2604.70833
1506.271	2661.70833
1509.363	2701.375
1512.452	2694.70833
1515.54	2714.375
1518.625	2753.375
1521.708	2845.04167
1524.789	2899.375
1527.867	3024.70833
1530.944	3164.04167
1534.018	3307.04167
1537.089	3486.70833
1540.159	3495.04167
1543.226	3507.70833
1546.291	3436.375
1549.354	3370.70833
1552.415	3303.375
1555.473	3217.70833
1558.529	3197.04167
1561.583	3170.70833
1564.634	3115.70833
1567.684	3134.04167
1570.731	3139.04167
1573.776	3173.70833
1576.819	3223.04167
1579.859	3253.375
1582.898	3249.04167
1585.934	3294.70833
1588.968	3295.375
1591.999	3325.70833
1595.029	3299.04167
1598.056	3329.70833
1601.081	3357.70833
1604.104	3342.70833
1607.125	3300.70833
1610.144	3253.375
1613.16	3164.70833
1616.174	3077.70833
1619.186	2997.375
1622.196	2919.375
1625.203	2799.04167
1628.209	2761.70833
1631.212	2713.04167
1634.213	2684.04167
1637.212	2679.04167
1640.209	2651.375
1643.203	2589.375
1646.196	2502.70833
1649.186	2405.04167
1652.174	2362.04167
1655.16	2265.70833
1658.144	2213.70833
1661.125	2126.04167
1664.105	2016.70833
1667.082	1919.04167
1670.057	1836.70833
1673.03	1732.375
1676.001	1585.04167
1678.97	1516.04167
1681.937	1413.375
1684.901	1331.70833
1687.863	1302.375
1690.824	1246.375
1693.782	1214.70833
1696.738	1145.04167
1699.692	1143.375
1702.643	1102.70833
1705.593	1103.375
1708.54	1085.375
1711.486	1077.375
1714.429	1039.04167
1717.37	1056.70833
1720.309	1022.70833
1723.246	1031.04167
1726.181	1017.70833
1729.113	1000.70833
1732.044	994.04167
1734.972	979.375
1737.899	985.70833
1740.823	978.70833
1743.745	942.375
1746.665	944.375
1749.583	921.70833
1752.499	919.04167
1755.413	904.375
1758.325	882.375
1761.235	872.375
1764.142	870.04167
1767.048	849.375
1769.951	861.70833
1772.852	846.04167
1775.752	854.375
1778.649	842.70833
1781.544	843.375
1784.437	818.375
1787.328	826.70833
1790.217	830.375
1793.104	779.70833
1795.989	795.375
1798.872	802.375
1801.753	812.70833
1804.631	801.375
1807.508	798.70833
1810.383	795.375
1813.255	785.375
1816.126	792.375
1818.994	779.04167
1821.861	770.70833
1824.725	782.04167
1827.587	782.375
1830.448	776.375
1833.306	752.04167
1836.162	764.70833
1839.017	748.375
1841.869	751.375
1844.719	754.375
1847.567	732.375
1850.414	733.70833
1853.258	729.04167
1856.1	752.70833
1858.94	747.04167
1861.778	742.04167
1864.614	730.70833
1867.448	733.04167
1870.28	721.70833
1873.111	760.04167
1875.939	737.70833
1878.765	756.04167
1881.589	723.70833
1884.411	722.375
1887.231	740.04167
1890.049	715.70833
1892.865	725.375
1895.68	709.70833
1898.492	723.375
1901.302	721.04167
1904.11	714.375
1906.916	702.04167
1909.721	695.70833
1912.523	708.04167
1915.323	688.04167
1918.122	691.70833
1920.918	704.70833
1923.712	686.375
1926.505	695.70833
1929.295	679.70833
1932.084	703.04167
1934.87	695.70833
1937.655	690.375
1940.438	678.375
1943.218	688.04167
1945.997	686.04167
1948.774	697.375
1951.549	697.375
1954.322	680.375
1957.093	677.04167
1959.862	679.04167
1962.629	665.04167
1965.394	660.375
1968.157	659.375
1970.918	656.04167
1973.678	657.04167
1976.435	657.70833
1979.19	663.375
1981.944	645.375
1984.696	644.375
1987.445	635.70833
1990.193	649.70833
1992.939	661.70833
1995.683	649.375
1998.425	633.70833
2001.165	662.375
2003.903	632.375
2006.639	639.70833
2009.374	654.70833
2012.106	637.04167
2014.837	617.04167
2017.566	652.375
2020.292	645.04167
2023.017	644.375
2025.74	638.70833
2028.461	624.04167
2031.18	631.375
2033.898	623.70833
2036.613	620.04167
2039.327	624.04167
2042.038	618.70833
2044.748	619.70833
2047.456	609.04167
2050.162	616.375
2052.866	604.04167
2055.568	626.70833
2058.268	612.375
2060.967	615.70833
2063.663	600.04167
2066.358	607.70833
2069.051	610.04167
2071.742	601.70833
2074.431	609.04167
2077.118	603.70833
2079.804	597.375
2082.487	611.70833
2085.169	627.04167
2087.849	632.375
2090.527	605.04167
2093.203	612.70833
2095.877	628.375
2098.55	608.375
2101.22	632.04167
2103.889	641.375
2106.556	633.04167
2109.221	650.04167
2111.884	664.375
2114.546	715.375
2117.205	748.375
2119.863	799.04167
2122.519	837.70833
2125.173	873.375
2127.825	922.70833
2130.475	922.70833
2133.124	887.04167
2135.771	856.375
2138.416	831.70833
2141.059	780.70833
2143.7	755.375
2146.339	702.375
2148.977	670.04167
2151.613	672.04167
2154.247	652.04167
2156.879	640.04167
2159.51	617.70833
2162.138	605.04167
2164.765	611.70833
2167.39	591.70833
2170.013	615.04167
2172.634	606.70833
2175.254	593.04167
2177.872	627.04167
2180.488	588.70833
2183.102	591.04167
2185.714	583.04167
2188.325	567.04167
2190.934	584.375
2193.541	562.375
2196.146	570.70833
2198.75	557.70833
2201.351	558.04167
2203.951	541.04167
2206.549	563.375
2209.146	556.04167
2211.74	547.04167
2214.333	565.375
2216.924	536.375
2219.514	538.375
2222.101	534.375
2224.687	559.375
2227.271	536.04167
2229.853	526.70833
2232.433	517.375
2235.012	539.04167
2237.589	535.04167
2240.164	550.375
2242.738	537.70833
2245.309	520.70833
2247.879	532.04167
2250.448	539.70833
2253.014	510.04167
2255.579	509.04167
2258.142	518.04167
2260.703	513.70833
2263.262	512.04167
2265.82	508.375
2268.376	520.375
2270.93	493.375
2273.483	509.375
2276.033	511.04167
2278.583	503.375
2281.13	495.04167
2283.675	497.70833
2286.219	501.04167
2288.761	501.04167
2291.302	504.04167
2293.841	507.375
2296.377	484.375
2298.913	495.04167
2301.446	503.04167
2303.978	495.70833
2306.508	485.04167
2309.037	491.04167
2311.563	495.04167
2314.088	502.375
2316.612	480.375
2319.133	493.70833
2321.653	493.04167
2324.171	476.04167
2326.688	490.04167
2329.202	474.04167
2331.715	490.04167
2334.227	476.70833
2336.736	484.70833
2339.244	491.70833
2341.751	475.375
2344.255	483.375
2346.758	488.04167
2349.259	469.04167
2351.759	479.375
2354.257	474.04167
2356.753	474.375
2359.247	481.04167
2361.74	485.70833
2364.231	486.04167
2366.721	477.70833
2369.209	470.70833
2371.695	482.04167
2374.179	481.375
2376.662	459.375
2379.143	492.375
2381.622	474.375
2384.1	487.375
2386.576	470.375
2389.051	490.70833
2391.524	497.70833
2393.995	487.04167
2396.464	477.375
2398.932	463.04167
2401.398	475.70833
2403.863	478.375
2406.325	466.04167
2408.787	477.70833
2411.246	467.70833
2413.704	468.375
2416.16	467.04167
2418.615	465.04167
2421.068	480.70833
2423.519	478.04167
2425.969	470.70833
2428.417	478.375
2430.863	494.70833
2433.308	488.70833
2435.751	483.375
2438.193	467.375
2440.633	475.04167
2443.071	483.375
2445.508	473.70833
2447.943	478.04167
2450.376	469.375
2452.808	461.70833
2455.238	469.375
2457.667	513.70833
2460.093	470.375
2462.519	460.375
2464.942	477.04167
2467.365	478.375
2469.785	483.70833
2472.204	474.70833
2474.621	464.04167
2477.037	477.04167
2479.451	464.04167
2481.863	458.70833
2484.274	466.04167
2486.683	472.04167
2489.091	480.04167
2491.497	477.70833
2493.901	485.04167
2496.304	466.70833
2498.705	482.70833
2501.105	463.375
2503.503	508.375
2505.899	461.70833
2508.294	486.375
2510.687	482.70833
2513.079	472.04167
2515.469	470.70833
2517.858	477.375
2520.245	482.375
2522.63	468.70833
2525.014	466.04167
2527.396	466.04167
2529.776	453.04167
2532.156	488.04167
2534.533	462.70833
2536.909	463.70833
2539.283	457.375
2541.656	460.70833
2544.027	487.70833
2546.397	480.70833
2548.765	466.70833
2551.131	481.375
2553.496	481.70833
2555.86	485.04167
2558.221	480.375
2560.582	473.375
2562.94	468.375
2565.298	474.70833
2567.653	496.375
2570.007	471.04167
2572.36	489.375
2574.711	463.375
2577.06	495.375
2579.408	496.70833
2581.754	487.70833
2584.099	499.375
2586.442	486.70833
2588.784	486.70833
2591.124	496.375
2593.463	486.04167
2595.8	484.375
2598.135	475.70833
2600.469	484.04167
2602.802	485.04167
2605.133	499.375
2607.462	481.04167
2609.79	473.375
2612.116	489.04167
2614.441	491.70833
2616.764	489.70833
2619.086	488.70833
2621.406	480.04167
2623.725	499.70833
2626.042	511.375
2628.358	489.375
2630.672	490.70833
2632.985	519.04167
2635.296	498.375
2637.606	497.04167
2639.914	494.04167
2642.22	506.375
2644.525	490.04167
2646.829	511.375
2649.131	519.70833
2651.432	524.04167
2653.731	514.04167
2656.028	526.375
2658.324	520.04167
2660.619	510.70833
2662.912	523.04167
2665.204	510.375
2667.494	520.04167
2669.782	513.375
2672.07	527.375
2674.355	526.04167
2676.639	526.70833
2678.922	521.04167
2681.203	531.04167
2683.483	511.70833
2685.761	524.04167
2688.038	526.375
2690.313	549.04167
2692.587	531.375
2694.859	533.375
2697.13	541.04167
2699.399	545.375
2701.667	552.375
2703.933	548.70833
2706.198	544.375
2708.461	556.375
2710.723	551.70833
2712.984	553.04167
2715.243	559.375
2717.5	548.375
2719.757	571.70833
2722.011	558.375
2724.264	575.04167
2726.516	590.70833
2728.766	568.375
2731.015	577.70833
2733.262	583.375
2735.508	573.04167
2737.753	578.04167
2739.996	569.04167
2742.237	562.375
2744.477	573.375
2746.716	579.70833
2748.953	571.70833
2751.189	578.70833
2753.423	559.70833
2755.656	557.04167
2757.887	556.70833
2760.117	556.04167
2762.346	551.04167
2764.573	556.375
2766.798	554.04167
2769.022	554.375
2771.245	569.375
2773.467	556.70833
2775.686	579.375
2777.905	560.375
2780.122	570.04167
2782.337	577.04167
2784.552	572.70833
2786.764	569.70833
2788.976	588.04167
2791.186	595.04167
2793.394	597.04167
2795.601	601.04167
2797.807	614.375
2800.011	625.70833
2802.214	619.375
2804.415	626.375
2806.615	623.70833
2808.814	620.70833
2811.011	638.375
2813.206	627.375
2815.401	662.04167
2817.594	664.04167
2819.785	659.375
2821.975	651.375
2824.164	656.375
2826.351	675.70833
2828.537	689.70833
2830.722	693.04167
2832.905	693.04167
2835.086	729.04167
2837.267	752.04167
2839.445	743.70833
2841.623	774.70833
2843.799	792.04167
2845.974	826.70833
2848.147	839.04167
2850.319	866.375
2852.489	897.70833
2854.659	895.375
2856.826	896.375
2858.993	929.70833
2861.158	906.04167
2863.321	915.375
2865.483	933.375
2867.644	934.375
2869.804	927.04167
2871.962	933.04167
2874.118	924.375
2876.274	916.375
2878.428	926.04167
2880.58	923.70833
2882.731	903.375
2884.881	901.70833
2887.03	919.04167
2889.177	915.04167
2891.322	934.375
2893.467	927.70833
2895.61	924.70833
2897.751	942.375
2899.892	931.70833
2902.03	947.375
2904.168	948.70833
2906.304	948.375
2908.439	955.70833
2910.572	961.375
2912.704	972.04167
2914.835	987.04167
2916.965	965.375
2919.093	970.70833
2921.219	953.04167
2923.345	960.375
2925.469	941.04167
2927.591	934.70833
2929.712	910.375
2931.832	909.375
2933.951	893.375
2936.068	887.70833
2938.184	880.375
2940.299	848.04167
2942.412	839.375
2944.524	813.375
2946.634	813.04167
2948.744	754.70833
2950.851	794.70833
2952.958	771.375
2955.063	756.70833
2957.167	758.375
2959.269	734.375
2961.371	751.04167
2963.471	721.04167
2965.569	730.375
2967.666	697.04167
2969.762	699.70833
2971.857	691.04167
2973.95	668.375
2976.042	666.04167
2978.133	654.70833
2980.222	653.04167
2982.31	628.375
2984.396	608.375
2986.482	619.04167
2988.566	611.04167
2990.648	611.375
2992.73	615.375
2994.81	587.70833
2996.889	612.04167
2998.966	598.70833
3001.042	623.04167
3003.117	603.04167
3005.191	602.375
3007.263	607.70833
3009.334	589.70833
3011.403	596.375
3013.472	574.70833
3015.539	575.04167
3017.604	590.70833
3019.669	549.04167
3021.732	553.04167
3023.794	563.375
3025.854	552.04167
3027.914	558.375
3029.971	565.375
3032.028	551.04167
3034.083	555.375
3036.137	553.04167
3038.19	533.04167
3040.242	508.04167
3042.292	504.70833
3044.341	505.375
3046.388	516.375
3048.435	493.04167
3050.48	511.70833
3052.524	500.04167
3054.566	486.375
3056.607	488.70833
3058.647	481.375
3060.686	467.04167
3062.723	449.375
3064.759	425.04167
3066.794	-1.625
3068.828	3.04167
3070.86	3.375
