-0.839	386.54167
3.438	455.20833
7.711	141.875
11.981	56.875
16.247	42.20833
20.509	49.54167
24.768	42.20833
29.024	53.20833
33.276	44.54167
37.524	45.54167
41.769	45.875
46.01	34.20833
50.247	46.54167
54.481	58.875
58.712	60.875
62.939	46.875
67.162	60.54167
71.382	56.54167
75.599	46.20833
79.812	55.875
84.021	80.54167
88.227	57.20833
92.429	57.54167
96.628	54.20833
100.823	67.875
105.015	70.54167
109.204	68.20833
113.388	74.20833
117.57	70.875
121.748	85.20833
125.922	78.54167
130.093	96.54167
134.261	95.875
138.425	93.875
142.585	135.54167
146.742	128.54167
150.896	159.20833
155.046	194.54167
159.193	308.20833
163.336	535.54167
167.476	983.875
171.613	1801.20833
175.746	3036.54167
179.875	4483.54167
184.002	5860.54167
188.124	6734.875
192.244	7019.20833
196.36	6922.54167
200.472	6670.875
204.581	6379.20833
208.687	6207.54167
212.79	6056.20833
216.889	6018.875
220.984	5899.875
225.077	5886.875
229.165	5826.54167
233.251	5839.875
237.333	5765.875
241.412	5683.54167
245.487	5612.875
249.559	5507.20833
253.628	5442.54167
257.694	5394.54167
261.756	5291.875
265.814	5194.20833
269.87	5043.20833
273.922	4877.54167
277.97	4796.875
282.016	4743.20833
286.058	4755.54167
290.097	4850.54167
294.132	4913.20833
298.164	4833.54167
302.193	4593.875
306.219	4256.875
310.241	3919.875
314.26	3615.20833
318.276	3369.875
322.288	3203.54167
326.297	3032.54167
330.303	2914.54167
334.305	2846.54167
338.305	2814.20833
342.301	2743.875
346.294	2720.54167
350.283	2718.875
354.269	2652.875
358.252	2642.20833
362.232	2629.875
366.209	2593.875
370.182	2568.875
374.152	2543.54167
378.119	2536.875
382.083	2554.20833
386.043	2539.54167
390	2510.875
393.954	2536.20833
397.905	2509.875
401.852	2513.875
405.797	2462.875
409.738	2448.20833
413.676	2476.54167
417.61	2446.54167
421.542	2433.20833
425.47	2393.54167
429.396	2377.54167
433.318	2386.20833
437.236	2353.875
441.152	2385.875
445.065	2338.20833
448.974	2329.20833
452.88	2274.54167
456.783	2267.54167
460.683	2254.54167
464.58	2247.54167
468.473	2248.54167
472.364	2281.54167
476.251	2248.875
480.135	2286.875
484.016	2301.54167
487.894	2331.875
491.769	2340.54167
495.641	2341.875
499.509	2337.875
503.375	2329.20833
507.237	2313.54167
511.096	2324.875
514.952	2409.54167
518.805	2481.20833
522.655	2528.875
526.502	2408.54167
530.346	2329.54167
534.187	2346.875
538.024	2343.54167
541.859	2360.20833
545.69	2359.875
549.519	2372.54167
553.344	2343.20833
557.166	2308.20833
560.985	2275.20833
564.802	2244.20833
568.615	2179.20833
572.425	2158.54167
576.232	2128.54167
580.036	2130.875
583.836	2144.20833
587.634	2161.875
591.429	2164.54167
595.221	2231.20833
599.01	2241.20833
602.796	2274.875
606.578	2267.20833
610.358	2275.20833
614.135	2246.20833
617.909	2236.875
621.679	2226.875
625.447	2190.54167
629.212	2222.875
632.973	2197.54167
636.732	2202.54167
640.488	2193.875
644.241	2167.875
647.991	2185.875
651.737	2195.54167
655.481	2157.20833
659.222	2158.20833
662.96	2145.54167
666.695	2180.875
670.427	2192.875
674.156	2200.875
677.882	2193.54167
681.605	2158.875
685.325	2144.20833
689.043	2167.54167
692.757	2140.20833
696.468	2145.20833
700.177	2147.54167
703.882	2131.20833
707.585	2112.54167
711.284	2118.20833
714.981	2109.54167
718.675	2121.875
722.366	2126.54167
726.054	2135.54167
729.739	2115.20833
733.421	2118.875
737.1	2141.20833
740.777	2138.875
744.45	2165.54167
748.121	2171.875
751.789	2224.20833
755.453	2203.54167
759.115	2239.20833
762.774	2244.20833
766.431	2234.20833
770.084	2267.875
773.734	2310.20833
777.382	2330.20833
781.027	2348.20833
784.669	2345.20833
788.308	2363.20833
791.944	2394.20833
795.577	2407.875
799.208	2419.54167
802.835	2431.54167
806.46	2447.54167
810.082	2456.20833
813.701	2449.54167
817.317	2486.20833
820.931	2471.20833
824.542	2488.20833
828.149	2460.20833
831.754	2441.54167
835.357	2431.875
838.956	2430.875
842.553	2426.20833
846.146	2426.20833
849.737	2393.54167
853.326	2392.875
856.911	2397.54167
860.493	2468.20833
864.073	2490.54167
867.65	2485.875
871.225	2522.20833
874.796	2525.54167
878.365	2520.875
881.931	2540.54167
885.494	2566.20833
889.054	2545.20833
892.612	2563.20833
896.166	2537.20833
899.719	2490.875
903.268	2461.875
906.814	2451.875
910.358	2445.54167
913.899	2429.54167
917.438	2440.54167
920.973	2410.54167
924.506	2465.20833
928.036	2504.875
931.564	2542.875
935.088	2571.20833
938.61	2594.875
942.129	2617.20833
945.646	2669.20833
949.16	2750.20833
952.671	2755.54167
956.179	2774.875
959.685	2724.54167
963.188	2716.875
966.688	2707.54167
970.185	2622.54167
973.68	2554.875
977.173	2519.54167
980.662	2482.875
984.149	2479.875
987.633	2479.20833
991.114	2500.875
994.593	2570.875
998.069	2643.54167
1001.542	2715.20833
1005.013	2660.54167
1008.481	2514.20833
1011.947	2482.20833
1015.409	2455.20833
1018.869	2472.875
1022.327	2462.20833
1025.782	2433.54167
1029.234	2423.20833
1032.683	2410.875
1036.13	2324.875
1039.574	2225.54167
1043.016	2147.54167
1046.455	2135.54167
1049.891	2113.54167
1053.325	2130.20833
1056.756	2132.54167
1060.184	2135.54167
1063.61	2150.20833
1067.033	2153.20833
1070.454	2161.54167
1073.872	2187.875
1077.287	2177.875
1080.7	2194.20833
1084.11	2176.875
1087.517	2153.875
1090.922	2122.20833
1094.325	2133.20833
1097.724	2099.875
1101.122	2097.54167
1104.516	2104.20833
1107.908	2094.875
1111.298	2148.54167
1114.684	2148.54167
1118.069	2188.20833
1121.45	2213.54167
1124.83	2205.54167
1128.206	2233.54167
1131.58	2268.20833
1134.951	2327.20833
1138.32	2411.875
1141.687	2471.54167
1145.05	2523.20833
1148.412	2545.875
1151.77	2533.54167
1155.126	2530.54167
1158.48	2518.20833
1161.831	2547.20833
1165.18	2548.875
1168.525	2572.875
1171.869	2636.875
1175.21	2617.20833
1178.548	2630.20833
1181.884	2671.875
1185.217	2688.20833
1188.548	2745.875
1191.877	2787.875
1195.202	2888.20833
1198.526	2954.54167
1201.846	2977.54167
1205.165	2964.54167
1208.48	2977.54167
1211.794	2933.20833
1215.104	2969.54167
1218.413	2984.875
1221.719	2948.875
1225.022	2896.54167
1228.323	2864.875
1231.621	2831.54167
1234.917	2802.20833
1238.21	2819.875
1241.501	2806.54167
1244.79	2816.875
1248.076	2770.20833
1251.359	2835.20833
1254.64	2872.20833
1257.919	2889.875
1261.195	2952.54167
1264.468	2987.875
1267.74	3041.54167
1271.008	3035.875
1274.275	3030.875
1277.538	3008.54167
1280.8	3011.54167
1284.059	3016.20833
1287.315	3051.20833
1290.569	3044.20833
1293.821	3077.54167
1297.07	3095.54167
1300.317	3119.875
1303.562	3101.54167
1306.803	3066.875
1310.043	3064.20833
1313.28	3012.20833
1316.515	2988.20833
1319.747	2973.54167
1322.977	2922.875
1326.204	2869.54167
1329.429	2846.20833
1332.652	2827.54167
1335.872	2796.20833
1339.09	2763.20833
1342.306	2753.54167
1345.519	2729.20833
1348.729	2697.875
1351.938	2725.54167
1355.144	2673.54167
1358.347	2642.20833
1361.548	2651.875
1364.747	2635.20833
1367.944	2619.20833
1371.138	2622.54167
1374.329	2632.20833
1377.518	2649.54167
1380.705	2679.54167
1383.89	2639.20833
1387.072	2555.875
1390.252	2461.54167
1393.429	2378.54167
1396.605	2307.875
1399.777	2241.54167
1402.948	2217.20833
1406.116	2208.20833
1409.282	2198.875
1412.445	2221.20833
1415.606	2224.20833
1418.765	2260.20833
1421.921	2324.20833
1425.075	2368.875
1428.227	2447.54167
1431.376	2552.875
1434.524	2658.54167
1437.668	2712.54167
1440.811	2765.875
1443.951	2750.875
1447.089	2782.875
1450.224	2764.20833
1453.357	2763.20833
1456.488	2712.54167
1459.617	2673.875
1462.743	2633.54167
1465.867	2576.20833
1468.989	2523.20833
1472.108	2489.20833
1475.225	2421.20833
1478.34	2400.20833
1481.453	2415.54167
1484.563	2418.875
1487.671	2480.20833
1490.776	2476.20833
1493.88	2536.20833
1496.981	2565.875
1500.08	2599.20833
1503.176	2632.875
1506.271	2658.875
1509.363	2687.54167
1512.452	2724.20833
1515.54	2743.875
1518.625	2785.20833
1521.708	2853.875
1524.789	2945.875
1527.867	3052.20833
1530.944	3213.54167
1534.018	3375.875
1537.089	3490.875
1540.159	3539.20833
1543.226	3528.20833
1546.291	3473.875
1549.354	3399.54167
1552.415	3295.54167
1555.473	3232.20833
1558.529	3191.20833
1561.583	3161.54167
1564.634	3141.54167
1567.684	3123.54167
1570.731	3138.54167
1573.776	3182.20833
1576.819	3211.20833
1579.859	3262.20833
1582.898	3284.54167
1585.934	3327.875
1588.968	3320.875
1591.999	3328.875
1595.029	3337.20833
1598.056	3334.54167
1601.081	3363.20833
1604.104	3366.875
1607.125	3328.54167
1610.144	3240.875
1613.16	3154.20833
1616.174	3077.875
1619.186	3018.875
1622.196	2896.54167
1625.203	2846.54167
1628.209	2794.20833
1631.212	2756.54167
1634.213	2723.20833
1637.212	2706.875
1640.209	2698.20833
1643.203	2629.20833
1646.196	2535.875
1649.186	2451.20833
1652.174	2395.54167
1655.16	2298.20833
1658.144	2235.54167
1661.125	2137.54167
1664.105	2045.875
1667.082	1963.54167
1670.057	1860.875
1673.03	1751.54167
1676.001	1642.20833
1678.97	1525.875
1681.937	1443.20833
1684.901	1355.54167
1687.863	1308.20833
1690.824	1238.20833
1693.782	1227.54167
1696.738	1170.875
1699.692	1135.20833
1702.643	1114.54167
1705.593	1100.875
1708.54	1099.20833
1711.486	1094.875
1714.429	1061.54167
1717.37	1067.54167
1720.309	1045.54167
1723.246	1037.20833
1726.181	1022.20833
1729.113	1029.875
1732.044	1000.20833
1734.972	1001.54167
1737.899	993.54167
1740.823	1005.54167
1743.745	966.875
1746.665	945.875
1749.583	945.54167
1752.499	918.875
1755.413	915.20833
1758.325	896.54167
1761.235	890.54167
1764.142	879.54167
1767.048	856.875
1769.951	859.875
1772.852	867.20833
1775.752	861.875
1778.649	854.875
1781.544	859.20833
1784.437	831.875
1787.328	837.54167
1790.217	833.54167
1793.104	812.20833
1795.989	821.20833
1798.872	813.875
1801.753	823.54167
1804.631	815.20833
1807.508	824.54167
1810.383	814.54167
1813.255	814.875
1816.126	796.875
1818.994	803.20833
1821.861	782.875
1824.725	788.875
1827.587	794.20833
1830.448	781.54167
1833.306	775.875
1836.162	772.54167
1839.017	772.20833
1841.869	768.20833
1844.719	763.54167
1847.567	749.54167
1850.414	753.54167
1853.258	751.20833
1856.1	765.20833
1858.94	760.54167
1861.778	752.54167
1864.614	751.20833
1867.448	733.54167
1870.28	735.20833
1873.111	753.20833
1875.939	735.20833
1878.765	758.54167
1881.589	730.54167
1884.411	741.20833
1887.231	746.54167
1890.049	729.54167
1892.865	738.875
1895.68	733.20833
1898.492	738.54167
1901.302	727.20833
1904.11	725.54167
1906.916	725.54167
1909.721	709.875
1912.523	710.54167
1915.323	700.20833
1918.122	712.20833
1920.918	709.20833
1923.712	704.54167
1926.505	693.20833
1929.295	701.20833
1932.084	714.20833
1934.87	712.54167
1937.655	701.54167
1940.438	698.875
1943.218	696.875
1945.997	696.875
1948.774	711.875
1951.549	711.54167
1954.322	689.875
1957.093	680.20833
1959.862	688.875
1962.629	682.54167
1965.394	669.875
1968.157	664.20833
1970.918	669.54167
1973.678	662.20833
1976.435	673.20833
1979.19	672.20833
1981.944	656.875
1984.696	665.20833
1987.445	645.20833
1990.193	651.875
1992.939	670.20833
1995.683	657.54167
1998.425	642.20833
2001.165	676.54167
2003.903	639.54167
2006.639	648.20833
2009.374	653.54167
2012.106	647.875
2014.837	628.54167
2017.566	653.20833
2020.292	649.20833
2023.017	648.54167
2025.74	649.875
2028.461	640.875
2031.18	634.20833
2033.898	631.20833
2036.613	641.54167
2039.327	645.54167
2042.038	629.875
2044.748	615.20833
2047.456	633.54167
2050.162	624.20833
2052.866	625.54167
2055.568	638.54167
2058.268	618.875
2060.967	631.54167
2063.663	611.54167
2066.358	613.875
2069.051	616.20833
2071.742	618.875
2074.431	620.20833
2077.118	608.20833
2079.804	610.20833
2082.487	610.875
2085.169	629.54167
2087.849	627.54167
2090.527	624.20833
2093.203	629.54167
2095.877	628.875
2098.55	621.875
2101.22	646.875
2103.889	651.20833
2106.556	648.20833
2109.221	666.54167
2111.884	672.20833
2114.546	718.20833
2117.205	756.875
2119.863	805.875
2122.519	836.54167
2125.173	894.54167
2127.825	935.54167
2130.475	939.54167
2133.124	898.20833
2135.771	866.20833
2138.416	833.875
2141.059	775.54167
2143.7	750.20833
2146.339	723.20833
2148.977	672.20833
2151.613	675.875
2154.247	662.20833
2156.879	640.54167
2159.51	619.875
2162.138	612.54167
2164.765	628.20833
2167.39	591.875
2170.013	611.20833
2172.634	614.20833
2175.254	600.875
2177.872	634.54167
2180.488	585.20833
2183.102	605.20833
2185.714	581.20833
2188.325	568.875
2190.934	572.20833
2193.541	583.875
2196.146	575.875
2198.75	556.54167
2201.351	560.20833
2203.951	557.875
2206.549	566.875
2209.146	553.54167
2211.74	550.20833
2214.333	562.875
2216.924	544.54167
2219.514	557.20833
2222.101	537.54167
2224.687	563.54167
2227.271	547.875
2229.853	544.20833
2232.433	533.20833
2235.012	552.54167
2237.589	548.20833
2240.164	553.54167
2242.738	531.54167
2245.309	531.54167
2247.879	543.875
2250.448	542.20833
2253.014	523.20833
2255.579	507.20833
2258.142	516.54167
2260.703	521.875
2263.262	517.875
2265.82	516.54167
2268.376	518.875
2270.93	499.20833
2273.483	506.875
2276.033	505.875
2278.583	502.875
2281.13	505.875
2283.675	496.20833
2286.219	507.54167
2288.761	510.875
2291.302	499.20833
2293.841	518.20833
2296.377	491.54167
2298.913	500.54167
2301.446	505.875
2303.978	499.20833
2306.508	496.875
2309.037	492.875
2311.563	502.20833
2314.088	504.20833
2316.612	482.20833
2319.133	502.20833
2321.653	501.20833
2324.171	487.20833
2326.688	504.20833
2329.202	481.875
2331.715	492.54167
2334.227	495.54167
2336.736	492.54167
2339.244	482.875
2341.751	482.875
2344.255	493.54167
2346.758	486.875
2349.259	470.875
2351.759	486.875
2354.257	472.20833
2356.753	473.20833
2359.247	484.54167
2361.74	485.875
2364.231	488.20833
2366.721	486.875
2369.209	481.875
2371.695	480.20833
2374.179	478.54167
2376.662	472.20833
2379.143	494.20833
2381.622	484.875
2384.1	483.875
2386.576	480.875
2389.051	497.54167
2391.524	497.20833
2393.995	497.54167
2396.464	477.20833
2398.932	478.20833
2401.398	480.875
2403.863	474.875
2406.325	474.875
2408.787	476.875
2411.246	478.54167
2413.704	478.20833
2416.16	469.20833
2418.615	488.54167
2421.068	484.54167
2423.519	484.875
2425.969	468.54167
2428.417	488.875
2430.863	500.875
2433.308	488.875
2435.751	485.54167
2438.193	482.54167
2440.633	485.54167
2443.071	483.20833
2445.508	481.54167
2447.943	477.20833
2450.376	469.875
2452.808	472.20833
2455.238	469.54167
2457.667	509.20833
2460.093	476.54167
2462.519	470.875
2464.942	480.20833
2467.365	479.20833
2469.785	486.20833
2472.204	468.875
2474.621	471.54167
2477.037	491.54167
2479.451	467.875
2481.863	462.875
2484.274	477.54167
2486.683	478.875
2489.091	489.20833
2491.497	482.54167
2493.901	486.20833
2496.304	478.20833
2498.705	492.54167
2501.105	472.20833
2503.503	501.20833
2505.899	466.54167
2508.294	493.875
2510.687	483.54167
2513.079	480.54167
2515.469	473.875
2517.858	478.54167
2520.245	480.54167
2522.63	477.875
2525.014	461.875
2527.396	469.20833
2529.776	457.875
2532.156	491.20833
2534.533	472.875
2536.909	468.875
2539.283	458.20833
2541.656	469.20833
2544.027	494.20833
2546.397	471.54167
2548.765	476.20833
2551.131	470.20833
2553.496	475.875
2555.86	490.20833
2558.221	483.54167
2560.582	476.875
2562.94	468.54167
2565.298	482.20833
2567.653	494.875
2570.007	465.20833
2572.36	489.20833
2574.711	482.54167
2577.06	497.54167
2579.408	491.54167
2581.754	488.20833
2584.099	496.54167
2586.442	493.54167
2588.784	499.20833
2591.124	481.875
2593.463	483.54167
2595.8	496.20833
2598.135	482.875
2600.469	492.54167
2602.802	496.54167
2605.133	502.54167
2607.462	485.20833
2609.79	482.20833
2612.116	500.20833
2614.441	500.875
2616.764	492.54167
2619.086	496.20833
2621.406	475.875
2623.725	508.54167
2626.042	503.54167
2628.358	490.20833
2630.672	497.54167
2632.985	517.875
2635.296	518.20833
2637.606	506.54167
2639.914	490.20833
2642.22	500.54167
2644.525	508.875
2646.829	508.875
2649.131	528.20833
2651.432	522.20833
2653.731	517.54167
2656.028	520.20833
2658.324	535.54167
2660.619	518.875
2662.912	524.54167
2665.204	517.54167
2667.494	521.875
2669.782	520.54167
2672.07	532.875
2674.355	535.875
2676.639	521.875
2678.922	512.54167
2681.203	538.20833
2683.483	513.20833
2685.761	524.20833
2688.038	530.54167
2690.313	550.54167
2692.587	542.20833
2694.859	525.875
2697.13	537.20833
2699.399	552.54167
2701.667	560.54167
2703.933	544.20833
2706.198	558.20833
2708.461	561.54167
2710.723	550.54167
2712.984	565.54167
2715.243	562.20833
2717.5	549.875
2719.757	571.54167
2722.011	565.20833
2724.264	567.875
2726.516	576.875
2728.766	577.54167
2731.015	584.20833
2733.262	579.20833
2735.508	577.875
2737.753	580.54167
2739.996	570.20833
2742.237	566.20833
2744.477	569.875
2746.716	582.54167
2748.953	571.875
2751.189	583.875
2753.423	558.20833
2755.656	559.20833
2757.887	563.54167
2760.117	555.20833
2762.346	556.54167
2764.573	550.20833
2766.798	559.875
2769.022	556.20833
2771.245	572.54167
2773.467	564.54167
2775.686	572.875
2777.905	580.875
2780.122	591.875
2782.337	590.54167
2784.552	576.20833
2786.764	588.54167
2788.976	604.875
2791.186	598.54167
2793.394	598.875
2795.601	598.54167
2797.807	621.875
2800.011	624.20833
2802.214	629.54167
2804.415	619.875
2806.615	624.875
2808.814	632.20833
2811.011	639.20833
2813.206	626.20833
2815.401	649.20833
2817.594	648.54167
2819.785	659.20833
2821.975	650.20833
2824.164	649.54167
2826.351	681.875
2828.537	687.20833
2830.722	695.875
2832.905	695.54167
2835.086	726.54167
2837.267	747.20833
2839.445	766.54167
2841.623	772.54167
2843.799	801.54167
2845.974	817.54167
2848.147	850.54167
2850.319	865.54167
2852.489	897.54167
2854.659	901.875
2856.826	911.54167
2858.993	942.20833
2861.158	916.875
2863.321	915.875
2865.483	929.875
2867.644	931.875
2869.804	929.875
2871.962	923.875
2874.118	929.54167
2876.274	921.875
2878.428	923.20833
2880.58	913.20833
2882.731	910.54167
2884.881	909.54167
2887.03	914.54167
2889.177	914.54167
2891.322	937.54167
2893.467	932.54167
2895.61	922.54167
2897.751	954.20833
2899.892	933.54167
2902.03	936.20833
2904.168	946.20833
2906.304	959.54167
2908.439	971.54167
2910.572	959.54167
2912.704	966.875
2914.835	964.875
2916.965	973.54167
2919.093	991.54167
2921.219	941.875
2923.345	979.54167
2925.469	949.875
2927.591	935.54167
2929.712	927.875
2931.832	921.20833
2933.951	903.875
2936.068	906.54167
2938.184	871.875
2940.299	861.20833
2942.412	844.875
2944.524	811.875
2946.634	816.54167
2948.744	775.875
2950.851	789.20833
2952.958	766.54167
2955.063	764.54167
2957.167	751.875
2959.269	731.20833
2961.371	755.875
2963.471	715.20833
2965.569	729.875
2967.666	700.875
2969.762	698.54167
2971.857	692.54167
2973.95	671.875
2976.042	677.20833
2978.133	657.20833
2980.222	645.875
2982.31	639.875
2984.396	624.875
2986.482	624.20833
2988.566	609.54167
2990.648	616.20833
2992.73	609.875
2994.81	606.875
2996.889	612.875
2998.966	603.875
3001.042	615.875
3003.117	605.20833
3005.191	620.54167
3007.263	608.875
3009.334	592.20833
3011.403	602.20833
3013.472	586.875
3015.539	585.20833
3017.604	595.20833
3019.669	540.54167
3021.732	557.875
3023.794	563.875
3025.854	563.54167
3027.914	559.875
3029.971	566.20833
3032.028	561.20833
3034.083	558.20833
3036.137	540.875
3038.19	543.875
3040.242	526.20833
3042.292	508.20833
3044.341	507.875
3046.388	523.54167
3048.435	503.20833
3050.48	508.54167
3052.524	500.20833
3054.566	489.20833
3056.607	491.54167
3058.647	487.875
3060.686	463.875
3062.723	453.875
3064.759	440.875
3066.794	-0.45833
3068.828	3.875
3070.86	0.20833
