-0.839	484.75
3.438	574.75
7.711	167.75
11.981	61.41667
16.247	49.75
20.509	48.08333
24.768	43.41667
29.024	56.08333
33.276	41.75
37.524	52.75
41.769	48.75
46.01	34.08333
50.247	47.08333
54.481	60.08333
58.712	60.41667
62.939	45.75
67.162	66.75
71.382	57.08333
75.599	43.75
79.812	63.08333
84.021	82.75
88.227	59.41667
92.429	56.75
96.628	51.08333
100.823	70.75
105.015	73.41667
109.204	67.08333
113.388	72.41667
117.57	74.08333
121.748	86.41667
125.922	77.08333
130.093	99.08333
134.261	97.75
138.425	93.41667
142.585	138.08333
146.742	126.08333
150.896	156.75
155.046	190.08333
159.193	298.08333
163.336	508.08333
167.476	936.41667
171.613	1706.08333
175.746	2816.75
179.875	4182.41667
184.002	5459.75
188.124	6289.41667
192.244	6602.75
196.36	6529.41667
200.472	6334.08333
204.581	6120.75
208.687	5916.75
212.79	5828.41667
216.889	5789.75
220.984	5767.75
225.077	5766.08333
229.165	5731.41667
233.251	5722.75
237.333	5692.75
241.412	5642.41667
245.487	5549.08333
249.559	5505.75
253.628	5437.08333
257.694	5444.75
261.756	5410.41667
265.814	5295.08333
269.87	5143.75
273.922	4999.41667
277.97	4907.08333
282.016	4843.75
286.058	4845.75
290.097	4887.75
294.132	4946.75
298.164	4933.41667
302.193	4784.08333
306.219	4452.41667
310.241	4116.75
314.26	3835.08333
318.276	3612.41667
322.288	3437.08333
326.297	3329.75
330.303	3265.75
334.305	3171.41667
338.305	3142.08333
342.301	3090.41667
346.294	3088.08333
350.283	3078.75
354.269	3060.41667
358.252	3010.41667
362.232	3021.75
366.209	2982.75
370.182	2966.08333
374.152	2936.08333
378.119	2976.08333
382.083	2922.08333
386.043	2978.08333
390	2974.41667
393.954	2963.08333
397.905	2965.41667
401.852	2982.41667
405.797	2967.75
409.738	2977.08333
413.676	2995.75
417.61	3017.08333
421.542	2944.75
425.47	2880.41667
429.396	2872.75
433.318	2860.08333
437.236	2853.08333
441.152	2880.08333
445.065	2821.08333
448.974	2795.75
452.88	2813.75
456.783	2776.08333
460.683	2771.75
464.58	2772.08333
468.473	2775.75
472.364	2802.08333
476.251	2786.08333
480.135	2820.08333
484.016	2855.08333
487.894	2882.41667
491.769	2880.41667
495.641	2885.08333
499.509	2874.08333
503.375	2872.41667
507.237	2850.08333
511.096	2842.41667
514.952	2880.75
518.805	2914.08333
522.655	2918.08333
526.502	2867.08333
530.346	2868.41667
534.187	2855.08333
538.024	2856.41667
541.859	2870.08333
545.69	2904.08333
549.519	2885.41667
553.344	2861.75
557.166	2837.75
560.985	2800.75
564.802	2783.41667
568.615	2736.08333
572.425	2714.75
576.232	2684.41667
580.036	2674.41667
583.836	2702.41667
587.634	2686.75
591.429	2717.41667
595.221	2737.75
599.01	2754.41667
602.796	2798.08333
606.578	2809.08333
610.358	2796.41667
614.135	2777.41667
617.909	2769.08333
621.679	2763.41667
625.447	2752.41667
629.212	2732.75
632.973	2743.41667
636.732	2764.08333
640.488	2741.75
644.241	2711.75
647.991	2710.75
651.737	2740.41667
655.481	2697.41667
659.222	2704.41667
662.96	2714.08333
666.695	2746.75
670.427	2731.08333
674.156	2728.75
677.882	2724.08333
681.605	2719.75
685.325	2690.41667
689.043	2712.08333
692.757	2670.41667
696.468	2668.08333
700.177	2663.41667
703.882	2657.41667
707.585	2643.41667
711.284	2628.41667
714.981	2624.08333
718.675	2630.75
722.366	2637.08333
726.054	2599.41667
729.739	2616.41667
733.421	2648.08333
737.1	2610.75
740.777	2635.08333
744.45	2644.41667
748.121	2667.41667
751.789	2716.75
755.453	2692.41667
759.115	2718.75
762.774	2717.75
766.431	2724.08333
770.084	2742.75
773.734	2750.08333
777.382	2773.75
781.027	2782.75
784.669	2802.08333
788.308	2797.41667
791.944	2824.41667
795.577	2830.75
799.208	2854.41667
802.835	2873.41667
806.46	2901.41667
810.082	2917.75
813.701	2917.75
817.317	2924.08333
820.931	2933.08333
824.542	2927.08333
828.149	2883.08333
831.754	2850.08333
835.357	2849.75
838.956	2841.75
842.553	2845.08333
846.146	2833.08333
849.737	2771.41667
853.326	2777.08333
856.911	2749.41667
860.493	2795.41667
864.073	2833.41667
867.65	2896.41667
871.225	2882.75
874.796	2839.75
878.365	2857.41667
881.931	2860.75
885.494	2884.41667
889.054	2882.08333
892.612	2862.08333
896.166	2834.41667
899.719	2820.75
903.268	2788.08333
906.814	2782.08333
910.358	2759.08333
913.899	2759.08333
917.438	2760.41667
920.973	2724.75
924.506	2778.41667
928.036	2822.75
931.564	2856.41667
935.088	2889.08333
938.61	2879.41667
942.129	2894.41667
945.646	2959.08333
949.16	3012.75
952.671	3044.41667
956.179	3071.41667
959.685	3045.75
963.188	3067.75
966.688	3062.41667
970.185	2965.41667
973.68	2884.75
977.173	2830.75
980.662	2817.08333
984.149	2824.08333
987.633	2804.08333
991.114	2823.08333
994.593	2884.75
998.069	2950.75
1001.542	3035.41667
1005.013	2991.41667
1008.481	2817.41667
1011.947	2765.41667
1015.409	2757.75
1018.869	2779.08333
1022.327	2768.08333
1025.782	2734.08333
1029.234	2739.08333
1032.683	2689.75
1036.13	2617.08333
1039.574	2556.08333
1043.016	2483.08333
1046.455	2415.75
1049.891	2414.75
1053.325	2408.08333
1056.756	2428.75
1060.184	2432.41667
1063.61	2448.08333
1067.033	2451.75
1070.454	2462.08333
1073.872	2486.41667
1077.287	2493.41667
1080.7	2490.75
1084.11	2480.08333
1087.517	2477.75
1090.922	2415.75
1094.325	2404.41667
1097.724	2367.41667
1101.122	2368.08333
1104.516	2376.41667
1107.908	2368.08333
1111.298	2372.75
1114.684	2406.41667
1118.069	2438.41667
1121.45	2478.08333
1124.83	2448.08333
1128.206	2484.08333
1131.58	2522.08333
1134.951	2548.75
1138.32	2630.75
1141.687	2696.75
1145.05	2746.08333
1148.412	2738.75
1151.77	2746.75
1155.126	2710.75
1158.48	2688.41667
1161.831	2684.41667
1165.18	2697.41667
1168.525	2738.75
1171.869	2775.41667
1175.21	2765.41667
1178.548	2814.41667
1181.884	2823.08333
1185.217	2867.08333
1188.548	2910.41667
1191.877	2949.08333
1195.202	3020.75
1198.526	3101.08333
1201.846	3125.41667
1205.165	3126.08333
1208.48	3137.41667
1211.794	3123.75
1215.104	3128.08333
1218.413	3127.08333
1221.719	3129.08333
1225.022	3073.08333
1228.323	3016.75
1231.621	3006.41667
1234.917	3003.08333
1238.21	3013.75
1241.501	2951.08333
1244.79	2947.41667
1248.076	2959.41667
1251.359	3005.75
1254.64	3043.41667
1257.919	3054.75
1261.195	3100.08333
1264.468	3146.41667
1267.74	3201.08333
1271.008	3215.08333
1274.275	3209.41667
1277.538	3177.75
1280.8	3178.08333
1284.059	3149.41667
1287.315	3194.41667
1290.569	3229.41667
1293.821	3226.41667
1297.07	3225.08333
1300.317	3235.75
1303.562	3222.41667
1306.803	3193.41667
1310.043	3156.75
1313.28	3140.75
1316.515	3126.41667
1319.747	3135.41667
1322.977	3102.41667
1326.204	3082.41667
1329.429	3076.08333
1332.652	3071.08333
1335.872	3047.08333
1339.09	3025.75
1342.306	3005.75
1345.519	2989.08333
1348.729	2964.75
1351.938	2973.08333
1355.144	2912.75
1358.347	2878.75
1361.548	2851.75
1364.747	2852.08333
1367.944	2846.41667
1371.138	2800.75
1374.329	2810.41667
1377.518	2829.41667
1380.705	2855.41667
1383.89	2833.75
1387.072	2764.75
1390.252	2658.75
1393.429	2591.08333
1396.605	2509.75
1399.777	2440.75
1402.948	2422.75
1406.116	2402.41667
1409.282	2408.08333
1412.445	2373.75
1415.606	2418.41667
1418.765	2454.41667
1421.921	2464.08333
1425.075	2528.41667
1428.227	2600.75
1431.376	2709.75
1434.524	2821.41667
1437.668	2870.75
1440.811	2897.08333
1443.951	2921.41667
1447.089	2935.41667
1450.224	2927.08333
1453.357	2923.08333
1456.488	2883.41667
1459.617	2855.75
1462.743	2812.41667
1465.867	2736.75
1468.989	2718.08333
1472.108	2692.08333
1475.225	2623.41667
1478.34	2577.41667
1481.453	2596.41667
1484.563	2582.41667
1487.671	2615.41667
1490.776	2633.08333
1493.88	2680.08333
1496.981	2686.75
1500.08	2721.41667
1503.176	2748.41667
1506.271	2795.41667
1509.363	2835.41667
1512.452	2846.41667
1515.54	2891.41667
1518.625	2909.41667
1521.708	3003.08333
1524.789	3075.75
1527.867	3186.41667
1530.944	3293.08333
1534.018	3441.41667
1537.089	3559.75
1540.159	3582.08333
1543.226	3594.41667
1546.291	3518.75
1549.354	3434.75
1552.415	3358.75
1555.473	3304.41667
1558.529	3215.08333
1561.583	3174.41667
1564.634	3176.75
1567.684	3150.75
1570.731	3181.75
1573.776	3205.08333
1576.819	3244.41667
1579.859	3301.08333
1582.898	3337.75
1585.934	3365.41667
1588.968	3380.08333
1591.999	3374.75
1595.029	3372.08333
1598.056	3389.41667
1601.081	3409.41667
1604.104	3405.08333
1607.125	3372.08333
1610.144	3324.08333
1613.16	3235.41667
1616.174	3191.41667
1619.186	3128.75
1622.196	3060.41667
1625.203	3012.75
1628.209	2971.41667
1631.212	2960.08333
1634.213	2972.41667
1637.212	2993.08333
1640.209	2972.75
1643.203	2924.75
1646.196	2820.08333
1649.186	2690.41667
1652.174	2603.75
1655.16	2524.41667
1658.144	2479.75
1661.125	2369.41667
1664.105	2270.75
1667.082	2152.08333
1670.057	2059.75
1673.03	1937.75
1676.001	1795.41667
1678.97	1709.75
1681.937	1599.08333
1684.901	1522.41667
1687.863	1481.41667
1690.824	1420.75
1693.782	1400.08333
1696.738	1326.41667
1699.692	1323.75
1702.643	1285.75
1705.593	1265.41667
1708.54	1251.41667
1711.486	1261.41667
1714.429	1205.75
1717.37	1225.08333
1720.309	1201.75
1723.246	1214.75
1726.181	1188.41667
1729.113	1176.75
1732.044	1160.41667
1734.972	1146.41667
1737.899	1190.41667
1740.823	1165.08333
1743.745	1168.75
1746.665	1119.41667
1749.583	1116.08333
1752.499	1097.41667
1755.413	1099.08333
1758.325	1061.75
1761.235	1064.08333
1764.142	1044.41667
1767.048	1029.08333
1769.951	1043.08333
1772.852	1038.08333
1775.752	1040.41667
1778.649	1074.41667
1781.544	1043.08333
1784.437	990.41667
1787.328	1006.75
1790.217	997.08333
1793.104	968.41667
1795.989	968.41667
1798.872	960.08333
1801.753	989.08333
1804.631	976.08333
1807.508	974.75
1810.383	979.08333
1813.255	959.08333
1816.126	964.41667
1818.994	956.75
1821.861	945.41667
1824.725	951.75
1827.587	958.41667
1830.448	950.08333
1833.306	908.08333
1836.162	933.75
1839.017	920.41667
1841.869	916.75
1844.719	916.75
1847.567	906.75
1850.414	886.75
1853.258	904.08333
1856.1	905.75
1858.94	907.41667
1861.778	899.75
1864.614	883.08333
1867.448	897.41667
1870.28	886.08333
1873.111	903.08333
1875.939	891.41667
1878.765	894.08333
1881.589	877.08333
1884.411	878.41667
1887.231	890.41667
1890.049	871.08333
1892.865	890.41667
1895.68	876.08333
1898.492	873.75
1901.302	866.08333
1904.11	865.41667
1906.916	846.08333
1909.721	848.08333
1912.523	834.41667
1915.323	844.41667
1918.122	817.75
1920.918	839.75
1923.712	823.75
1926.505	822.75
1929.295	815.75
1932.084	827.75
1934.87	831.41667
1937.655	817.08333
1940.438	814.41667
1943.218	814.41667
1945.997	825.08333
1948.774	831.75
1951.549	820.41667
1954.322	819.41667
1957.093	805.75
1959.862	809.08333
1962.629	793.41667
1965.394	796.41667
1968.157	790.41667
1970.918	782.08333
1973.678	776.41667
1976.435	784.41667
1979.19	771.08333
1981.944	773.75
1984.696	766.41667
1987.445	759.08333
1990.193	770.08333
1992.939	778.75
1995.683	767.41667
1998.425	754.08333
2001.165	783.41667
2003.903	755.41667
2006.639	744.08333
2009.374	768.75
2012.106	750.08333
2014.837	742.08333
2017.566	753.41667
2020.292	751.75
2023.017	752.75
2025.74	744.41667
2028.461	749.08333
2031.18	740.08333
2033.898	725.41667
2036.613	743.08333
2039.327	727.75
2042.038	726.41667
2044.748	719.41667
2047.456	731.75
2050.162	710.41667
2052.866	718.08333
2055.568	719.41667
2058.268	718.08333
2060.967	713.08333
2063.663	701.75
2066.358	697.08333
2069.051	702.41667
2071.742	706.75
2074.431	709.75
2077.118	707.08333
2079.804	687.08333
2082.487	688.75
2085.169	711.08333
2087.849	711.75
2090.527	690.41667
2093.203	692.08333
2095.877	699.75
2098.55	712.75
2101.22	714.75
2103.889	710.08333
2106.556	708.75
2109.221	719.41667
2111.884	716.08333
2114.546	763.41667
2117.205	799.41667
2119.863	846.41667
2122.519	854.75
2125.173	920.41667
2127.825	958.41667
2130.475	971.08333
2133.124	928.08333
2135.771	903.08333
2138.416	882.75
2141.059	834.41667
2143.7	817.41667
2146.339	761.41667
2148.977	721.75
2151.613	722.75
2154.247	717.41667
2156.879	696.41667
2159.51	674.41667
2162.138	671.75
2164.765	674.75
2167.39	649.41667
2170.013	661.41667
2172.634	662.41667
2175.254	646.75
2177.872	679.08333
2180.488	638.75
2183.102	627.75
2185.714	633.41667
2188.325	605.41667
2190.934	619.75
2193.541	628.41667
2196.146	608.41667
2198.75	604.75
2201.351	598.41667
2203.951	592.41667
2206.549	608.75
2209.146	591.75
2211.74	597.08333
2214.333	591.08333
2216.924	572.75
2219.514	595.75
2222.101	575.41667
2224.687	589.08333
2227.271	581.75
2229.853	569.08333
2232.433	562.75
2235.012	578.41667
2237.589	575.75
2240.164	582.08333
2242.738	563.08333
2245.309	556.41667
2247.879	568.08333
2250.448	575.41667
2253.014	551.41667
2255.579	538.41667
2258.142	549.41667
2260.703	531.75
2263.262	543.41667
2265.82	540.75
2268.376	537.41667
2270.93	520.08333
2273.483	518.75
2276.033	529.08333
2278.583	523.75
2281.13	522.08333
2283.675	513.08333
2286.219	516.08333
2288.761	514.41667
2291.302	517.08333
2293.841	523.75
2296.377	510.41667
2298.913	507.41667
2301.446	522.41667
2303.978	513.41667
2306.508	508.08333
2309.037	509.41667
2311.563	508.08333
2314.088	507.75
2316.612	485.41667
2319.133	508.75
2321.653	503.41667
2324.171	491.75
2326.688	509.41667
2329.202	493.08333
2331.715	487.75
2334.227	483.75
2336.736	493.41667
2339.244	475.41667
2341.751	480.41667
2344.255	492.75
2346.758	484.75
2349.259	463.41667
2351.759	477.75
2354.257	468.41667
2356.753	464.41667
2359.247	465.41667
2361.74	481.75
2364.231	473.41667
2366.721	474.08333
2369.209	465.08333
2371.695	475.08333
2374.179	464.41667
2376.662	453.75
2379.143	476.41667
2381.622	459.08333
2384.1	465.75
2386.576	465.41667
2389.051	468.41667
2391.524	471.75
2393.995	472.41667
2396.464	455.41667
2398.932	457.41667
2401.398	452.75
2403.863	453.75
2406.325	449.41667
2408.787	459.41667
2411.246	442.41667
2413.704	444.41667
2416.16	436.08333
2418.615	444.41667
2421.068	454.41667
2423.519	454.75
2425.969	436.75
2428.417	447.08333
2430.863	474.75
2433.308	449.75
2435.751	438.75
2438.193	445.08333
2440.633	441.08333
2443.071	454.08333
2445.508	434.08333
2447.943	428.75
2450.376	430.41667
2452.808	436.41667
2455.238	429.75
2457.667	468.75
2460.093	433.41667
2462.519	419.75
2464.942	429.41667
2467.365	434.41667
2469.785	438.41667
2472.204	421.41667
2474.621	414.75
2477.037	435.41667
2479.451	415.75
2481.863	408.08333
2484.274	418.08333
2486.683	419.75
2489.091	421.08333
2491.497	429.41667
2493.901	418.08333
2496.304	413.08333
2498.705	424.75
2501.105	423.41667
2503.503	437.75
2505.899	404.41667
2508.294	419.75
2510.687	417.08333
2513.079	413.08333
2515.469	406.41667
2517.858	415.75
2520.245	421.75
2522.63	414.08333
2525.014	398.75
2527.396	399.41667
2529.776	393.08333
2532.156	410.41667
2534.533	397.75
2536.909	386.41667
2539.283	385.08333
2541.656	394.08333
2544.027	411.75
2546.397	396.08333
2548.765	391.75
2551.131	394.08333
2553.496	391.08333
2555.86	404.75
2558.221	403.75
2560.582	400.41667
2562.94	390.08333
2565.298	394.75
2567.653	411.75
2570.007	385.41667
2572.36	408.75
2574.711	396.41667
2577.06	409.75
2579.408	398.75
2581.754	382.41667
2584.099	397.41667
2586.442	389.75
2588.784	398.08333
2591.124	392.75
2593.463	399.41667
2595.8	388.41667
2598.135	377.75
2600.469	378.08333
2602.802	393.41667
2605.133	394.08333
2607.462	372.41667
2609.79	373.08333
2612.116	387.08333
2614.441	390.75
2616.764	384.08333
2619.086	388.41667
2621.406	370.08333
2623.725	402.08333
2626.042	388.75
2628.358	377.08333
2630.672	375.41667
2632.985	402.08333
2635.296	383.08333
2637.606	388.41667
2639.914	372.08333
2642.22	383.75
2644.525	382.41667
2646.829	379.08333
2649.131	393.08333
2651.432	396.41667
2653.731	384.08333
2656.028	397.41667
2658.324	405.08333
2660.619	381.08333
2662.912	395.08333
2665.204	386.41667
2667.494	395.08333
2669.782	378.75
2672.07	394.08333
2674.355	394.75
2676.639	397.75
2678.922	382.41667
2681.203	385.08333
2683.483	381.41667
2685.761	376.75
2688.038	399.75
2690.313	401.75
2692.587	387.08333
2694.859	382.41667
2697.13	394.08333
2699.399	392.75
2701.667	411.08333
2703.933	405.08333
2706.198	410.75
2708.461	415.75
2710.723	414.41667
2712.984	405.41667
2715.243	409.08333
2717.5	393.75
2719.757	422.41667
2722.011	415.41667
2724.264	424.08333
2726.516	433.41667
2728.766	412.75
2731.015	418.75
2733.262	423.41667
2735.508	413.08333
2737.753	408.41667
2739.996	409.08333
2742.237	404.08333
2744.477	410.75
2746.716	413.08333
2748.953	405.75
2751.189	415.75
2753.423	400.75
2755.656	384.75
2757.887	395.75
2760.117	395.41667
2762.346	386.41667
2764.573	370.75
2766.798	390.41667
2769.022	386.41667
2771.245	398.08333
2773.467	391.08333
2775.686	399.08333
2777.905	403.41667
2780.122	398.75
2782.337	408.75
2784.552	399.75
2786.764	406.41667
2788.976	399.75
2791.186	400.75
2793.394	425.41667
2795.601	422.41667
2797.807	429.75
2800.011	426.41667
2802.214	438.08333
2804.415	430.41667
2806.615	429.08333
2808.814	436.08333
2811.011	443.08333
2813.206	440.08333
2815.401	461.41667
2817.594	456.75
2819.785	467.75
2821.975	460.08333
2824.164	460.41667
2826.351	476.41667
2828.537	497.75
2830.722	508.08333
2832.905	498.41667
2835.086	529.41667
2837.267	557.75
2839.445	563.08333
2841.623	579.41667
2843.799	605.08333
2845.974	620.41667
2848.147	646.08333
2850.319	672.08333
2852.489	706.75
2854.659	721.41667
2856.826	715.08333
2858.993	743.75
2861.158	737.41667
2863.321	741.08333
2865.483	751.08333
2867.644	738.41667
2869.804	749.08333
2871.962	754.41667
2874.118	741.41667
2876.274	764.75
2878.428	750.08333
2880.58	755.41667
2882.731	738.41667
2884.881	736.75
2887.03	749.08333
2889.177	747.08333
2891.322	749.08333
2893.467	768.75
2895.61	738.75
2897.751	773.41667
2899.892	762.08333
2902.03	766.75
2904.168	772.08333
2906.304	772.08333
2908.439	791.75
2910.572	775.41667
2912.704	801.08333
2914.835	789.41667
2916.965	787.41667
2919.093	799.75
2921.219	771.41667
2923.345	801.41667
2925.469	767.41667
2927.591	773.75
2929.712	742.41667
2931.832	739.08333
2933.951	733.75
2936.068	721.08333
2938.184	706.75
2940.299	677.75
2942.412	662.08333
2944.524	629.08333
2946.634	636.08333
2948.744	593.75
2950.851	603.75
2952.958	571.75
2955.063	569.75
2957.167	562.75
2959.269	528.08333
2961.371	561.41667
2963.471	511.75
2965.569	528.41667
2967.666	500.08333
2969.762	487.41667
2971.857	483.08333
2973.95	461.41667
2976.042	462.41667
2978.133	452.41667
2980.222	440.75
2982.31	421.08333
2984.396	405.75
2986.482	410.08333
2988.566	408.41667
2990.648	411.08333
2992.73	394.08333
2994.81	391.75
2996.889	395.41667
2998.966	386.75
3001.042	391.41667
3003.117	387.75
3005.191	392.08333
3007.263	389.41667
3009.334	373.75
3011.403	386.08333
3013.472	359.75
3015.539	364.75
3017.604	381.08333
3019.669	340.75
3021.732	347.75
3023.794	348.41667
3025.854	340.41667
3027.914	342.08333
3029.971	349.75
3032.028	331.75
3034.083	339.08333
3036.137	335.75
3038.19	319.41667
3040.242	316.75
3042.292	303.75
3044.341	309.08333
3046.388	318.75
3048.435	305.41667
3050.48	322.75
3052.524	313.08333
3054.566	298.41667
3056.607	305.41667
3058.647	293.75
3060.686	277.08333
3062.723	267.41667
3064.759	258.41667
3066.794	-0.58333
3068.828	0.41667
3070.86	2.08333
