-0.839	144.54167
3.438	162.875
7.711	66.20833
11.981	44.20833
16.247	31.54167
20.509	40.54167
24.768	34.875
29.024	43.20833
33.276	30.20833
37.524	44.54167
41.769	32.54167
46.01	29.54167
50.247	46.54167
54.481	50.54167
58.712	51.54167
62.939	37.20833
67.162	55.20833
71.382	45.875
75.599	38.54167
79.812	43.54167
84.021	65.54167
88.227	40.54167
92.429	50.54167
96.628	36.875
100.823	48.54167
105.015	52.875
109.204	46.875
113.388	58.875
117.57	43.875
121.748	60.54167
125.922	46.875
130.093	66.54167
134.261	66.20833
138.425	54.875
142.585	85.20833
146.742	67.54167
150.896	80.54167
155.046	79.54167
159.193	113.20833
163.336	163.54167
167.476	283.875
171.613	508.875
175.746	826.54167
179.875	1203.54167
184.002	1568.875
188.124	1854.20833
192.244	1931.54167
196.36	1950.875
200.472	1932.54167
204.581	1887.54167
208.687	1842.54167
212.79	1837.875
216.889	1865.54167
220.984	1894.20833
225.077	1898.54167
229.165	1894.20833
233.251	1903.875
237.333	1890.20833
241.412	1881.20833
245.487	1862.875
249.559	1846.54167
253.628	1833.54167
257.694	1807.20833
261.756	1814.54167
265.814	1781.54167
269.87	1723.20833
273.922	1689.54167
277.97	1666.20833
282.016	1670.20833
286.058	1664.875
290.097	1691.54167
294.132	1723.875
298.164	1716.54167
302.193	1633.875
306.219	1533.54167
310.241	1434.54167
314.26	1342.875
318.276	1268.54167
322.288	1237.20833
326.297	1193.54167
330.303	1173.20833
334.305	1150.20833
338.305	1131.20833
342.301	1125.54167
346.294	1119.54167
350.283	1101.54167
354.269	1100.875
358.252	1083.20833
362.232	1111.875
366.209	1093.20833
370.182	1079.20833
374.152	1088.54167
378.119	1094.20833
382.083	1088.20833
386.043	1088.20833
390	1073.54167
393.954	1096.20833
397.905	1079.20833
401.852	1103.54167
405.797	1077.54167
409.738	1082.20833
413.676	1091.875
417.61	1094.20833
421.542	1086.20833
425.47	1065.54167
429.396	1052.875
433.318	1042.54167
437.236	1054.875
441.152	1084.875
445.065	1040.20833
448.974	1058.54167
452.88	1026.20833
456.783	1030.54167
460.683	1032.54167
464.58	1036.20833
468.473	1046.20833
472.364	1043.20833
476.251	1040.54167
480.135	1055.875
484.016	1056.20833
487.894	1060.875
491.769	1076.54167
495.641	1074.20833
499.509	1068.20833
503.375	1065.54167
507.237	1062.20833
511.096	1070.875
514.952	1062.54167
518.805	1065.54167
522.655	1070.875
526.502	1053.20833
530.346	1062.20833
534.187	1071.875
538.024	1037.20833
541.859	1048.20833
545.69	1081.875
549.519	1056.20833
553.344	1063.875
557.166	1042.20833
560.985	1033.54167
564.802	1030.20833
568.615	1016.875
572.425	1010.20833
576.232	999.875
580.036	1005.875
583.836	1017.875
587.634	1021.875
591.429	1004.20833
595.221	1032.875
599.01	1034.20833
602.796	1040.875
606.578	1030.20833
610.358	1052.20833
614.135	1020.20833
617.909	1027.875
621.679	1017.54167
625.447	1009.20833
629.212	1014.20833
632.973	1027.875
636.732	1005.54167
640.488	1029.54167
644.241	1004.875
647.991	1007.875
651.737	1016.20833
655.481	982.20833
659.222	1000.875
662.96	989.20833
666.695	996.54167
670.427	1013.54167
674.156	1016.875
677.882	1019.20833
681.605	1006.54167
685.325	986.875
689.043	1020.20833
692.757	989.875
696.468	999.875
700.177	998.54167
703.882	988.54167
707.585	980.875
711.284	982.20833
714.981	982.20833
718.675	967.54167
722.366	990.54167
726.054	972.20833
729.739	966.875
733.421	980.54167
737.1	979.875
740.777	983.875
744.45	983.54167
748.121	982.20833
751.789	1007.875
755.453	992.54167
759.115	1001.875
762.774	1008.54167
766.431	1005.875
770.084	1000.875
773.734	1011.20833
777.382	1037.54167
781.027	1041.20833
784.669	1025.54167
788.308	1031.20833
791.944	1025.875
795.577	1056.20833
799.208	1042.54167
802.835	1037.875
806.46	1054.20833
810.082	1058.20833
813.701	1042.20833
817.317	1063.54167
820.931	1059.54167
824.542	1066.20833
828.149	1037.875
831.754	1049.54167
835.357	1025.875
838.956	1047.875
842.553	1041.54167
846.146	1014.875
849.737	1021.54167
853.326	1016.875
856.911	1003.875
860.493	1029.875
864.073	1027.20833
867.65	1045.20833
871.225	1061.20833
874.796	1037.875
878.365	1047.875
881.931	1068.20833
885.494	1069.875
889.054	1061.20833
892.612	1060.875
896.166	1039.54167
899.719	1031.54167
903.268	1009.54167
906.814	1009.54167
910.358	1012.20833
913.899	986.875
917.438	995.20833
920.973	979.875
924.506	1007.54167
928.036	1020.20833
931.564	1034.54167
935.088	1049.20833
938.61	1020.875
942.129	1025.54167
945.646	1048.875
949.16	1064.54167
952.671	1064.54167
956.179	1088.20833
959.685	1058.20833
963.188	1077.20833
966.688	1065.20833
970.185	1033.20833
973.68	1005.20833
977.173	998.20833
980.662	994.20833
984.149	1008.20833
987.633	975.20833
991.114	1003.20833
994.593	1020.54167
998.069	1037.875
1001.542	1065.54167
1005.013	1054.20833
1008.481	989.54167
1011.947	980.875
1015.409	959.54167
1018.869	970.20833
1022.327	970.54167
1025.782	960.54167
1029.234	945.54167
1032.683	938.875
1036.13	927.54167
1039.574	884.54167
1043.016	873.54167
1046.455	848.20833
1049.891	843.20833
1053.325	878.54167
1056.756	850.54167
1060.184	858.875
1063.61	832.875
1067.033	863.20833
1070.454	853.20833
1073.872	877.20833
1077.287	848.20833
1080.7	845.54167
1084.11	849.54167
1087.517	856.875
1090.922	836.20833
1094.325	828.54167
1097.724	814.875
1101.122	826.875
1104.516	816.54167
1107.908	802.875
1111.298	827.875
1114.684	840.875
1118.069	842.20833
1121.45	852.54167
1124.83	839.20833
1128.206	851.875
1131.58	856.875
1134.951	878.875
1138.32	887.54167
1141.687	931.875
1145.05	938.875
1148.412	941.875
1151.77	923.875
1155.126	936.20833
1158.48	918.54167
1161.831	926.875
1165.18	920.875
1168.525	951.875
1171.869	957.875
1175.21	939.54167
1178.548	964.20833
1181.884	974.20833
1185.217	972.875
1188.548	1002.54167
1191.877	1021.54167
1195.202	1052.54167
1198.526	1071.54167
1201.846	1080.20833
1205.165	1069.20833
1208.48	1067.20833
1211.794	1064.54167
1215.104	1085.20833
1218.413	1075.20833
1221.719	1064.875
1225.022	1048.875
1228.323	1028.875
1231.621	1047.875
1234.917	1035.20833
1238.21	1051.54167
1241.501	1032.20833
1244.79	1006.20833
1248.076	1011.875
1251.359	1022.20833
1254.64	1074.875
1257.919	1045.54167
1261.195	1057.20833
1264.468	1069.54167
1267.74	1089.54167
1271.008	1076.54167
1274.275	1095.54167
1277.538	1072.875
1280.8	1082.875
1284.059	1066.20833
1287.315	1094.20833
1290.569	1078.875
1293.821	1100.54167
1297.07	1098.20833
1300.317	1104.20833
1303.562	1113.54167
1306.803	1093.54167
1310.043	1090.20833
1313.28	1077.875
1316.515	1082.875
1319.747	1073.54167
1322.977	1076.20833
1326.204	1052.875
1329.429	1043.54167
1332.652	1049.20833
1335.872	1040.875
1339.09	1016.875
1342.306	1028.875
1345.519	1018.54167
1348.729	1008.20833
1351.938	1019.875
1355.144	1006.875
1358.347	988.20833
1361.548	990.20833
1364.747	1002.54167
1367.944	970.875
1371.138	984.54167
1374.329	992.875
1377.518	985.875
1380.705	974.54167
1383.89	988.875
1387.072	964.20833
1390.252	937.20833
1393.429	912.20833
1396.605	883.875
1399.777	849.875
1402.948	849.875
1406.116	834.54167
1409.282	850.20833
1412.445	836.54167
1415.606	850.20833
1418.765	856.20833
1421.921	865.54167
1425.075	883.20833
1428.227	889.875
1431.376	937.875
1434.524	959.20833
1437.668	990.54167
1440.811	987.54167
1443.951	993.20833
1447.089	998.54167
1450.224	988.20833
1453.357	982.54167
1456.488	991.875
1459.617	971.54167
1462.743	953.875
1465.867	916.875
1468.989	932.875
1472.108	909.875
1475.225	898.20833
1478.34	883.54167
1481.453	875.875
1484.563	867.20833
1487.671	885.20833
1490.776	899.54167
1493.88	898.875
1496.981	912.54167
1500.08	918.54167
1503.176	941.875
1506.271	928.54167
1509.363	952.875
1512.452	950.54167
1515.54	953.875
1518.625	970.54167
1521.708	1000.20833
1524.789	1047.875
1527.867	1056.20833
1530.944	1112.54167
1534.018	1142.20833
1537.089	1197.875
1540.159	1222.20833
1543.226	1220.20833
1546.291	1187.875
1549.354	1179.875
1552.415	1151.54167
1555.473	1128.20833
1558.529	1094.54167
1561.583	1108.20833
1564.634	1074.20833
1567.684	1076.54167
1570.731	1082.20833
1573.776	1086.54167
1576.819	1099.54167
1579.859	1091.54167
1582.898	1119.54167
1585.934	1120.54167
1588.968	1124.20833
1591.999	1109.875
1595.029	1117.20833
1598.056	1120.54167
1601.081	1151.20833
1604.104	1143.54167
1607.125	1122.20833
1610.144	1094.20833
1613.16	1064.54167
1616.174	1047.875
1619.186	1023.54167
1622.196	1006.20833
1625.203	967.54167
1628.209	981.54167
1631.212	970.54167
1634.213	968.54167
1637.212	970.20833
1640.209	969.54167
1643.203	928.20833
1646.196	914.20833
1649.186	874.875
1652.174	870.20833
1655.16	840.20833
1658.144	836.875
1661.125	801.54167
1664.105	766.875
1667.082	743.20833
1670.057	700.20833
1673.03	661.54167
1676.001	636.875
1678.97	592.54167
1681.937	572.875
1684.901	539.54167
1687.863	516.54167
1690.824	495.875
1693.782	510.54167
1696.738	470.20833
1699.692	474.20833
1702.643	454.54167
1705.593	446.875
1708.54	452.54167
1711.486	459.20833
1714.429	442.20833
1717.37	444.875
1720.309	427.20833
1723.246	435.54167
1726.181	416.54167
1729.113	419.54167
1732.044	428.20833
1734.972	411.875
1737.899	437.20833
1740.823	424.875
1743.745	442.20833
1746.665	405.54167
1749.583	403.20833
1752.499	392.54167
1755.413	394.20833
1758.325	382.875
1761.235	394.20833
1764.142	365.875
1767.048	370.875
1769.951	372.20833
1772.852	366.20833
1775.752	382.54167
1778.649	376.54167
1781.544	383.20833
1784.437	354.875
1787.328	362.54167
1790.217	361.20833
1793.104	344.54167
1795.989	349.20833
1798.872	341.875
1801.753	370.875
1804.631	353.875
1807.508	360.54167
1810.383	358.54167
1813.255	351.54167
1816.126	345.875
1818.994	342.20833
1821.861	344.54167
1824.725	339.875
1827.587	339.54167
1830.448	342.20833
1833.306	335.20833
1836.162	349.875
1839.017	338.875
1841.869	344.54167
1844.719	336.20833
1847.567	320.54167
1850.414	314.54167
1853.258	321.54167
1856.1	336.54167
1858.94	336.54167
1861.778	324.54167
1864.614	320.54167
1867.448	327.54167
1870.28	308.20833
1873.111	335.875
1875.939	317.20833
1878.765	335.20833
1881.589	314.875
1884.411	317.875
1887.231	332.54167
1890.049	327.20833
1892.865	326.20833
1895.68	311.54167
1898.492	319.54167
1901.302	314.54167
1904.11	305.54167
1906.916	307.54167
1909.721	306.54167
1912.523	321.875
1915.323	297.54167
1918.122	300.875
1920.918	313.20833
1923.712	292.875
1926.505	307.20833
1929.295	281.875
1932.084	308.875
1934.87	307.20833
1937.655	301.54167
1940.438	297.875
1943.218	298.20833
1945.997	298.875
1948.774	304.875
1951.549	308.54167
1954.322	293.54167
1957.093	298.20833
1959.862	285.54167
1962.629	284.54167
1965.394	293.54167
1968.157	278.20833
1970.918	296.20833
1973.678	277.54167
1976.435	288.20833
1979.19	280.875
1981.944	278.20833
1984.696	283.875
1987.445	279.20833
1990.193	278.54167
1992.939	291.875
1995.683	286.54167
1998.425	268.20833
2001.165	295.54167
2003.903	266.54167
2006.639	276.20833
2009.374	274.54167
2012.106	276.875
2014.837	254.875
2017.566	283.875
2020.292	268.20833
2023.017	268.20833
2025.74	259.54167
2028.461	258.875
2031.18	273.20833
2033.898	259.54167
2036.613	267.875
2039.327	270.20833
2042.038	261.54167
2044.748	265.20833
2047.456	264.875
2050.162	252.54167
2052.866	253.54167
2055.568	269.54167
2058.268	253.875
2060.967	269.54167
2063.663	249.54167
2066.358	252.875
2069.051	249.54167
2071.742	254.20833
2074.431	266.20833
2077.118	254.20833
2079.804	249.875
2082.487	254.875
2085.169	266.54167
2087.849	273.54167
2090.527	246.875
2093.203	255.54167
2095.877	259.20833
2098.55	254.54167
2101.22	263.20833
2103.889	270.875
2106.556	256.54167
2109.221	275.20833
2111.884	267.875
2114.546	294.875
2117.205	303.875
2119.863	341.875
2122.519	338.875
2125.173	368.54167
2127.825	402.20833
2130.475	395.875
2133.124	371.875
2135.771	356.20833
2138.416	364.875
2141.059	328.875
2143.7	326.20833
2146.339	293.875
2148.977	271.54167
2151.613	283.875
2154.247	277.875
2156.879	274.20833
2159.51	258.875
2162.138	258.20833
2164.765	249.20833
2167.39	241.875
2170.013	256.54167
2172.634	254.875
2175.254	246.875
2177.872	277.875
2180.488	232.20833
2183.102	237.54167
2185.714	241.20833
2188.325	229.54167
2190.934	241.875
2193.541	236.875
2196.146	230.875
2198.75	213.20833
2201.351	221.54167
2203.951	207.875
2206.549	228.54167
2209.146	220.20833
2211.74	215.875
2214.333	224.54167
2216.924	209.20833
2219.514	206.54167
2222.101	210.54167
2224.687	227.875
2227.271	205.54167
2229.853	210.54167
2232.433	194.20833
2235.012	219.20833
2237.589	209.54167
2240.164	224.875
2242.738	213.875
2245.309	201.54167
2247.879	217.54167
2250.448	215.875
2253.014	198.20833
2255.579	192.54167
2258.142	202.875
2260.703	195.875
2263.262	197.20833
2265.82	184.875
2268.376	210.20833
2270.93	188.875
2273.483	188.54167
2276.033	197.875
2278.583	185.20833
2281.13	188.54167
2283.675	173.20833
2286.219	185.54167
2288.761	195.54167
2291.302	197.54167
2293.841	207.54167
2296.377	178.54167
2298.913	191.20833
2301.446	200.20833
2303.978	189.20833
2306.508	185.20833
2309.037	185.20833
2311.563	181.20833
2314.088	187.54167
2316.612	173.20833
2319.133	185.54167
2321.653	192.20833
2324.171	178.875
2326.688	197.20833
2329.202	186.20833
2331.715	182.20833
2334.227	179.875
2336.736	183.875
2339.244	174.54167
2341.751	167.54167
2344.255	188.54167
2346.758	180.20833
2349.259	170.20833
2351.759	178.20833
2354.257	167.20833
2356.753	175.20833
2359.247	170.54167
2361.74	167.54167
2364.231	172.875
2366.721	179.875
2369.209	170.875
2371.695	170.54167
2374.179	165.20833
2376.662	155.54167
2379.143	180.54167
2381.622	170.54167
2384.1	173.20833
2386.576	167.20833
2389.051	183.54167
2391.524	181.20833
2393.995	174.20833
2396.464	166.54167
2398.932	160.20833
2401.398	172.875
2403.863	163.54167
2406.325	162.54167
2408.787	169.20833
2411.246	171.20833
2413.704	165.875
2416.16	162.20833
2418.615	159.875
2421.068	162.54167
2423.519	160.875
2425.969	158.20833
2428.417	175.875
2430.863	184.54167
2433.308	166.20833
2435.751	162.54167
2438.193	162.20833
2440.633	163.875
2443.071	172.20833
2445.508	151.54167
2447.943	158.875
2450.376	157.875
2452.808	166.54167
2455.238	149.54167
2457.667	181.54167
2460.093	153.875
2462.519	147.54167
2464.942	148.54167
2467.365	157.20833
2469.785	162.54167
2472.204	152.54167
2474.621	152.20833
2477.037	165.54167
2479.451	148.54167
2481.863	146.875
2484.274	149.875
2486.683	154.20833
2489.091	165.20833
2491.497	158.20833
2493.901	161.20833
2496.304	152.20833
2498.705	155.54167
2501.105	155.54167
2503.503	173.54167
2505.899	144.875
2508.294	166.54167
2510.687	147.54167
2513.079	149.20833
2515.469	146.20833
2517.858	146.54167
2520.245	164.54167
2522.63	153.20833
2525.014	146.20833
2527.396	141.20833
2529.776	146.875
2532.156	155.875
2534.533	140.54167
2536.909	143.875
2539.283	132.54167
2541.656	136.54167
2544.027	158.54167
2546.397	145.875
2548.765	142.20833
2551.131	146.20833
2553.496	151.20833
2555.86	148.20833
2558.221	154.20833
2560.582	137.875
2562.94	128.20833
2565.298	145.875
2567.653	156.54167
2570.007	134.875
2572.36	148.20833
2574.711	134.54167
2577.06	153.54167
2579.408	141.875
2581.754	137.54167
2584.099	137.54167
2586.442	133.875
2588.784	149.20833
2591.124	137.54167
2593.463	135.54167
2595.8	140.875
2598.135	128.54167
2600.469	129.54167
2602.802	147.875
2605.133	149.54167
2607.462	133.875
2609.79	124.54167
2612.116	144.875
2614.441	137.54167
2616.764	145.54167
2619.086	140.20833
2621.406	134.875
2623.725	145.875
2626.042	133.875
2628.358	132.54167
2630.672	134.875
2632.985	144.875
2635.296	138.20833
2637.606	141.20833
2639.914	133.20833
2642.22	133.875
2644.525	137.20833
2646.829	134.20833
2649.131	147.875
2651.432	144.875
2653.731	131.875
2656.028	144.875
2658.324	137.875
2660.619	127.875
2662.912	144.54167
2665.204	125.20833
2667.494	140.20833
2669.782	125.875
2672.07	145.875
2674.355	147.875
2676.639	139.20833
2678.922	131.54167
2681.203	144.875
2683.483	131.20833
2685.761	125.54167
2688.038	145.20833
2690.313	147.875
2692.587	136.54167
2694.859	136.875
2697.13	131.875
2699.399	136.54167
2701.667	142.54167
2703.933	138.54167
2706.198	149.875
2708.461	145.20833
2710.723	150.20833
2712.984	144.54167
2715.243	152.20833
2717.5	141.875
2719.757	149.54167
2722.011	143.875
2724.264	148.875
2726.516	156.875
2728.766	133.20833
2731.015	143.875
2733.262	139.54167
2735.508	134.54167
2737.753	144.20833
2739.996	131.54167
2742.237	129.54167
2744.477	145.875
2746.716	154.875
2748.953	153.20833
2751.189	146.54167
2753.423	144.54167
2755.656	130.20833
2757.887	134.20833
2760.117	136.54167
2762.346	130.875
2764.573	124.54167
2766.798	129.20833
2769.022	134.54167
2771.245	133.875
2773.467	131.20833
2775.686	131.20833
2777.905	141.54167
2780.122	132.875
2782.337	135.20833
2784.552	130.875
2786.764	131.875
2788.976	130.875
2791.186	142.54167
2793.394	142.20833
2795.601	146.875
2797.807	150.54167
2800.011	142.875
2802.214	148.20833
2804.415	144.20833
2806.615	148.875
2808.814	143.20833
2811.011	150.875
2813.206	151.54167
2815.401	155.54167
2817.594	160.20833
2819.785	163.54167
2821.975	150.54167
2824.164	153.54167
2826.351	154.875
2828.537	168.875
2830.722	167.54167
2832.905	159.875
2835.086	171.54167
2837.267	180.875
2839.445	183.54167
2841.623	186.20833
2843.799	190.54167
2845.974	197.20833
2848.147	200.54167
2850.319	214.875
2852.489	222.20833
2854.659	221.875
2856.826	222.20833
2858.993	238.875
2861.158	224.20833
2863.321	230.20833
2865.483	241.875
2867.644	238.20833
2869.804	234.875
2871.962	226.54167
2874.118	235.54167
2876.274	238.20833
2878.428	234.20833
2880.58	238.54167
2882.731	228.20833
2884.881	233.54167
2887.03	241.54167
2889.177	231.875
2891.322	241.20833
2893.467	223.20833
2895.61	229.54167
2897.751	246.875
2899.892	232.54167
2902.03	237.875
2904.168	233.54167
2906.304	236.875
2908.439	255.54167
2910.572	228.54167
2912.704	241.20833
2914.835	240.54167
2916.965	245.875
2919.093	262.875
2921.219	225.875
2923.345	251.20833
2925.469	237.20833
2927.591	234.20833
2929.712	226.875
2931.832	233.20833
2933.951	226.20833
2936.068	218.54167
2938.184	210.54167
2940.299	210.54167
2942.412	210.875
2944.524	188.20833
2946.634	200.20833
2948.744	173.20833
2950.851	204.875
2952.958	175.54167
2955.063	181.20833
2957.167	169.54167
2959.269	164.54167
2961.371	186.20833
2963.471	160.54167
2965.569	171.20833
2967.666	149.54167
2969.762	151.20833
2971.857	150.20833
2973.95	139.875
2976.042	152.20833
2978.133	144.20833
2980.222	143.54167
2982.31	128.875
2984.396	113.54167
2986.482	121.875
2988.566	130.875
2990.648	130.875
2992.73	125.20833
2994.81	110.20833
2996.889	130.875
2998.966	119.54167
3001.042	133.20833
3003.117	112.54167
3005.191	120.20833
3007.263	125.20833
3009.334	120.54167
3011.403	123.875
3013.472	116.875
3015.539	129.875
3017.604	134.54167
3019.669	103.20833
3021.732	109.20833
3023.794	117.54167
3025.854	106.20833
3027.914	103.875
3029.971	104.54167
3032.028	106.875
3034.083	114.54167
3036.137	112.54167
3038.19	95.875
3040.242	99.54167
3042.292	91.875
3044.341	102.875
3046.388	114.875
3048.435	93.20833
3050.48	111.20833
3052.524	96.54167
3054.566	86.54167
3056.607	98.20833
3058.647	90.20833
3060.686	84.875
3062.723	76.54167
3064.759	81.20833
3066.794	2.54167
3068.828	-0.79167
3070.86	1.54167
