-0.839	144.875
3.438	166.54167
7.711	66.54167
11.981	43.54167
16.247	28.54167
20.509	37.20833
24.768	36.54167
29.024	46.54167
33.276	32.20833
37.524	42.875
41.769	28.875
46.01	29.54167
50.247	45.875
54.481	51.54167
58.712	52.54167
62.939	34.54167
67.162	55.54167
71.382	47.20833
75.599	35.54167
79.812	43.875
84.021	65.20833
88.227	42.54167
92.429	52.20833
96.628	37.54167
100.823	50.875
105.015	51.875
109.204	51.20833
113.388	56.20833
117.57	42.20833
121.748	55.875
125.922	51.54167
130.093	68.875
134.261	62.54167
138.425	51.54167
142.585	84.875
146.742	65.875
150.896	81.54167
155.046	74.20833
159.193	116.54167
163.336	166.54167
167.476	288.875
171.613	506.20833
175.746	827.20833
179.875	1209.875
184.002	1567.20833
188.124	1826.875
192.244	1936.20833
196.36	1921.54167
200.472	1923.54167
204.581	1903.875
208.687	1831.54167
212.79	1836.54167
216.889	1834.875
220.984	1861.54167
225.077	1870.875
229.165	1874.54167
233.251	1873.20833
237.333	1889.54167
241.412	1877.20833
245.487	1880.20833
249.559	1863.54167
253.628	1855.54167
257.694	1845.875
261.756	1854.875
265.814	1801.54167
269.87	1732.20833
273.922	1673.875
277.97	1665.875
282.016	1654.875
286.058	1649.20833
290.097	1694.54167
294.132	1706.20833
298.164	1710.54167
302.193	1636.54167
306.219	1539.875
310.241	1442.20833
314.26	1359.875
318.276	1281.20833
322.288	1259.54167
326.297	1201.875
330.303	1182.54167
334.305	1160.875
338.305	1158.54167
342.301	1140.20833
346.294	1137.54167
350.283	1121.875
354.269	1123.20833
358.252	1113.20833
362.232	1125.20833
366.209	1113.20833
370.182	1111.54167
374.152	1113.54167
378.119	1118.20833
382.083	1104.54167
386.043	1143.54167
390	1136.875
393.954	1175.54167
397.905	1201.54167
401.852	1202.54167
405.797	1157.20833
409.738	1296.20833
413.676	1425.20833
417.61	1544.875
421.542	1236.875
425.47	1107.20833
429.396	1087.20833
433.318	1082.875
437.236	1079.875
441.152	1113.20833
445.065	1058.875
448.974	1071.20833
452.88	1054.20833
456.783	1047.20833
460.683	1051.20833
464.58	1058.20833
468.473	1069.20833
472.364	1079.20833
476.251	1059.54167
480.135	1076.20833
484.016	1087.875
487.894	1091.20833
491.769	1084.54167
495.641	1101.20833
499.509	1102.20833
503.375	1091.54167
507.237	1076.54167
511.096	1080.20833
514.952	1084.875
518.805	1073.54167
522.655	1080.54167
526.502	1079.54167
530.346	1095.20833
534.187	1095.875
538.024	1082.20833
541.859	1078.54167
545.69	1109.20833
549.519	1093.875
553.344	1086.875
557.166	1078.875
560.985	1070.875
564.802	1067.875
568.615	1049.20833
572.425	1036.20833
576.232	1032.875
580.036	1020.875
583.836	1045.20833
587.634	1040.875
591.429	1040.54167
595.221	1066.20833
599.01	1056.54167
602.796	1046.20833
606.578	1058.20833
610.358	1066.54167
614.135	1051.54167
617.909	1066.875
621.679	1042.54167
625.447	1042.54167
629.212	1062.875
632.973	1065.20833
636.732	1071.54167
640.488	1087.875
644.241	1033.54167
647.991	1022.20833
651.737	1046.54167
655.481	1023.20833
659.222	1025.54167
662.96	1018.54167
666.695	1035.54167
670.427	1041.54167
674.156	1047.54167
677.882	1048.875
681.605	1038.54167
685.325	1023.54167
689.043	1044.54167
692.757	1019.54167
696.468	1022.875
700.177	1030.875
703.882	997.54167
707.585	992.875
711.284	1005.20833
714.981	995.20833
718.675	1004.875
722.366	1008.20833
726.054	995.20833
729.739	988.875
733.421	1009.20833
737.1	988.20833
740.777	1002.875
744.45	1006.875
748.121	997.875
751.789	1038.20833
755.453	1026.875
759.115	1022.20833
762.774	1024.875
766.431	1024.20833
770.084	1034.875
773.734	1017.54167
777.382	1039.875
781.027	1055.54167
784.669	1048.20833
788.308	1036.20833
791.944	1060.875
795.577	1057.875
799.208	1069.20833
802.835	1058.875
806.46	1063.54167
810.082	1070.20833
813.701	1065.54167
817.317	1084.20833
820.931	1086.875
824.542	1111.875
828.149	1064.20833
831.754	1043.20833
835.357	1055.20833
838.956	1075.20833
842.553	1124.54167
846.146	1148.875
849.737	1078.20833
853.326	1038.20833
856.911	1016.20833
860.493	1065.875
864.073	1110.875
867.65	1264.875
871.225	1233.20833
874.796	1069.875
878.365	1047.875
881.931	1067.875
885.494	1083.875
889.054	1071.54167
892.612	1068.54167
896.166	1053.20833
899.719	1039.54167
903.268	1027.20833
906.814	1023.54167
910.358	1011.54167
913.899	1007.875
917.438	1002.875
920.973	989.54167
924.506	994.875
928.036	1019.20833
931.564	1040.20833
935.088	1054.20833
938.61	1025.54167
942.129	1036.20833
945.646	1055.54167
949.16	1075.54167
952.671	1069.20833
956.179	1072.54167
959.685	1068.875
963.188	1094.20833
966.688	1078.20833
970.185	1032.20833
973.68	1012.875
977.173	1018.875
980.662	999.54167
984.149	1002.54167
987.633	973.875
991.114	1000.54167
994.593	1021.20833
998.069	1031.20833
1001.542	1087.20833
1005.013	1077.875
1008.481	996.20833
1011.947	970.875
1015.409	942.54167
1018.869	970.20833
1022.327	978.875
1025.782	948.54167
1029.234	950.875
1032.683	927.875
1036.13	922.875
1039.574	889.875
1043.016	868.20833
1046.455	863.54167
1049.891	849.20833
1053.325	862.875
1056.756	848.20833
1060.184	850.20833
1063.61	848.20833
1067.033	862.20833
1070.454	854.875
1073.872	874.20833
1077.287	857.54167
1080.7	864.20833
1084.11	850.20833
1087.517	857.54167
1090.922	851.54167
1094.325	825.20833
1097.724	817.875
1101.122	813.875
1104.516	820.20833
1107.908	808.20833
1111.298	819.20833
1114.684	827.20833
1118.069	828.54167
1121.45	861.20833
1124.83	840.20833
1128.206	848.875
1131.58	860.875
1134.951	884.54167
1138.32	894.875
1141.687	924.875
1145.05	939.875
1148.412	929.54167
1151.77	932.20833
1155.126	924.875
1158.48	916.20833
1161.831	918.875
1165.18	936.54167
1168.525	937.875
1171.869	944.875
1175.21	960.20833
1178.548	961.875
1181.884	969.54167
1185.217	978.54167
1188.548	983.54167
1191.877	1000.54167
1195.202	1048.875
1198.526	1074.875
1201.846	1071.20833
1205.165	1070.20833
1208.48	1074.54167
1211.794	1064.875
1215.104	1077.54167
1218.413	1063.20833
1221.719	1073.54167
1225.022	1036.20833
1228.323	1026.54167
1231.621	1051.54167
1234.917	1025.875
1238.21	1046.875
1241.501	1022.54167
1244.79	1001.875
1248.076	999.875
1251.359	1012.875
1254.64	1054.875
1257.919	1030.875
1261.195	1039.20833
1264.468	1078.875
1267.74	1100.875
1271.008	1073.875
1274.275	1060.875
1277.538	1064.20833
1280.8	1057.20833
1284.059	1052.875
1287.315	1081.20833
1290.569	1071.20833
1293.821	1082.54167
1297.07	1079.20833
1300.317	1088.875
1303.562	1074.20833
1306.803	1079.54167
1310.043	1068.20833
1313.28	1071.875
1316.515	1063.875
1319.747	1066.54167
1322.977	1052.20833
1326.204	1048.54167
1329.429	1024.875
1332.652	1033.54167
1335.872	1021.54167
1339.09	1015.54167
1342.306	1009.875
1345.519	997.875
1348.729	993.875
1351.938	994.20833
1355.144	981.875
1358.347	978.54167
1361.548	990.54167
1364.747	987.875
1367.944	945.20833
1371.138	960.20833
1374.329	953.20833
1377.518	970.875
1380.705	951.875
1383.89	963.875
1387.072	939.875
1390.252	912.20833
1393.429	875.875
1396.605	873.875
1399.777	829.54167
1402.948	840.20833
1406.116	816.54167
1409.282	822.20833
1412.445	827.54167
1415.606	838.875
1418.765	842.54167
1421.921	850.54167
1425.075	862.54167
1428.227	882.54167
1431.376	915.20833
1434.524	944.875
1437.668	966.875
1440.811	961.20833
1443.951	976.54167
1447.089	978.20833
1450.224	959.875
1453.357	969.20833
1456.488	962.20833
1459.617	945.54167
1462.743	934.20833
1465.867	910.20833
1468.989	907.20833
1472.108	890.20833
1475.225	880.20833
1478.34	867.20833
1481.453	853.875
1484.563	851.20833
1487.671	864.20833
1490.776	891.875
1493.88	897.20833
1496.981	911.875
1500.08	911.20833
1503.176	913.20833
1506.271	917.875
1509.363	919.54167
1512.452	941.54167
1515.54	943.20833
1518.625	962.54167
1521.708	981.54167
1524.789	1008.875
1527.867	1042.20833
1530.944	1084.20833
1534.018	1107.875
1537.089	1160.20833
1540.159	1167.54167
1543.226	1174.20833
1546.291	1161.54167
1549.354	1146.20833
1552.415	1113.54167
1555.473	1084.20833
1558.529	1093.54167
1561.583	1070.20833
1564.634	1052.54167
1567.684	1048.20833
1570.731	1056.20833
1573.776	1054.875
1576.819	1066.54167
1579.859	1075.875
1582.898	1094.875
1585.934	1110.20833
1588.968	1117.54167
1591.999	1099.20833
1595.029	1101.54167
1598.056	1117.20833
1601.081	1115.20833
1604.104	1123.875
1607.125	1108.54167
1610.144	1078.875
1613.16	1053.54167
1616.174	1026.54167
1619.186	1006.875
1622.196	998.875
1625.203	979.875
1628.209	972.54167
1631.212	958.54167
1634.213	967.875
1637.212	958.54167
1640.209	953.875
1643.203	928.54167
1646.196	916.20833
1649.186	863.54167
1652.174	852.875
1655.16	817.20833
1658.144	826.54167
1661.125	773.20833
1664.105	746.54167
1667.082	719.54167
1670.057	676.875
1673.03	638.875
1676.001	621.875
1678.97	576.875
1681.937	562.54167
1684.901	532.20833
1687.863	525.20833
1690.824	496.875
1693.782	499.54167
1696.738	460.54167
1699.692	473.20833
1702.643	452.875
1705.593	447.875
1708.54	441.875
1711.486	458.875
1714.429	432.54167
1717.37	437.20833
1720.309	429.875
1723.246	432.54167
1726.181	414.875
1729.113	417.54167
1732.044	415.875
1734.972	419.54167
1737.899	417.54167
1740.823	430.54167
1743.745	442.54167
1746.665	399.54167
1749.583	391.54167
1752.499	390.20833
1755.413	386.20833
1758.325	381.54167
1761.235	390.20833
1764.142	375.875
1767.048	369.20833
1769.951	372.20833
1772.852	386.20833
1775.752	464.54167
1778.649	533.54167
1781.544	441.20833
1784.437	371.54167
1787.328	364.20833
1790.217	360.20833
1793.104	343.54167
1795.989	361.20833
1798.872	342.875
1801.753	360.20833
1804.631	350.875
1807.508	362.54167
1810.383	349.875
1813.255	346.20833
1816.126	352.20833
1818.994	347.20833
1821.861	336.875
1824.725	342.54167
1827.587	350.875
1830.448	342.54167
1833.306	326.54167
1836.162	350.54167
1839.017	337.54167
1841.869	331.875
1844.719	328.875
1847.567	318.20833
1850.414	309.875
1853.258	314.20833
1856.1	337.875
1858.94	336.875
1861.778	328.20833
1864.614	316.875
1867.448	325.875
1870.28	315.54167
1873.111	331.54167
1875.939	312.875
1878.765	330.54167
1881.589	311.20833
1884.411	323.54167
1887.231	329.875
1890.049	314.20833
1892.865	328.875
1895.68	309.20833
1898.492	342.20833
1901.302	326.20833
1904.11	310.54167
1906.916	312.20833
1909.721	307.54167
1912.523	312.875
1915.323	303.875
1918.122	300.20833
1920.918	313.20833
1923.712	295.54167
1926.505	307.54167
1929.295	284.20833
1932.084	301.54167
1934.87	303.875
1937.655	290.875
1940.438	288.54167
1943.218	291.875
1945.997	299.875
1948.774	307.20833
1951.549	302.20833
1954.322	291.20833
1957.093	295.54167
1959.862	283.20833
1962.629	287.54167
1965.394	285.875
1968.157	282.54167
1970.918	295.20833
1973.678	278.875
1976.435	297.20833
1979.19	284.20833
1981.944	266.875
1984.696	280.875
1987.445	275.54167
1990.193	276.54167
1992.939	288.54167
1995.683	280.54167
1998.425	263.54167
2001.165	298.54167
2003.903	262.20833
2006.639	277.54167
2009.374	270.875
2012.106	270.54167
2014.837	253.20833
2017.566	279.54167
2020.292	268.875
2023.017	270.20833
2025.74	266.54167
2028.461	255.875
2031.18	265.875
2033.898	258.20833
2036.613	260.875
2039.327	267.54167
2042.038	253.54167
2044.748	260.20833
2047.456	258.875
2050.162	250.875
2052.866	259.54167
2055.568	266.20833
2058.268	250.20833
2060.967	262.20833
2063.663	245.875
2066.358	250.20833
2069.051	247.54167
2071.742	246.54167
2074.431	257.875
2077.118	252.54167
2079.804	241.875
2082.487	248.875
2085.169	261.875
2087.849	273.875
2090.527	242.54167
2093.203	253.875
2095.877	251.875
2098.55	242.54167
2101.22	266.20833
2103.889	259.875
2106.556	249.54167
2109.221	265.54167
2111.884	260.54167
2114.546	278.875
2117.205	286.54167
2119.863	323.875
2122.519	325.20833
2125.173	344.54167
2127.825	367.875
2130.475	364.54167
2133.124	347.875
2135.771	333.20833
2138.416	349.20833
2141.059	306.875
2143.7	310.20833
2146.339	286.20833
2148.977	257.54167
2151.613	268.20833
2154.247	270.54167
2156.879	259.875
2159.51	235.54167
2162.138	248.20833
2164.765	242.54167
2167.39	233.20833
2170.013	252.875
2172.634	254.20833
2175.254	238.54167
2177.872	271.20833
2180.488	226.54167
2183.102	232.875
2185.714	233.875
2188.325	218.54167
2190.934	230.54167
2193.541	240.20833
2196.146	229.875
2198.75	218.54167
2201.351	213.54167
2203.951	206.875
2206.549	222.54167
2209.146	216.875
2211.74	213.875
2214.333	222.20833
2216.924	204.875
2219.514	212.54167
2222.101	216.54167
2224.687	226.875
2227.271	194.875
2229.853	203.54167
2232.433	192.20833
2235.012	212.54167
2237.589	204.54167
2240.164	222.875
2242.738	206.54167
2245.309	195.875
2247.879	209.875
2250.448	208.875
2253.014	194.20833
2255.579	187.875
2258.142	194.20833
2260.703	197.20833
2263.262	193.875
2265.82	186.875
2268.376	207.20833
2270.93	192.20833
2273.483	185.20833
2276.033	200.875
2278.583	182.54167
2281.13	186.54167
2283.675	178.875
2286.219	185.54167
2288.761	190.875
2291.302	188.54167
2293.841	197.20833
2296.377	179.20833
2298.913	191.875
2301.446	187.54167
2303.978	185.54167
2306.508	181.54167
2309.037	188.875
2311.563	183.875
2314.088	184.54167
2316.612	166.54167
2319.133	185.54167
2321.653	182.875
2324.171	169.875
2326.688	188.20833
2329.202	182.54167
2331.715	181.875
2334.227	181.875
2336.736	173.20833
2339.244	174.20833
2341.751	165.875
2344.255	180.20833
2346.758	175.54167
2349.259	162.20833
2351.759	174.20833
2354.257	166.20833
2356.753	162.20833
2359.247	163.54167
2361.74	162.54167
2364.231	167.875
2366.721	182.54167
2369.209	165.54167
2371.695	165.54167
2374.179	164.20833
2376.662	155.875
2379.143	177.54167
2381.622	173.20833
2384.1	189.54167
2386.576	174.875
2389.051	184.875
2391.524	173.20833
2393.995	167.875
2396.464	166.54167
2398.932	157.20833
2401.398	167.20833
2403.863	158.875
2406.325	155.54167
2408.787	166.20833
2411.246	164.20833
2413.704	165.54167
2416.16	155.54167
2418.615	159.20833
2421.068	159.54167
2423.519	156.54167
2425.969	151.54167
2428.417	170.875
2430.863	182.54167
2433.308	163.54167
2435.751	161.20833
2438.193	158.875
2440.633	161.54167
2443.071	167.54167
2445.508	155.20833
2447.943	156.54167
2450.376	153.875
2452.808	162.875
2455.238	149.20833
2457.667	180.54167
2460.093	146.875
2462.519	139.20833
2464.942	148.875
2467.365	153.875
2469.785	152.20833
2472.204	149.54167
2474.621	151.875
2477.037	163.875
2479.451	144.875
2481.863	143.20833
2484.274	144.20833
2486.683	149.54167
2489.091	161.54167
2491.497	161.20833
2493.901	150.54167
2496.304	149.20833
2498.705	158.54167
2501.105	150.20833
2503.503	162.20833
2505.899	142.54167
2508.294	165.20833
2510.687	143.54167
2513.079	142.875
2515.469	138.875
2517.858	146.875
2520.245	161.54167
2522.63	144.54167
2525.014	140.20833
2527.396	133.54167
2529.776	141.54167
2532.156	150.875
2534.533	134.54167
2536.909	135.54167
2539.283	127.20833
2541.656	136.54167
2544.027	153.54167
2546.397	148.20833
2548.765	139.20833
2551.131	142.875
2553.496	136.875
2555.86	148.20833
2558.221	147.54167
2560.582	134.875
2562.94	127.20833
2565.298	139.20833
2567.653	148.54167
2570.007	125.54167
2572.36	145.875
2574.711	132.54167
2577.06	145.54167
2579.408	139.875
2581.754	136.54167
2584.099	140.20833
2586.442	131.875
2588.784	147.20833
2591.124	132.54167
2593.463	131.875
2595.8	140.875
2598.135	129.20833
2600.469	127.20833
2602.802	138.54167
2605.133	142.875
2607.462	126.20833
2609.79	122.875
2612.116	147.54167
2614.441	130.20833
2616.764	134.875
2619.086	138.875
2621.406	123.875
2623.725	144.20833
2626.042	130.54167
2628.358	126.20833
2630.672	128.54167
2632.985	142.20833
2635.296	136.54167
2637.606	133.54167
2639.914	122.54167
2642.22	126.20833
2644.525	136.20833
2646.829	128.54167
2649.131	141.54167
2651.432	140.875
2653.731	128.54167
2656.028	144.875
2658.324	134.54167
2660.619	122.54167
2662.912	138.875
2665.204	116.20833
2667.494	138.875
2669.782	122.54167
2672.07	142.20833
2674.355	141.875
2676.639	137.54167
2678.922	129.875
2681.203	141.20833
2683.483	125.875
2685.761	115.54167
2688.038	135.20833
2690.313	144.20833
2692.587	135.54167
2694.859	130.54167
2697.13	129.875
2699.399	133.54167
2701.667	140.20833
2703.933	135.20833
2706.198	144.875
2708.461	145.875
2710.723	143.875
2712.984	139.20833
2715.243	145.54167
2717.5	132.20833
2719.757	143.20833
2722.011	133.20833
2724.264	147.20833
2726.516	156.875
2728.766	122.20833
2731.015	135.875
2733.262	128.875
2735.508	133.875
2737.753	137.20833
2739.996	119.20833
2742.237	127.875
2744.477	135.20833
2746.716	144.875
2748.953	138.20833
2751.189	145.20833
2753.423	133.875
2755.656	128.20833
2757.887	126.20833
2760.117	128.20833
2762.346	120.20833
2764.573	112.875
2766.798	122.54167
2769.022	125.875
2771.245	120.20833
2773.467	128.875
2775.686	123.875
2777.905	133.20833
2780.122	125.20833
2782.337	128.875
2784.552	123.20833
2786.764	129.54167
2788.976	126.20833
2791.186	131.54167
2793.394	126.875
2795.601	133.20833
2797.807	137.875
2800.011	139.875
2802.214	140.875
2804.415	132.54167
2806.615	136.20833
2808.814	140.54167
2811.011	141.54167
2813.206	145.20833
2815.401	153.54167
2817.594	146.20833
2819.785	153.875
2821.975	138.875
2824.164	142.54167
2826.351	146.20833
2828.537	161.54167
2830.722	156.875
2832.905	153.54167
2835.086	163.875
2837.267	176.20833
2839.445	182.20833
2841.623	179.20833
2843.799	179.20833
2845.974	188.54167
2848.147	191.875
2850.319	198.20833
2852.489	209.20833
2854.659	212.54167
2856.826	221.20833
2858.993	237.875
2861.158	213.875
2863.321	223.875
2865.483	242.54167
2867.644	235.20833
2869.804	239.54167
2871.962	241.875
2874.118	262.54167
2876.274	341.20833
2878.428	320.54167
2880.58	276.875
2882.731	258.20833
2884.881	254.875
2887.03	241.875
2889.177	242.875
2891.322	245.875
2893.467	221.875
2895.61	222.875
2897.751	235.54167
2899.892	225.54167
2902.03	228.20833
2904.168	225.20833
2906.304	232.875
2908.439	245.54167
2910.572	223.54167
2912.704	230.54167
2914.835	231.875
2916.965	231.20833
2919.093	254.54167
2921.219	222.54167
2923.345	244.54167
2925.469	234.54167
2927.591	221.875
2929.712	210.20833
2931.832	225.875
2933.951	215.20833
2936.068	207.875
2938.184	210.875
2940.299	198.875
2942.412	196.20833
2944.524	179.54167
2946.634	189.875
2948.744	164.54167
2950.851	200.54167
2952.958	164.20833
2955.063	175.54167
2957.167	169.875
2959.269	153.875
2961.371	179.54167
2963.471	157.54167
2965.569	174.20833
2967.666	148.54167
2969.762	143.875
2971.857	138.875
2973.95	136.20833
2976.042	141.875
2978.133	133.875
2980.222	138.54167
2982.31	124.875
2984.396	108.54167
2986.482	112.54167
2988.566	118.54167
2990.648	120.20833
2992.73	113.20833
2994.81	106.20833
2996.889	123.875
2998.966	113.20833
3001.042	126.54167
3003.117	112.20833
3005.191	122.54167
3007.263	120.875
3009.334	111.54167
3011.403	119.54167
3013.472	116.875
3015.539	125.875
3017.604	131.875
3019.669	97.875
3021.732	107.54167
3023.794	109.875
3025.854	102.20833
3027.914	99.875
3029.971	95.54167
3032.028	105.20833
3034.083	108.875
3036.137	104.875
3038.19	89.20833
3040.242	88.875
3042.292	91.20833
3044.341	95.875
3046.388	106.875
3048.435	85.54167
3050.48	109.54167
3052.524	93.54167
3054.566	81.875
3056.607	90.20833
3058.647	92.875
3060.686	79.20833
3062.723	74.875
3064.759	76.20833
3066.794	0.54167
3068.828	1.20833
3070.86	2.54167
