-0.839	140.08333
3.438	158.08333
7.711	67.41667
11.981	42.75
16.247	32.41667
20.509	39.08333
24.768	33.08333
29.024	42.41667
33.276	34.08333
37.524	40.41667
41.769	29.41667
46.01	25.08333
50.247	45.41667
54.481	51.75
58.712	53.08333
62.939	38.08333
67.162	55.41667
71.382	46.75
75.599	39.75
79.812	42.08333
84.021	61.08333
88.227	41.08333
92.429	50.08333
96.628	36.75
100.823	55.08333
105.015	50.08333
109.204	47.75
113.388	57.08333
117.57	41.41667
121.748	61.08333
125.922	50.08333
130.093	64.08333
134.261	63.41667
138.425	54.08333
142.585	86.08333
146.742	63.41667
150.896	78.41667
155.046	79.75
159.193	108.41667
163.336	164.41667
167.476	283.41667
171.613	512.41667
175.746	835.41667
179.875	1199.08333
184.002	1577.08333
188.124	1851.75
192.244	1954.08333
196.36	1950.08333
200.472	1935.41667
204.581	1913.75
208.687	1874.75
212.79	1859.75
216.889	1881.41667
220.984	1901.08333
225.077	1900.08333
229.165	1911.41667
233.251	1917.08333
237.333	1925.08333
241.412	1901.41667
245.487	1875.75
249.559	1870.41667
253.628	1845.08333
257.694	1825.75
261.756	1855.41667
265.814	1784.41667
269.87	1749.41667
273.922	1713.08333
277.97	1687.08333
282.016	1699.75
286.058	1676.75
290.097	1714.41667
294.132	1724.08333
298.164	1708.75
302.193	1638.08333
306.219	1535.41667
310.241	1450.08333
314.26	1348.41667
318.276	1280.75
322.288	1245.08333
326.297	1201.41667
330.303	1171.41667
334.305	1159.41667
338.305	1147.41667
342.301	1142.08333
346.294	1140.08333
350.283	1117.75
354.269	1117.75
358.252	1110.08333
362.232	1107.08333
366.209	1122.75
370.182	1105.41667
374.152	1108.08333
378.119	1110.08333
382.083	1114.41667
386.043	1109.08333
390	1095.08333
393.954	1097.08333
397.905	1110.75
401.852	1123.75
405.797	1103.75
409.738	1078.41667
413.676	1100.41667
417.61	1111.41667
421.542	1102.08333
425.47	1083.41667
429.396	1071.08333
433.318	1069.41667
437.236	1070.75
441.152	1099.75
445.065	1059.41667
448.974	1055.75
452.88	1053.08333
456.783	1041.08333
460.683	1040.75
464.58	1058.08333
468.473	1063.75
472.364	1059.08333
476.251	1054.41667
480.135	1068.08333
484.016	1070.41667
487.894	1089.75
491.769	1073.08333
495.641	1081.08333
499.509	1087.75
503.375	1083.41667
507.237	1072.08333
511.096	1063.08333
514.952	1079.75
518.805	1076.41667
522.655	1069.41667
526.502	1062.08333
530.346	1075.41667
534.187	1070.41667
538.024	1074.41667
541.859	1069.08333
545.69	1101.41667
549.519	1075.41667
553.344	1077.41667
557.166	1053.41667
560.985	1044.08333
564.802	1053.75
568.615	1029.41667
572.425	1015.08333
576.232	1020.75
580.036	1024.41667
583.836	1023.75
587.634	1028.75
591.429	1006.75
595.221	1057.41667
599.01	1043.41667
602.796	1038.41667
606.578	1047.08333
610.358	1043.41667
614.135	1041.08333
617.909	1044.75
621.679	1037.08333
625.447	1027.41667
629.212	1028.08333
632.973	1037.08333
636.732	1031.41667
640.488	1031.75
644.241	1023.08333
647.991	1022.75
651.737	1052.08333
655.481	1011.75
659.222	1008.08333
662.96	1007.41667
666.695	1023.08333
670.427	1017.08333
674.156	1030.08333
677.882	1020.41667
681.605	1029.41667
685.325	1011.08333
689.043	1045.41667
692.757	993.41667
696.468	1015.08333
700.177	1002.75
703.882	1003.08333
707.585	983.41667
711.284	999.41667
714.981	990.08333
718.675	985.41667
722.366	996.75
726.054	982.75
729.739	991.08333
733.421	988.75
737.1	998.08333
740.777	1001.75
744.45	994.75
748.121	987.75
751.789	1039.75
755.453	1003.41667
759.115	1026.08333
762.774	1016.08333
766.431	1019.41667
770.084	1030.08333
773.734	1017.08333
777.382	1048.75
781.027	1039.75
784.669	1029.41667
788.308	1038.08333
791.944	1059.08333
795.577	1064.41667
799.208	1068.08333
802.835	1062.08333
806.46	1075.41667
810.082	1073.41667
813.701	1050.75
817.317	1087.41667
820.931	1078.41667
824.542	1093.75
828.149	1063.41667
831.754	1048.75
835.357	1047.08333
838.956	1057.08333
842.553	1044.41667
846.146	1049.08333
849.737	1028.08333
853.326	1022.41667
856.911	1015.75
860.493	1047.75
864.073	1039.75
867.65	1055.08333
871.225	1085.41667
874.796	1059.08333
878.365	1061.08333
881.931	1070.08333
885.494	1072.41667
889.054	1068.75
892.612	1078.08333
896.166	1073.08333
899.719	1053.41667
903.268	1030.08333
906.814	1031.08333
910.358	1021.41667
913.899	1007.75
917.438	1014.41667
920.973	983.75
924.506	1007.75
928.036	1041.41667
931.564	1036.41667
935.088	1070.41667
938.61	1034.41667
942.129	1044.41667
945.646	1065.41667
949.16	1069.41667
952.671	1072.75
956.179	1106.75
959.685	1076.41667
963.188	1085.08333
966.688	1073.75
970.185	1046.75
973.68	1017.08333
977.173	1016.75
980.662	1015.08333
984.149	1018.41667
987.633	996.08333
991.114	1015.75
994.593	1032.75
998.069	1043.08333
1001.542	1081.08333
1005.013	1054.75
1008.481	1006.08333
1011.947	982.75
1015.409	969.08333
1018.869	962.41667
1022.327	993.41667
1025.782	973.75
1029.234	954.08333
1032.683	959.75
1036.13	927.08333
1039.574	900.75
1043.016	879.08333
1046.455	871.75
1049.891	862.75
1053.325	865.41667
1056.756	862.08333
1060.184	866.41667
1063.61	853.75
1067.033	866.41667
1070.454	877.41667
1073.872	889.08333
1077.287	851.75
1080.7	857.75
1084.11	862.41667
1087.517	863.75
1090.922	851.08333
1094.325	839.08333
1097.724	831.75
1101.122	831.08333
1104.516	829.75
1107.908	806.08333
1111.298	834.41667
1114.684	834.41667
1118.069	841.75
1121.45	856.75
1124.83	840.75
1128.206	857.08333
1131.58	861.08333
1134.951	895.75
1138.32	900.75
1141.687	935.08333
1145.05	937.75
1148.412	962.08333
1151.77	941.75
1155.126	937.41667
1158.48	931.75
1161.831	935.75
1165.18	940.41667
1168.525	946.41667
1171.869	954.75
1175.21	956.08333
1178.548	972.75
1181.884	980.75
1185.217	970.41667
1188.548	997.41667
1191.877	1023.41667
1195.202	1073.08333
1198.526	1086.08333
1201.846	1071.75
1205.165	1089.75
1208.48	1088.41667
1211.794	1086.08333
1215.104	1087.75
1218.413	1072.08333
1221.719	1072.75
1225.022	1058.08333
1228.323	1043.41667
1231.621	1045.41667
1234.917	1052.08333
1238.21	1059.41667
1241.501	1023.41667
1244.79	1018.08333
1248.076	1011.41667
1251.359	1030.75
1254.64	1077.41667
1257.919	1051.41667
1261.195	1069.41667
1264.468	1086.08333
1267.74	1106.08333
1271.008	1090.41667
1274.275	1093.08333
1277.538	1087.41667
1280.8	1083.75
1284.059	1089.41667
1287.315	1098.75
1290.569	1091.41667
1293.821	1102.75
1297.07	1105.75
1300.317	1116.41667
1303.562	1125.08333
1306.803	1106.75
1310.043	1087.41667
1313.28	1093.08333
1316.515	1087.75
1319.747	1092.08333
1322.977	1072.75
1326.204	1058.41667
1329.429	1059.75
1332.652	1065.75
1335.872	1043.08333
1339.09	1037.75
1342.306	1039.41667
1345.519	1039.75
1348.729	1024.08333
1351.938	1032.08333
1355.144	1004.08333
1358.347	1005.08333
1361.548	1006.75
1364.747	1005.08333
1367.944	986.41667
1371.138	987.08333
1374.329	990.41667
1377.518	1000.75
1380.705	990.41667
1383.89	987.75
1387.072	970.75
1390.252	944.08333
1393.429	907.75
1396.605	891.08333
1399.777	860.08333
1402.948	869.75
1406.116	844.75
1409.282	843.08333
1412.445	850.41667
1415.606	839.41667
1418.765	849.41667
1421.921	874.41667
1425.075	883.41667
1428.227	906.75
1431.376	940.08333
1434.524	968.75
1437.668	987.75
1440.811	997.08333
1443.951	995.08333
1447.089	1006.41667
1450.224	995.41667
1453.357	984.41667
1456.488	992.08333
1459.617	983.41667
1462.743	961.75
1465.867	928.08333
1468.989	923.08333
1472.108	911.75
1475.225	894.41667
1478.34	891.75
1481.453	879.75
1484.563	872.08333
1487.671	884.08333
1490.776	894.08333
1493.88	911.75
1496.981	922.75
1500.08	928.41667
1503.176	938.41667
1506.271	941.75
1509.363	955.41667
1512.452	954.75
1515.54	971.41667
1518.625	967.41667
1521.708	1006.75
1524.789	1036.75
1527.867	1070.41667
1530.944	1124.75
1534.018	1139.75
1537.089	1204.41667
1540.159	1212.41667
1543.226	1222.75
1546.291	1196.08333
1549.354	1186.75
1552.415	1159.41667
1555.473	1139.41667
1558.529	1110.41667
1561.583	1106.41667
1564.634	1090.41667
1567.684	1086.75
1570.731	1083.75
1573.776	1090.75
1576.819	1106.08333
1579.859	1099.41667
1582.898	1127.41667
1585.934	1138.75
1588.968	1134.08333
1591.999	1127.75
1595.029	1120.41667
1598.056	1129.75
1601.081	1156.41667
1604.104	1139.41667
1607.125	1128.08333
1610.144	1120.75
1613.16	1076.41667
1616.174	1054.08333
1619.186	1035.75
1622.196	1014.41667
1625.203	977.08333
1628.209	985.75
1631.212	956.75
1634.213	966.75
1637.212	987.08333
1640.209	980.41667
1643.203	930.08333
1646.196	922.08333
1649.186	902.08333
1652.174	869.08333
1655.16	851.41667
1658.144	841.08333
1661.125	799.41667
1664.105	771.08333
1667.082	750.41667
1670.057	695.75
1673.03	671.41667
1676.001	630.41667
1678.97	595.41667
1681.937	569.41667
1684.901	537.08333
1687.863	531.08333
1690.824	495.08333
1693.782	510.08333
1696.738	473.41667
1699.692	478.41667
1702.643	458.41667
1705.593	466.75
1708.54	455.08333
1711.486	461.08333
1714.429	437.41667
1717.37	443.41667
1720.309	427.08333
1723.246	435.75
1726.181	426.75
1729.113	430.08333
1732.044	422.75
1734.972	416.75
1737.899	434.08333
1740.823	439.75
1743.745	450.41667
1746.665	408.41667
1749.583	395.75
1752.499	406.75
1755.413	405.08333
1758.325	387.08333
1761.235	388.75
1764.142	377.08333
1767.048	372.41667
1769.951	380.41667
1772.852	374.08333
1775.752	385.75
1778.649	375.75
1781.544	384.41667
1784.437	359.75
1787.328	374.41667
1790.217	365.08333
1793.104	342.41667
1795.989	359.41667
1798.872	343.08333
1801.753	363.41667
1804.631	353.08333
1807.508	360.08333
1810.383	352.75
1813.255	350.41667
1816.126	346.41667
1818.994	347.08333
1821.861	342.75
1824.725	357.41667
1827.587	347.41667
1830.448	341.41667
1833.306	334.41667
1836.162	354.08333
1839.017	337.41667
1841.869	333.75
1844.719	337.08333
1847.567	319.75
1850.414	322.41667
1853.258	317.41667
1856.1	334.75
1858.94	344.41667
1861.778	330.75
1864.614	321.41667
1867.448	322.75
1870.28	314.41667
1873.111	338.08333
1875.939	325.41667
1878.765	333.41667
1881.589	321.75
1884.411	330.75
1887.231	327.41667
1890.049	317.75
1892.865	327.75
1895.68	314.41667
1898.492	318.41667
1901.302	316.08333
1904.11	318.41667
1906.916	312.08333
1909.721	307.08333
1912.523	319.08333
1915.323	310.41667
1918.122	303.75
1920.918	309.75
1923.712	300.75
1926.505	303.08333
1929.295	294.75
1932.084	310.75
1934.87	314.75
1937.655	298.75
1940.438	285.41667
1943.218	301.75
1945.997	298.41667
1948.774	308.75
1951.549	306.08333
1954.322	291.41667
1957.093	301.08333
1959.862	287.75
1962.629	299.41667
1965.394	295.75
1968.157	281.08333
1970.918	302.75
1973.678	285.41667
1976.435	299.75
1979.19	288.08333
1981.944	274.75
1984.696	284.41667
1987.445	279.75
1990.193	284.41667
1992.939	292.75
1995.683	284.75
1998.425	268.75
2001.165	296.75
2003.903	270.08333
2006.639	275.75
2009.374	285.08333
2012.106	280.41667
2014.837	258.41667
2017.566	285.08333
2020.292	272.08333
2023.017	273.41667
2025.74	263.75
2028.461	263.75
2031.18	275.75
2033.898	257.75
2036.613	269.08333
2039.327	275.08333
2042.038	265.75
2044.748	270.41667
2047.456	270.41667
2050.162	253.41667
2052.866	255.75
2055.568	266.75
2058.268	255.08333
2060.967	265.08333
2063.663	244.75
2066.358	250.41667
2069.051	252.08333
2071.742	257.75
2074.431	260.08333
2077.118	252.08333
2079.804	247.75
2082.487	256.41667
2085.169	281.75
2087.849	277.75
2090.527	253.08333
2093.203	263.08333
2095.877	261.41667
2098.55	260.08333
2101.22	269.08333
2103.889	271.41667
2106.556	263.75
2109.221	278.41667
2111.884	274.41667
2114.546	297.08333
2117.205	310.75
2119.863	347.75
2122.519	336.41667
2125.173	361.08333
2127.825	392.41667
2130.475	394.08333
2133.124	374.75
2135.771	357.41667
2138.416	370.08333
2141.059	332.08333
2143.7	326.41667
2146.339	301.75
2148.977	281.41667
2151.613	281.41667
2154.247	277.75
2156.879	273.08333
2159.51	258.08333
2162.138	264.75
2164.765	250.41667
2167.39	239.08333
2170.013	265.41667
2172.634	254.75
2175.254	244.08333
2177.872	282.75
2180.488	236.08333
2183.102	242.08333
2185.714	239.41667
2188.325	227.75
2190.934	241.41667
2193.541	239.75
2196.146	237.08333
2198.75	224.41667
2201.351	218.41667
2203.951	215.41667
2206.549	229.75
2209.146	223.75
2211.74	216.41667
2214.333	225.75
2216.924	205.08333
2219.514	216.08333
2222.101	218.75
2224.687	233.41667
2227.271	201.75
2229.853	211.41667
2232.433	197.75
2235.012	211.75
2237.589	214.41667
2240.164	223.08333
2242.738	207.41667
2245.309	198.75
2247.879	217.41667
2250.448	214.08333
2253.014	195.41667
2255.579	186.75
2258.142	197.41667
2260.703	194.75
2263.262	194.41667
2265.82	187.08333
2268.376	200.41667
2270.93	192.75
2273.483	188.41667
2276.033	200.75
2278.583	190.08333
2281.13	185.41667
2283.675	183.08333
2286.219	186.08333
2288.761	198.41667
2291.302	195.08333
2293.841	206.75
2296.377	189.08333
2298.913	191.41667
2301.446	198.75
2303.978	190.75
2306.508	180.41667
2309.037	186.75
2311.563	185.75
2314.088	194.41667
2316.612	171.75
2319.133	192.41667
2321.653	188.08333
2324.171	180.75
2326.688	191.41667
2329.202	178.75
2331.715	183.75
2334.227	187.08333
2336.736	180.75
2339.244	177.75
2341.751	174.08333
2344.255	188.08333
2346.758	177.41667
2349.259	165.75
2351.759	184.08333
2354.257	172.08333
2356.753	167.75
2359.247	167.08333
2361.74	171.08333
2364.231	172.41667
2366.721	180.08333
2369.209	175.08333
2371.695	177.41667
2374.179	173.75
2376.662	153.75
2379.143	180.75
2381.622	172.08333
2384.1	172.75
2386.576	168.75
2389.051	183.41667
2391.524	182.41667
2393.995	173.08333
2396.464	160.75
2398.932	166.08333
2401.398	171.75
2403.863	162.75
2406.325	162.08333
2408.787	168.08333
2411.246	168.08333
2413.704	165.41667
2416.16	161.75
2418.615	156.08333
2421.068	170.75
2423.519	161.75
2425.969	154.75
2428.417	171.41667
2430.863	186.08333
2433.308	175.75
2435.751	166.75
2438.193	164.41667
2440.633	166.75
2443.071	169.41667
2445.508	158.75
2447.943	160.41667
2450.376	153.41667
2452.808	166.41667
2455.238	148.75
2457.667	179.41667
2460.093	154.75
2462.519	147.08333
2464.942	152.08333
2467.365	156.75
2469.785	156.08333
2472.204	155.08333
2474.621	158.08333
2477.037	169.41667
2479.451	147.08333
2481.863	146.75
2484.274	145.41667
2486.683	157.75
2489.091	166.08333
2491.497	152.41667
2493.901	153.75
2496.304	152.08333
2498.705	159.41667
2501.105	149.08333
2503.503	170.75
2505.899	142.41667
2508.294	171.08333
2510.687	150.41667
2513.079	152.08333
2515.469	143.75
2517.858	144.75
2520.245	161.41667
2522.63	148.75
2525.014	146.75
2527.396	140.41667
2529.776	148.08333
2532.156	147.08333
2534.533	139.08333
2536.909	132.41667
2539.283	129.75
2541.656	137.75
2544.027	160.75
2546.397	146.75
2548.765	140.75
2551.131	144.08333
2553.496	142.75
2555.86	151.75
2558.221	154.41667
2560.582	140.08333
2562.94	128.41667
2565.298	143.75
2567.653	150.75
2570.007	129.41667
2572.36	148.41667
2574.711	137.41667
2577.06	156.75
2579.408	141.08333
2581.754	137.41667
2584.099	139.75
2586.442	137.41667
2588.784	145.08333
2591.124	140.75
2593.463	135.08333
2595.8	147.41667
2598.135	128.08333
2600.469	132.75
2602.802	147.41667
2605.133	142.08333
2607.462	129.08333
2609.79	129.08333
2612.116	143.41667
2614.441	136.41667
2616.764	142.41667
2619.086	132.41667
2621.406	126.75
2623.725	146.75
2626.042	139.08333
2628.358	132.41667
2630.672	135.41667
2632.985	147.75
2635.296	143.08333
2637.606	141.08333
2639.914	133.75
2642.22	129.41667
2644.525	137.41667
2646.829	136.08333
2649.131	144.75
2651.432	141.08333
2653.731	130.41667
2656.028	147.75
2658.324	138.41667
2660.619	127.75
2662.912	142.75
2665.204	126.41667
2667.494	141.41667
2669.782	131.41667
2672.07	147.08333
2674.355	147.41667
2676.639	139.08333
2678.922	129.75
2681.203	137.41667
2683.483	131.41667
2685.761	124.08333
2688.038	142.08333
2690.313	146.08333
2692.587	140.08333
2694.859	133.41667
2697.13	137.41667
2699.399	144.75
2701.667	145.75
2703.933	138.41667
2706.198	149.08333
2708.461	143.75
2710.723	149.41667
2712.984	147.75
2715.243	147.41667
2717.5	137.75
2719.757	144.75
2722.011	141.08333
2724.264	147.41667
2726.516	155.08333
2728.766	134.41667
2731.015	144.08333
2733.262	139.41667
2735.508	141.41667
2737.753	147.75
2739.996	126.41667
2742.237	134.08333
2744.477	146.08333
2746.716	151.08333
2748.953	149.08333
2751.189	158.41667
2753.423	141.41667
2755.656	132.75
2757.887	126.08333
2760.117	135.08333
2762.346	133.41667
2764.573	116.41667
2766.798	127.75
2769.022	136.75
2771.245	125.08333
2773.467	133.41667
2775.686	129.08333
2777.905	140.08333
2780.122	135.08333
2782.337	144.41667
2784.552	131.08333
2786.764	136.08333
2788.976	129.41667
2791.186	137.75
2793.394	134.08333
2795.601	148.08333
2797.807	148.08333
2800.011	142.08333
2802.214	150.75
2804.415	148.41667
2806.615	146.75
2808.814	148.08333
2811.011	150.41667
2813.206	158.41667
2815.401	165.75
2817.594	162.75
2819.785	163.75
2821.975	148.41667
2824.164	156.08333
2826.351	152.75
2828.537	170.41667
2830.722	170.08333
2832.905	162.08333
2835.086	175.08333
2837.267	184.41667
2839.445	192.75
2841.623	185.08333
2843.799	191.41667
2845.974	200.75
2848.147	201.08333
2850.319	210.41667
2852.489	223.75
2854.659	219.08333
2856.826	224.08333
2858.993	243.41667
2861.158	221.41667
2863.321	218.75
2865.483	239.08333
2867.644	244.08333
2869.804	228.75
2871.962	234.08333
2874.118	233.41667
2876.274	233.08333
2878.428	231.41667
2880.58	236.75
2882.731	223.41667
2884.881	228.41667
2887.03	240.75
2889.177	230.41667
2891.322	243.08333
2893.467	230.41667
2895.61	229.75
2897.751	242.75
2899.892	229.41667
2902.03	241.41667
2904.168	233.41667
2906.304	237.75
2908.439	253.08333
2910.572	229.08333
2912.704	237.75
2914.835	243.75
2916.965	242.41667
2919.093	259.08333
2921.219	231.75
2923.345	260.75
2925.469	241.41667
2927.591	231.75
2929.712	220.75
2931.832	233.08333
2933.951	220.08333
2936.068	217.41667
2938.184	211.75
2940.299	214.41667
2942.412	205.41667
2944.524	189.08333
2946.634	202.41667
2948.744	177.41667
2950.851	207.75
2952.958	173.08333
2955.063	183.75
2957.167	175.41667
2959.269	162.41667
2961.371	196.08333
2963.471	159.41667
2965.569	177.75
2967.666	155.08333
2969.762	148.41667
2971.857	145.75
2973.95	141.08333
2976.042	149.08333
2978.133	142.75
2980.222	141.41667
2982.31	124.41667
2984.396	120.08333
2986.482	128.75
2988.566	125.08333
2990.648	126.75
2992.73	128.75
2994.81	111.41667
2996.889	127.08333
2998.966	119.75
3001.042	127.41667
3003.117	118.08333
3005.191	121.75
3007.263	127.75
3009.334	121.41667
3011.403	121.08333
3013.472	114.41667
3015.539	128.41667
3017.604	139.41667
3019.669	108.08333
3021.732	113.41667
3023.794	114.08333
3025.854	102.41667
3027.914	98.75
3029.971	99.41667
3032.028	109.75
3034.083	116.08333
3036.137	114.08333
3038.19	99.08333
3040.242	91.08333
3042.292	95.08333
3044.341	100.08333
3046.388	115.75
3048.435	94.41667
3050.48	111.08333
3052.524	100.08333
3054.566	86.75
3056.607	95.75
3058.647	93.41667
3060.686	82.41667
3062.723	77.08333
3064.759	77.41667
3066.794	0.08333
3068.828	-0.58333
3070.86	3.75
