-0.839	149.83333
3.438	163.83333
7.711	68.83333
11.981	42.16667
16.247	30.5
20.509	40.83333
24.768	35.83333
29.024	44.16667
33.276	31.16667
37.524	44.16667
41.769	29.83333
46.01	26.16667
50.247	44.16667
54.481	50.16667
58.712	54.16667
62.939	37.83333
67.162	53.5
71.382	48.16667
75.599	35.5
79.812	40.83333
84.021	62.83333
88.227	42.5
92.429	52.83333
96.628	35.5
100.823	55.83333
105.015	54.83333
109.204	45.83333
113.388	58.83333
117.57	40.83333
121.748	58.83333
125.922	50.16667
130.093	66.5
134.261	69.16667
138.425	55.5
142.585	86.16667
146.742	65.16667
150.896	81.83333
155.046	77.83333
159.193	110.5
163.336	166.5
167.476	281.16667
171.613	504.5
175.746	809.5
179.875	1196.83333
184.002	1547.83333
188.124	1836.16667
192.244	1898.16667
196.36	1921.83333
200.472	1915.83333
204.581	1899.5
208.687	1840.16667
212.79	1816.83333
216.889	1854.16667
220.984	1873.83333
225.077	1887.83333
229.165	1884.5
233.251	1885.5
237.333	1874.5
241.412	1863.83333
245.487	1867.16667
249.559	1812.5
253.628	1827.5
257.694	1801.83333
261.756	1813.5
265.814	1773.83333
269.87	1717.16667
273.922	1661.83333
277.97	1658.5
282.016	1667.16667
286.058	1628.5
290.097	1685.16667
294.132	1671.83333
298.164	1671.16667
302.193	1609.16667
306.219	1504.83333
310.241	1426.5
314.26	1337.16667
318.276	1255.5
322.288	1217.83333
326.297	1176.83333
330.303	1148.83333
334.305	1125.16667
338.305	1127.16667
342.301	1109.83333
346.294	1101.5
350.283	1085.5
354.269	1083.5
358.252	1080.16667
362.232	1080.83333
366.209	1089.83333
370.182	1075.83333
374.152	1051.5
378.119	1080.5
382.083	1064.83333
386.043	1069.16667
390	1045.83333
393.954	1075.83333
397.905	1063.16667
401.852	1077.5
405.797	1057.83333
409.738	1059.16667
413.676	1057.83333
417.61	1091.83333
421.542	1071.5
425.47	1043.83333
429.396	1045.16667
433.318	1026.16667
437.236	1036.5
441.152	1069.16667
445.065	1031.16667
448.974	1031.16667
452.88	1024.16667
456.783	1012.16667
460.683	1008.5
464.58	1015.83333
468.473	1016.16667
472.364	1027.83333
476.251	1021.83333
480.135	1024.5
484.016	1037.83333
487.894	1046.16667
491.769	1054.83333
495.641	1040.5
499.509	1042.83333
503.375	1041.83333
507.237	1043.16667
511.096	1035.5
514.952	1059.16667
518.805	1100.5
522.655	1115.5
526.502	1069.83333
530.346	1050.16667
534.187	1050.16667
538.024	1046.16667
541.859	1036.16667
545.69	1053.83333
549.519	1066.5
553.344	1044.83333
557.166	1021.16667
560.985	1011.83333
564.802	1010.5
568.615	1012.83333
572.425	995.83333
576.232	976.5
580.036	979.16667
583.836	994.16667
587.634	996.5
591.429	983.16667
595.221	1008.83333
599.01	1006.83333
602.796	1013.83333
606.578	1014.16667
610.358	1023.83333
614.135	1001.83333
617.909	1025.83333
621.679	998.16667
625.447	997.83333
629.212	1007.83333
632.973	1005.83333
636.732	1001.83333
640.488	1013.83333
644.241	986.5
647.991	981.5
651.737	1007.5
655.481	975.83333
659.222	971.83333
662.96	975.16667
666.695	976.16667
670.427	982.83333
674.156	989.16667
677.882	1008.83333
681.605	996.5
685.325	977.83333
689.043	996.83333
692.757	984.16667
696.468	980.16667
700.177	976.5
703.882	976.16667
707.585	962.16667
711.284	946.5
714.981	952.16667
718.675	949.83333
722.366	975.83333
726.054	954.83333
729.739	958.83333
733.421	958.16667
737.1	953.83333
740.777	972.16667
744.45	965.16667
748.121	973.83333
751.789	998.5
755.453	980.16667
759.115	983.5
762.774	982.16667
766.431	986.5
770.084	999.83333
773.734	976.83333
777.382	1023.83333
781.027	1026.16667
784.669	1017.16667
788.308	1008.16667
791.944	1032.5
795.577	1025.16667
799.208	1025.16667
802.835	1039.5
806.46	1030.5
810.082	1025.83333
813.701	1033.83333
817.317	1026.16667
820.931	1045.83333
824.542	1039.83333
828.149	1037.16667
831.754	1019.16667
835.357	1004.16667
838.956	1037.83333
842.553	1021.16667
846.146	1029.16667
849.737	994.5
853.326	1019.5
856.911	994.83333
860.493	1037.16667
864.073	1022.83333
867.65	1056.83333
871.225	1045.5
874.796	1038.83333
878.365	1045.16667
881.931	1051.16667
885.494	1050.5
889.054	1055.16667
892.612	1050.16667
896.166	1044.5
899.719	1018.83333
903.268	1019.16667
906.814	1005.83333
910.358	993.83333
913.899	994.5
917.438	974.16667
920.973	978.16667
924.506	973.5
928.036	995.5
931.564	1001.83333
935.088	1029.5
938.61	1013.16667
942.129	1013.5
945.646	1035.5
949.16	1051.83333
952.671	1057.83333
956.179	1070.5
959.685	1049.83333
963.188	1058.83333
966.688	1047.5
970.185	1009.5
973.68	985.16667
977.173	990.83333
980.662	963.5
984.149	986.5
987.633	960.16667
991.114	983.5
994.593	992.5
998.069	1005.5
1001.542	1029.83333
1005.013	1036.16667
1008.481	960.16667
1011.947	950.83333
1015.409	952.83333
1018.869	954.83333
1022.327	975.83333
1025.782	940.16667
1029.234	922.5
1032.683	901.83333
1036.13	888.83333
1039.574	860.5
1043.016	841.16667
1046.455	844.16667
1049.891	833.83333
1053.325	838.5
1056.756	840.5
1060.184	850.16667
1063.61	822.16667
1067.033	838.5
1070.454	838.5
1073.872	856.5
1077.287	834.16667
1080.7	837.83333
1084.11	824.5
1087.517	841.16667
1090.922	830.83333
1094.325	808.16667
1097.724	796.5
1101.122	806.5
1104.516	816.83333
1107.908	797.5
1111.298	811.16667
1114.684	810.16667
1118.069	826.16667
1121.45	839.16667
1124.83	822.5
1128.206	832.83333
1131.58	846.5
1134.951	880.16667
1138.32	892.16667
1141.687	920.5
1145.05	939.5
1148.412	914.83333
1151.77	917.5
1155.126	923.16667
1158.48	897.83333
1161.831	918.16667
1165.18	916.83333
1168.525	931.5
1171.869	948.16667
1175.21	949.83333
1178.548	959.83333
1181.884	960.16667
1185.217	965.83333
1188.548	993.5
1191.877	1007.83333
1195.202	1048.16667
1198.526	1081.16667
1201.846	1078.83333
1205.165	1054.5
1208.48	1073.16667
1211.794	1039.16667
1215.104	1071.5
1218.413	1034.16667
1221.719	1044.5
1225.022	1026.16667
1228.323	1012.5
1231.621	1032.83333
1234.917	1011.16667
1238.21	1042.16667
1241.501	1005.16667
1244.79	997.5
1248.076	1002.16667
1251.359	1006.16667
1254.64	1051.16667
1257.919	1037.83333
1261.195	1047.5
1264.468	1061.83333
1267.74	1072.83333
1271.008	1072.16667
1274.275	1084.16667
1277.538	1059.16667
1280.8	1059.83333
1284.059	1054.83333
1287.315	1073.5
1290.569	1056.16667
1293.821	1066.83333
1297.07	1090.5
1300.317	1085.16667
1303.562	1093.83333
1306.803	1073.16667
1310.043	1066.83333
1313.28	1073.16667
1316.515	1070.83333
1319.747	1054.16667
1322.977	1054.83333
1326.204	1034.83333
1329.429	1026.16667
1332.652	1032.16667
1335.872	1006.16667
1339.09	990.83333
1342.306	1002.83333
1345.519	992.16667
1348.729	969.83333
1351.938	989.5
1355.144	964.16667
1358.347	959.16667
1361.548	960.83333
1364.747	987.16667
1367.944	945.16667
1371.138	946.16667
1374.329	961.5
1377.518	953.16667
1380.705	971.5
1383.89	969.83333
1387.072	943.83333
1390.252	909.83333
1393.429	885.5
1396.605	859.16667
1399.777	826.16667
1402.948	827.83333
1406.116	811.5
1409.282	822.83333
1412.445	817.5
1415.606	839.16667
1418.765	840.16667
1421.921	850.83333
1425.075	850.83333
1428.227	879.83333
1431.376	918.83333
1434.524	940.83333
1437.668	963.5
1440.811	968.83333
1443.951	956.16667
1447.089	978.5
1450.224	967.16667
1453.357	962.16667
1456.488	962.16667
1459.617	952.83333
1462.743	939.83333
1465.867	905.16667
1468.989	905.83333
1472.108	897.83333
1475.225	877.83333
1478.34	857.83333
1481.453	860.5
1484.563	853.83333
1487.671	871.5
1490.776	880.83333
1493.88	895.16667
1496.981	899.83333
1500.08	927.16667
1503.176	924.5
1506.271	931.16667
1509.363	955.16667
1512.452	953.5
1515.54	946.16667
1518.625	967.83333
1521.708	1011.16667
1524.789	1026.16667
1527.867	1058.16667
1530.944	1102.83333
1534.018	1129.5
1537.089	1197.16667
1540.159	1198.5
1543.226	1218.16667
1546.291	1188.16667
1549.354	1170.83333
1552.415	1141.5
1555.473	1132.5
1558.529	1110.16667
1561.583	1100.16667
1564.634	1079.5
1567.684	1080.83333
1570.731	1081.5
1573.776	1088.16667
1576.819	1095.16667
1579.859	1099.5
1582.898	1119.16667
1585.934	1123.16667
1588.968	1132.16667
1591.999	1111.5
1595.029	1096.83333
1598.056	1123.16667
1601.081	1148.83333
1604.104	1140.16667
1607.125	1115.5
1610.144	1096.5
1613.16	1070.83333
1616.174	1030.16667
1619.186	1014.16667
1622.196	996.16667
1625.203	959.16667
1628.209	936.5
1631.212	944.16667
1634.213	936.5
1637.212	933.16667
1640.209	930.5
1643.203	887.5
1646.196	862.83333
1649.186	848.5
1652.174	837.5
1655.16	800.83333
1658.144	799.16667
1661.125	758.83333
1664.105	742.83333
1667.082	723.5
1670.057	680.16667
1673.03	636.16667
1676.001	619.5
1678.97	567.5
1681.937	550.5
1684.901	521.83333
1687.863	510.83333
1690.824	481.16667
1693.782	485.16667
1696.738	459.16667
1699.692	453.83333
1702.643	440.16667
1705.593	446.5
1708.54	440.5
1711.486	447.5
1714.429	420.16667
1717.37	430.16667
1720.309	419.5
1723.246	422.16667
1726.181	412.83333
1729.113	411.5
1732.044	409.83333
1734.972	410.83333
1737.899	416.83333
1740.823	413.5
1743.745	432.83333
1746.665	388.83333
1749.583	380.5
1752.499	381.16667
1755.413	375.83333
1758.325	362.83333
1761.235	368.83333
1764.142	361.83333
1767.048	368.16667
1769.951	357.5
1772.852	352.83333
1775.752	359.16667
1778.649	364.83333
1781.544	377.83333
1784.437	349.16667
1787.328	352.5
1790.217	354.83333
1793.104	335.83333
1795.989	343.5
1798.872	337.5
1801.753	350.16667
1804.631	340.83333
1807.508	353.83333
1810.383	335.5
1813.255	340.5
1816.126	331.83333
1818.994	337.16667
1821.861	326.16667
1824.725	335.5
1827.587	335.5
1830.448	330.83333
1833.306	322.83333
1836.162	335.5
1839.017	328.5
1841.869	330.5
1844.719	327.16667
1847.567	310.5
1850.414	308.83333
1853.258	301.83333
1856.1	321.5
1858.94	331.16667
1861.778	315.16667
1864.614	311.16667
1867.448	317.83333
1870.28	295.83333
1873.111	326.83333
1875.939	311.83333
1878.765	327.83333
1881.589	311.16667
1884.411	313.5
1887.231	324.83333
1890.049	313.16667
1892.865	318.5
1895.68	301.83333
1898.492	314.83333
1901.302	307.16667
1904.11	305.83333
1906.916	302.5
1909.721	293.83333
1912.523	303.16667
1915.323	296.83333
1918.122	297.16667
1920.918	310.5
1923.712	287.16667
1926.505	296.16667
1929.295	273.83333
1932.084	304.5
1934.87	293.83333
1937.655	287.5
1940.438	288.5
1943.218	285.5
1945.997	292.83333
1948.774	302.5
1951.549	299.5
1954.322	283.16667
1957.093	287.83333
1959.862	286.16667
1962.629	289.16667
1965.394	281.5
1968.157	273.16667
1970.918	285.83333
1973.678	278.5
1976.435	294.83333
1979.19	279.83333
1981.944	265.5
1984.696	277.83333
1987.445	270.83333
1990.193	279.5
1992.939	286.16667
1995.683	280.83333
1998.425	259.83333
2001.165	295.16667
2003.903	258.16667
2006.639	268.83333
2009.374	276.5
2012.106	277.16667
2014.837	251.5
2017.566	280.83333
2020.292	268.83333
2023.017	264.5
2025.74	256.83333
2028.461	261.5
2031.18	273.16667
2033.898	262.5
2036.613	267.5
2039.327	268.83333
2042.038	258.16667
2044.748	265.5
2047.456	263.16667
2050.162	242.83333
2052.866	260.83333
2055.568	268.5
2058.268	254.16667
2060.967	263.83333
2063.663	246.16667
2066.358	245.5
2069.051	255.5
2071.742	251.5
2074.431	260.83333
2077.118	255.16667
2079.804	238.83333
2082.487	256.5
2085.169	263.5
2087.849	274.16667
2090.527	246.5
2093.203	261.5
2095.877	257.16667
2098.55	257.83333
2101.22	261.83333
2103.889	272.5
2106.556	259.5
2109.221	280.5
2111.884	267.5
2114.546	297.16667
2117.205	302.5
2119.863	334.16667
2122.519	341.83333
2125.173	358.16667
2127.825	397.83333
2130.475	394.83333
2133.124	373.5
2135.771	349.83333
2138.416	364.16667
2141.059	325.5
2143.7	326.5
2146.339	305.5
2148.977	273.5
2151.613	284.5
2154.247	286.16667
2156.879	270.5
2159.51	255.83333
2162.138	260.83333
2164.765	254.5
2167.39	243.16667
2170.013	271.83333
2172.634	260.16667
2175.254	245.5
2177.872	277.16667
2180.488	241.83333
2183.102	251.5
2185.714	236.16667
2188.325	232.83333
2190.934	245.16667
2193.541	239.83333
2196.146	237.16667
2198.75	224.5
2201.351	227.16667
2203.951	207.16667
2206.549	230.16667
2209.146	222.83333
2211.74	220.5
2214.333	234.16667
2216.924	220.83333
2219.514	223.83333
2222.101	219.5
2224.687	237.5
2227.271	212.5
2229.853	215.16667
2232.433	200.83333
2235.012	220.5
2237.589	216.83333
2240.164	236.5
2242.738	209.83333
2245.309	210.83333
2247.879	226.16667
2250.448	229.16667
2253.014	201.83333
2255.579	199.5
2258.142	205.83333
2260.703	206.5
2263.262	206.16667
2265.82	200.5
2268.376	220.16667
2270.93	203.5
2273.483	193.16667
2276.033	206.5
2278.583	202.5
2281.13	200.83333
2283.675	191.16667
2286.219	197.16667
2288.761	201.83333
2291.302	212.16667
2293.841	211.83333
2296.377	195.5
2298.913	204.83333
2301.446	215.5
2303.978	198.83333
2306.508	203.16667
2309.037	198.5
2311.563	193.83333
2314.088	199.83333
2316.612	184.16667
2319.133	195.5
2321.653	202.5
2324.171	191.5
2326.688	199.16667
2329.202	195.83333
2331.715	198.16667
2334.227	196.83333
2336.736	190.5
2339.244	190.5
2341.751	182.83333
2344.255	197.5
2346.758	193.83333
2349.259	185.5
2351.759	193.5
2354.257	181.5
2356.753	179.16667
2359.247	186.16667
2361.74	193.5
2364.231	187.16667
2366.721	193.83333
2369.209	183.83333
2371.695	186.5
2374.179	176.83333
2376.662	172.16667
2379.143	195.16667
2381.622	182.5
2384.1	184.83333
2386.576	182.5
2389.051	194.5
2391.524	201.83333
2393.995	198.16667
2396.464	182.83333
2398.932	180.16667
2401.398	188.5
2403.863	177.16667
2406.325	176.16667
2408.787	190.83333
2411.246	183.5
2413.704	184.16667
2416.16	180.83333
2418.615	178.16667
2421.068	187.5
2423.519	179.16667
2425.969	176.5
2428.417	192.5
2430.863	206.5
2433.308	193.83333
2435.751	185.83333
2438.193	180.16667
2440.633	192.83333
2443.071	188.83333
2445.508	171.5
2447.943	175.16667
2450.376	176.16667
2452.808	185.16667
2455.238	171.5
2457.667	202.16667
2460.093	171.83333
2462.519	169.5
2464.942	172.5
2467.365	178.83333
2469.785	187.83333
2472.204	184.5
2474.621	172.16667
2477.037	196.5
2479.451	164.5
2481.863	167.16667
2484.274	169.5
2486.683	177.83333
2489.091	193.83333
2491.497	181.5
2493.901	180.16667
2496.304	180.83333
2498.705	176.5
2501.105	176.16667
2503.503	194.5
2505.899	170.5
2508.294	192.16667
2510.687	173.5
2513.079	172.5
2515.469	169.5
2517.858	173.16667
2520.245	193.83333
2522.63	173.5
2525.014	167.83333
2527.396	170.5
2529.776	167.5
2532.156	185.16667
2534.533	172.83333
2536.909	169.16667
2539.283	156.5
2541.656	167.83333
2544.027	185.16667
2546.397	180.16667
2548.765	178.83333
2551.131	167.5
2553.496	173.83333
2555.86	174.83333
2558.221	179.16667
2560.582	166.5
2562.94	161.5
2565.298	177.16667
2567.653	179.83333
2570.007	163.83333
2572.36	178.16667
2574.711	167.83333
2577.06	189.5
2579.408	176.83333
2581.754	172.5
2584.099	174.16667
2586.442	172.16667
2588.784	176.16667
2591.124	169.83333
2593.463	169.83333
2595.8	178.83333
2598.135	162.16667
2600.469	164.83333
2602.802	179.16667
2605.133	181.83333
2607.462	165.5
2609.79	161.5
2612.116	183.16667
2614.441	168.5
2616.764	176.5
2619.086	176.83333
2621.406	172.16667
2623.725	186.83333
2626.042	169.83333
2628.358	167.5
2630.672	173.16667
2632.985	181.5
2635.296	179.16667
2637.606	180.83333
2639.914	170.16667
2642.22	169.83333
2644.525	181.16667
2646.829	177.83333
2649.131	183.83333
2651.432	179.16667
2653.731	173.16667
2656.028	181.83333
2658.324	180.83333
2660.619	165.83333
2662.912	185.83333
2665.204	162.16667
2667.494	180.5
2669.782	172.16667
2672.07	187.5
2674.355	188.83333
2676.639	181.83333
2678.922	175.16667
2681.203	183.83333
2683.483	173.83333
2685.761	168.5
2688.038	189.16667
2690.313	196.5
2692.587	178.5
2694.859	180.5
2697.13	183.16667
2699.399	187.16667
2701.667	193.16667
2703.933	187.5
2706.198	193.83333
2708.461	189.5
2710.723	188.83333
2712.984	192.83333
2715.243	191.5
2717.5	190.83333
2719.757	198.83333
2722.011	191.83333
2724.264	196.16667
2726.516	206.16667
2728.766	189.16667
2731.015	191.83333
2733.262	196.5
2735.508	191.5
2737.753	201.83333
2739.996	185.83333
2742.237	181.16667
2744.477	197.83333
2746.716	200.5
2748.953	202.5
2751.189	200.83333
2753.423	202.83333
2755.656	188.16667
2757.887	182.16667
2760.117	189.83333
2762.346	183.16667
2764.573	174.83333
2766.798	179.83333
2769.022	190.83333
2771.245	185.16667
2773.467	186.16667
2775.686	190.5
2777.905	195.83333
2780.122	192.83333
2782.337	192.5
2784.552	186.83333
2786.764	191.16667
2788.976	191.16667
2791.186	202.5
2793.394	196.83333
2795.601	203.16667
2797.807	200.5
2800.011	205.83333
2802.214	209.16667
2804.415	206.5
2806.615	206.5
2808.814	208.16667
2811.011	208.16667
2813.206	218.5
2815.401	225.16667
2817.594	216.83333
2819.785	225.16667
2821.975	212.5
2824.164	214.5
2826.351	212.16667
2828.537	233.16667
2830.722	223.5
2832.905	220.83333
2835.086	234.83333
2837.267	247.5
2839.445	245.5
2841.623	246.83333
2843.799	255.16667
2845.974	262.83333
2848.147	262.5
2850.319	268.83333
2852.489	278.83333
2854.659	280.5
2856.826	279.5
2858.993	299.5
2861.158	273.16667
2863.321	284.16667
2865.483	307.83333
2867.644	293.5
2869.804	293.83333
2871.962	292.16667
2874.118	291.5
2876.274	298.5
2878.428	299.5
2880.58	303.5
2882.731	271.83333
2884.881	293.83333
2887.03	295.5
2889.177	299.16667
2891.322	304.83333
2893.467	291.83333
2895.61	288.5
2897.751	309.83333
2899.892	294.83333
2902.03	298.5
2904.168	297.16667
2906.304	306.16667
2908.439	313.83333
2910.572	293.16667
2912.704	304.83333
2914.835	310.16667
2916.965	306.16667
2919.093	323.16667
2921.219	295.16667
2923.345	337.16667
2925.469	312.16667
2927.591	300.5
2929.712	284.83333
2931.832	291.83333
2933.951	291.5
2936.068	284.83333
2938.184	281.83333
2940.299	280.83333
2942.412	273.16667
2944.524	257.5
2946.634	260.5
2948.744	242.16667
2950.851	277.16667
2952.958	249.83333
2955.063	256.83333
2957.167	244.5
2959.269	230.83333
2961.371	260.5
2963.471	233.16667
2965.569	249.83333
2967.666	223.83333
2969.762	225.83333
2971.857	221.83333
2973.95	215.16667
2976.042	223.83333
2978.133	221.5
2980.222	213.5
2982.31	199.5
2984.396	190.83333
2986.482	198.83333
2988.566	205.5
2990.648	198.5
2992.73	202.16667
2994.81	194.16667
2996.889	201.16667
2998.966	195.83333
3001.042	205.16667
3003.117	191.16667
3005.191	195.83333
3007.263	203.83333
3009.334	188.16667
3011.403	196.5
3013.472	184.5
3015.539	210.83333
3017.604	210.5
3019.669	176.83333
3021.732	179.83333
3023.794	189.5
3025.854	179.16667
3027.914	178.5
3029.971	175.5
3032.028	179.16667
3034.083	194.83333
3036.137	178.83333
3038.19	169.83333
3040.242	156.83333
3042.292	160.5
3044.341	162.83333
3046.388	180.16667
3048.435	159.5
3050.48	178.83333
3052.524	164.16667
3054.566	148.16667
3056.607	165.83333
3058.647	154.5
3060.686	143.16667
3062.723	135.83333
3064.759	136.5
3066.794	0.16667
3068.828	-0.16667
3070.86	2.16667
