-0.839	140.79167
3.438	161.125
7.711	63.45833
11.981	40.79167
16.247	28.79167
20.509	36.125
24.768	35.45833
29.024	39.45833
33.276	33.79167
37.524	43.45833
41.769	26.79167
46.01	28.125
50.247	44.125
54.481	48.79167
58.712	53.125
62.939	34.45833
67.162	51.45833
71.382	48.125
75.599	36.79167
79.812	43.45833
84.021	60.125
88.227	39.79167
92.429	51.79167
96.628	39.125
100.823	53.79167
105.015	50.45833
109.204	44.125
113.388	53.79167
117.57	43.45833
121.748	59.79167
125.922	47.125
130.093	67.125
134.261	61.125
138.425	53.125
142.585	82.79167
146.742	64.79167
150.896	78.125
155.046	74.79167
159.193	114.125
163.336	160.125
167.476	282.45833
171.613	506.125
175.746	817.45833
179.875	1203.45833
184.002	1552.125
188.124	1831.45833
192.244	1933.125
196.36	1938.79167
200.472	1911.79167
204.581	1903.45833
208.687	1838.45833
212.79	1849.125
216.889	1843.125
220.984	1873.45833
225.077	1884.125
229.165	1879.125
233.251	1880.45833
237.333	1872.79167
241.412	1873.125
245.487	1871.79167
249.559	1824.79167
253.628	1837.125
257.694	1810.45833
261.756	1804.125
265.814	1768.125
269.87	1722.125
273.922	1676.125
277.97	1661.79167
282.016	1668.45833
286.058	1655.79167
290.097	1679.45833
294.132	1708.125
298.164	1694.45833
302.193	1634.79167
306.219	1508.45833
310.241	1438.125
314.26	1336.125
318.276	1268.79167
322.288	1214.45833
326.297	1185.79167
330.303	1149.79167
334.305	1125.79167
338.305	1119.79167
342.301	1118.45833
346.294	1126.45833
350.283	1120.45833
354.269	1103.125
358.252	1090.45833
362.232	1098.79167
366.209	1091.79167
370.182	1082.125
374.152	1077.45833
378.119	1089.125
382.083	1082.79167
386.043	1102.125
390	1067.125
393.954	1076.45833
397.905	1066.79167
401.852	1093.125
405.797	1074.45833
409.738	1055.45833
413.676	1083.45833
417.61	1090.125
421.542	1077.45833
425.47	1062.79167
429.396	1054.125
433.318	1043.125
437.236	1061.45833
441.152	1080.125
445.065	1026.45833
448.974	1034.79167
452.88	1017.45833
456.783	1025.45833
460.683	1013.45833
464.58	1023.125
468.473	1031.45833
472.364	1036.125
476.251	1019.45833
480.135	1041.79167
484.016	1046.79167
487.894	1056.79167
491.769	1052.45833
495.641	1043.79167
499.509	1048.45833
503.375	1050.79167
507.237	1052.79167
511.096	1045.125
514.952	1054.45833
518.805	1043.45833
522.655	1048.125
526.502	1036.125
530.346	1050.79167
534.187	1046.45833
538.024	1048.125
541.859	1043.79167
545.69	1063.125
549.519	1068.45833
553.344	1051.45833
557.166	1020.125
560.985	1020.125
564.802	1020.45833
568.615	1022.125
572.425	1004.45833
576.232	1001.125
580.036	994.45833
583.836	1001.45833
587.634	1000.45833
591.429	985.79167
595.221	1022.79167
599.01	1017.45833
602.796	1034.125
606.578	1013.125
610.358	1024.79167
614.135	1016.45833
617.909	1027.125
621.679	1010.79167
625.447	996.79167
629.212	1001.45833
632.973	1010.125
636.732	994.125
640.488	1020.125
644.241	985.79167
647.991	988.45833
651.737	1027.79167
655.481	973.79167
659.222	976.79167
662.96	970.79167
666.695	996.125
670.427	999.125
674.156	1001.125
677.882	1008.125
681.605	1000.79167
685.325	977.45833
689.043	1003.125
692.757	972.45833
696.468	989.45833
700.177	986.125
703.882	973.45833
707.585	963.125
711.284	975.125
714.981	965.125
718.675	961.45833
722.366	973.125
726.054	955.125
729.739	970.125
733.421	957.45833
737.1	957.79167
740.777	969.79167
744.45	981.79167
748.121	962.79167
751.789	1009.125
755.453	985.45833
759.115	986.45833
762.774	988.79167
766.431	990.125
770.084	1003.79167
773.734	1009.125
777.382	1024.125
781.027	1016.79167
784.669	1021.125
788.308	1022.45833
791.944	1029.125
795.577	1042.45833
799.208	1050.125
802.835	1035.125
806.46	1050.79167
810.082	1038.125
813.701	1025.125
817.317	1044.125
820.931	1058.125
824.542	1060.79167
828.149	1043.79167
831.754	1034.125
835.357	1026.79167
838.956	1031.45833
842.553	1024.125
846.146	1010.79167
849.737	997.125
853.326	1009.125
856.911	995.45833
860.493	1017.125
864.073	1024.125
867.65	1031.79167
871.225	1045.79167
874.796	1035.125
878.365	1040.125
881.931	1054.125
885.494	1065.79167
889.054	1046.45833
892.612	1059.125
896.166	1031.125
899.719	1027.125
903.268	1010.79167
906.814	1009.79167
910.358	998.125
913.899	988.79167
917.438	983.45833
920.973	985.125
924.506	992.79167
928.036	1012.79167
931.564	1016.79167
935.088	1038.79167
938.61	1028.125
942.129	1033.79167
945.646	1033.45833
949.16	1047.45833
952.671	1063.45833
956.179	1074.125
959.685	1051.45833
963.188	1067.125
966.688	1043.45833
970.185	1011.79167
973.68	996.79167
977.173	994.45833
980.662	978.45833
984.149	994.79167
987.633	988.79167
991.114	996.125
994.593	1005.79167
998.069	1016.125
1001.542	1031.125
1005.013	1035.79167
1008.481	978.45833
1011.947	976.79167
1015.409	954.125
1018.869	958.125
1022.327	968.45833
1025.782	944.45833
1029.234	934.45833
1032.683	929.125
1036.13	917.45833
1039.574	884.45833
1043.016	854.45833
1046.455	855.79167
1049.891	846.125
1053.325	851.45833
1056.756	845.79167
1060.184	840.79167
1063.61	833.45833
1067.033	851.125
1070.454	843.125
1073.872	851.45833
1077.287	842.79167
1080.7	849.79167
1084.11	838.125
1087.517	855.125
1090.922	837.79167
1094.325	822.79167
1097.724	822.45833
1101.122	822.125
1104.516	815.125
1107.908	806.45833
1111.298	817.45833
1114.684	829.79167
1118.069	821.79167
1121.45	850.45833
1124.83	831.45833
1128.206	837.45833
1131.58	854.45833
1134.951	867.125
1138.32	884.79167
1141.687	914.79167
1145.05	926.79167
1148.412	931.45833
1151.77	925.125
1155.126	931.125
1158.48	905.79167
1161.831	915.45833
1165.18	914.45833
1168.525	929.45833
1171.869	934.79167
1175.21	941.45833
1178.548	965.125
1181.884	954.125
1185.217	960.125
1188.548	990.125
1191.877	1001.79167
1195.202	1060.125
1198.526	1062.45833
1201.846	1053.45833
1205.165	1060.79167
1208.48	1069.79167
1211.794	1056.79167
1215.104	1061.45833
1218.413	1057.125
1221.719	1072.79167
1225.022	1039.45833
1228.323	1028.79167
1231.621	1033.45833
1234.917	1030.45833
1238.21	1055.45833
1241.501	1028.45833
1244.79	1006.125
1248.076	991.45833
1251.359	1015.125
1254.64	1064.45833
1257.919	1032.125
1261.195	1054.79167
1264.468	1058.79167
1267.74	1071.45833
1271.008	1060.79167
1274.275	1071.125
1277.538	1090.79167
1280.8	1072.79167
1284.059	1071.125
1287.315	1082.125
1290.569	1080.125
1293.821	1079.79167
1297.07	1091.45833
1300.317	1095.125
1303.562	1105.79167
1306.803	1097.79167
1310.043	1079.45833
1313.28	1075.79167
1316.515	1066.125
1319.747	1079.45833
1322.977	1054.125
1326.204	1054.125
1329.429	1032.125
1332.652	1037.125
1335.872	1028.125
1339.09	1017.79167
1342.306	1018.45833
1345.519	1012.125
1348.729	1001.79167
1351.938	1005.45833
1355.144	994.45833
1358.347	984.45833
1361.548	988.79167
1364.747	1003.79167
1367.944	963.125
1371.138	968.125
1374.329	965.79167
1377.518	976.45833
1380.705	971.45833
1383.89	981.45833
1387.072	937.125
1390.252	930.45833
1393.429	902.79167
1396.605	875.125
1399.777	841.45833
1402.948	842.45833
1406.116	829.79167
1409.282	836.45833
1412.445	840.79167
1415.606	844.79167
1418.765	856.45833
1421.921	871.125
1425.075	873.79167
1428.227	892.45833
1431.376	923.125
1434.524	952.79167
1437.668	970.45833
1440.811	988.79167
1443.951	984.79167
1447.089	995.125
1450.224	993.125
1453.357	980.79167
1456.488	986.45833
1459.617	968.45833
1462.743	959.125
1465.867	914.125
1468.989	927.45833
1472.108	898.125
1475.225	888.45833
1478.34	871.45833
1481.453	875.79167
1484.563	857.79167
1487.671	884.79167
1490.776	890.125
1493.88	896.125
1496.981	919.125
1500.08	914.45833
1503.176	909.79167
1506.271	926.125
1509.363	940.79167
1512.452	933.125
1515.54	959.125
1518.625	957.79167
1521.708	1012.79167
1524.789	1019.79167
1527.867	1058.79167
1530.944	1110.45833
1534.018	1139.125
1537.089	1199.79167
1540.159	1202.79167
1543.226	1219.79167
1546.291	1181.45833
1549.354	1154.79167
1552.415	1157.45833
1555.473	1117.79167
1558.529	1117.79167
1561.583	1082.79167
1564.634	1077.45833
1567.684	1073.45833
1570.731	1081.45833
1573.776	1079.45833
1576.819	1089.79167
1579.859	1094.79167
1582.898	1111.125
1585.934	1131.79167
1588.968	1132.45833
1591.999	1097.79167
1595.029	1111.45833
1598.056	1117.125
1601.081	1146.125
1604.104	1144.125
1607.125	1122.45833
1610.144	1101.125
1613.16	1067.45833
1616.174	1036.125
1619.186	1034.125
1622.196	1014.125
1625.203	966.79167
1628.209	976.45833
1631.212	960.125
1634.213	964.125
1637.212	971.79167
1640.209	968.45833
1643.203	931.79167
1646.196	900.125
1649.186	874.45833
1652.174	862.45833
1655.16	837.45833
1658.144	829.125
1661.125	796.79167
1664.105	775.79167
1667.082	740.125
1670.057	700.125
1673.03	658.125
1676.001	624.45833
1678.97	584.125
1681.937	559.79167
1684.901	528.79167
1687.863	526.45833
1690.824	487.45833
1693.782	501.125
1696.738	468.79167
1699.692	471.79167
1702.643	452.79167
1705.593	454.45833
1708.54	450.125
1711.486	463.45833
1714.429	427.45833
1717.37	448.45833
1720.309	429.45833
1723.246	426.79167
1726.181	411.45833
1729.113	423.79167
1732.044	420.79167
1734.972	407.45833
1737.899	420.79167
1740.823	426.79167
1743.745	438.45833
1746.665	390.79167
1749.583	391.125
1752.499	394.79167
1755.413	391.79167
1758.325	381.125
1761.235	373.79167
1764.142	367.45833
1767.048	373.79167
1769.951	371.79167
1772.852	360.125
1775.752	368.45833
1778.649	368.45833
1781.544	385.45833
1784.437	352.45833
1787.328	366.45833
1790.217	357.45833
1793.104	341.45833
1795.989	340.45833
1798.872	343.125
1801.753	360.125
1804.631	343.45833
1807.508	353.125
1810.383	347.45833
1813.255	352.79167
1816.126	337.79167
1818.994	344.79167
1821.861	334.45833
1824.725	343.45833
1827.587	337.79167
1830.448	332.125
1833.306	330.79167
1836.162	339.79167
1839.017	334.125
1841.869	336.125
1844.719	330.79167
1847.567	320.79167
1850.414	318.125
1853.258	319.45833
1856.1	325.45833
1858.94	332.79167
1861.778	327.79167
1864.614	314.79167
1867.448	332.125
1870.28	307.79167
1873.111	337.79167
1875.939	315.79167
1878.765	329.45833
1881.589	312.45833
1884.411	317.79167
1887.231	319.45833
1890.049	319.125
1892.865	316.79167
1895.68	308.45833
1898.492	317.79167
1901.302	307.45833
1904.11	319.125
1906.916	305.125
1909.721	297.45833
1912.523	308.79167
1915.323	292.45833
1918.122	295.79167
1920.918	310.45833
1923.712	296.79167
1926.505	304.125
1929.295	282.45833
1932.084	296.45833
1934.87	305.45833
1937.655	291.79167
1940.438	286.125
1943.218	297.45833
1945.997	290.45833
1948.774	299.125
1951.549	300.125
1954.322	289.125
1957.093	291.45833
1959.862	285.125
1962.629	294.79167
1965.394	284.79167
1968.157	268.45833
1970.918	292.79167
1973.678	275.79167
1976.435	296.79167
1979.19	278.45833
1981.944	272.45833
1984.696	279.125
1987.445	269.125
1990.193	271.45833
1992.939	289.125
1995.683	274.79167
1998.425	262.45833
2001.165	299.125
2003.903	262.45833
2006.639	271.45833
2009.374	281.45833
2012.106	276.45833
2014.837	248.79167
2017.566	273.45833
2020.292	271.45833
2023.017	264.45833
2025.74	258.45833
2028.461	261.125
2031.18	269.125
2033.898	259.79167
2036.613	262.45833
2039.327	267.79167
2042.038	254.45833
2044.748	261.79167
2047.456	262.79167
2050.162	247.45833
2052.866	257.125
2055.568	274.79167
2058.268	250.45833
2060.967	273.79167
2063.663	247.125
2066.358	240.125
2069.051	244.45833
2071.742	251.79167
2074.431	266.45833
2077.118	255.79167
2079.804	242.79167
2082.487	251.79167
2085.169	260.45833
2087.849	268.125
2090.527	249.79167
2093.203	258.45833
2095.877	252.45833
2098.55	255.125
2101.22	261.45833
2103.889	263.125
2106.556	255.125
2109.221	276.125
2111.884	274.79167
2114.546	297.79167
2117.205	304.125
2119.863	342.79167
2122.519	332.79167
2125.173	362.125
2127.825	389.125
2130.475	384.79167
2133.124	367.45833
2135.771	350.79167
2138.416	364.79167
2141.059	325.79167
2143.7	324.79167
2146.339	305.45833
2148.977	277.125
2151.613	281.125
2154.247	273.125
2156.879	264.79167
2159.51	259.79167
2162.138	253.79167
2164.765	261.79167
2167.39	233.125
2170.013	267.125
2172.634	258.45833
2175.254	236.125
2177.872	279.125
2180.488	224.79167
2183.102	241.79167
2185.714	232.125
2188.325	223.79167
2190.934	229.125
2193.541	236.45833
2196.146	235.125
2198.75	215.125
2201.351	222.45833
2203.951	209.125
2206.549	224.45833
2209.146	214.125
2211.74	207.45833
2214.333	218.125
2216.924	203.125
2219.514	211.125
2222.101	207.45833
2224.687	227.125
2227.271	202.125
2229.853	208.79167
2232.433	191.125
2235.012	218.45833
2237.589	214.125
2240.164	227.45833
2242.738	206.79167
2245.309	194.45833
2247.879	215.125
2250.448	211.125
2253.014	196.79167
2255.579	184.45833
2258.142	196.125
2260.703	193.45833
2263.262	196.79167
2265.82	188.125
2268.376	200.125
2270.93	182.45833
2273.483	179.79167
2276.033	199.125
2278.583	186.45833
2281.13	180.79167
2283.675	181.125
2286.219	183.79167
2288.761	198.79167
2291.302	189.45833
2293.841	198.125
2296.377	180.45833
2298.913	187.45833
2301.446	197.79167
2303.978	188.45833
2306.508	181.45833
2309.037	181.125
2311.563	188.125
2314.088	180.79167
2316.612	163.45833
2319.133	188.79167
2321.653	186.125
2324.171	179.125
2326.688	189.45833
2329.202	179.79167
2331.715	184.125
2334.227	183.125
2336.736	179.79167
2339.244	171.45833
2341.751	160.125
2344.255	181.125
2346.758	176.125
2349.259	173.45833
2351.759	179.125
2354.257	166.125
2356.753	167.45833
2359.247	166.79167
2361.74	177.45833
2364.231	173.125
2366.721	179.125
2369.209	167.79167
2371.695	168.125
2374.179	165.125
2376.662	156.45833
2379.143	178.45833
2381.622	165.45833
2384.1	175.45833
2386.576	163.79167
2389.051	176.125
2391.524	176.79167
2393.995	169.125
2396.464	167.79167
2398.932	159.79167
2401.398	168.45833
2403.863	154.125
2406.325	164.125
2408.787	167.45833
2411.246	163.125
2413.704	167.79167
2416.16	160.45833
2418.615	156.79167
2421.068	168.125
2423.519	159.45833
2425.969	151.45833
2428.417	168.79167
2430.863	177.79167
2433.308	167.125
2435.751	157.45833
2438.193	167.45833
2440.633	161.45833
2443.071	162.125
2445.508	149.125
2447.943	160.79167
2450.376	155.45833
2452.808	166.125
2455.238	149.79167
2457.667	187.125
2460.093	149.45833
2462.519	143.125
2464.942	151.79167
2467.365	156.45833
2469.785	160.125
2472.204	144.79167
2474.621	153.125
2477.037	170.79167
2479.451	143.79167
2481.863	142.125
2484.274	146.45833
2486.683	149.79167
2489.091	166.45833
2491.497	151.45833
2493.901	152.125
2496.304	146.45833
2498.705	161.79167
2501.105	149.79167
2503.503	166.79167
2505.899	137.125
2508.294	167.45833
2510.687	144.79167
2513.079	144.125
2515.469	145.125
2517.858	137.45833
2520.245	163.45833
2522.63	143.45833
2525.014	145.45833
2527.396	140.45833
2529.776	141.79167
2532.156	151.79167
2534.533	133.79167
2536.909	133.45833
2539.283	121.45833
2541.656	140.125
2544.027	155.125
2546.397	144.45833
2548.765	144.45833
2551.131	137.125
2553.496	148.125
2555.86	146.79167
2558.221	147.125
2560.582	143.125
2562.94	128.79167
2565.298	141.125
2567.653	149.45833
2570.007	130.79167
2572.36	148.125
2574.711	136.125
2577.06	152.79167
2579.408	141.45833
2581.754	137.45833
2584.099	136.125
2586.442	136.79167
2588.784	138.79167
2591.124	135.79167
2593.463	134.79167
2595.8	149.79167
2598.135	130.45833
2600.469	133.45833
2602.802	148.45833
2605.133	143.79167
2607.462	128.45833
2609.79	122.79167
2612.116	144.79167
2614.441	132.125
2616.764	139.79167
2619.086	137.79167
2621.406	134.125
2623.725	140.45833
2626.042	137.79167
2628.358	128.79167
2630.672	133.79167
2632.985	146.45833
2635.296	138.125
2637.606	133.45833
2639.914	130.45833
2642.22	129.45833
2644.525	138.45833
2646.829	134.79167
2649.131	151.125
2651.432	141.125
2653.731	133.125
2656.028	138.79167
2658.324	144.45833
2660.619	124.125
2662.912	138.45833
2665.204	121.79167
2667.494	139.125
2669.782	130.125
2672.07	140.125
2674.355	144.45833
2676.639	137.125
2678.922	127.125
2681.203	139.125
2683.483	129.45833
2685.761	124.125
2688.038	142.45833
2690.313	149.79167
2692.587	134.125
2694.859	133.125
2697.13	137.45833
2699.399	138.45833
2701.667	143.125
2703.933	139.125
2706.198	151.125
2708.461	143.45833
2710.723	145.45833
2712.984	139.125
2715.243	152.125
2717.5	138.79167
2719.757	149.45833
2722.011	136.79167
2724.264	149.45833
2726.516	153.125
2728.766	135.79167
2731.015	151.79167
2733.262	144.45833
2735.508	141.79167
2737.753	144.125
2739.996	130.125
2742.237	130.125
2744.477	147.125
2746.716	149.45833
2748.953	152.45833
2751.189	146.45833
2753.423	140.79167
2755.656	135.45833
2757.887	129.125
2760.117	133.125
2762.346	128.125
2764.573	120.125
2766.798	132.45833
2769.022	131.45833
2771.245	133.125
2773.467	129.45833
2775.686	133.79167
2777.905	133.79167
2780.122	132.125
2782.337	133.79167
2784.552	135.45833
2786.764	138.79167
2788.976	125.125
2791.186	136.79167
2793.394	135.125
2795.601	144.125
2797.807	146.125
2800.011	140.125
2802.214	146.79167
2804.415	146.79167
2806.615	144.125
2808.814	147.125
2811.011	148.125
2813.206	146.125
2815.401	158.79167
2817.594	159.45833
2819.785	161.45833
2821.975	143.125
2824.164	154.125
2826.351	154.45833
2828.537	170.79167
2830.722	171.125
2832.905	161.125
2835.086	171.45833
2837.267	187.79167
2839.445	188.125
2841.623	183.79167
2843.799	192.125
2845.974	197.45833
2848.147	207.79167
2850.319	211.45833
2852.489	219.125
2854.659	221.79167
2856.826	220.79167
2858.993	235.79167
2861.158	218.45833
2863.321	222.45833
2865.483	241.79167
2867.644	240.125
2869.804	228.79167
2871.962	230.79167
2874.118	233.125
2876.274	238.45833
2878.428	231.45833
2880.58	236.125
2882.731	225.79167
2884.881	234.45833
2887.03	239.79167
2889.177	227.125
2891.322	235.45833
2893.467	221.79167
2895.61	231.45833
2897.751	242.45833
2899.892	229.125
2902.03	230.79167
2904.168	230.79167
2906.304	235.125
2908.439	258.79167
2910.572	230.45833
2912.704	244.45833
2914.835	239.125
2916.965	243.79167
2919.093	257.79167
2921.219	227.125
2923.345	254.45833
2925.469	239.125
2927.591	233.79167
2929.712	217.79167
2931.832	233.125
2933.951	224.79167
2936.068	220.45833
2938.184	218.79167
2940.299	207.125
2942.412	209.45833
2944.524	186.79167
2946.634	199.45833
2948.744	174.45833
2950.851	203.45833
2952.958	178.125
2955.063	180.45833
2957.167	176.125
2959.269	159.125
2961.371	187.125
2963.471	161.125
2965.569	179.125
2967.666	154.125
2969.762	152.125
2971.857	145.125
2973.95	141.45833
2976.042	150.45833
2978.133	140.79167
2980.222	143.79167
2982.31	129.79167
2984.396	113.125
2986.482	122.125
2988.566	127.45833
2990.648	125.125
2992.73	126.79167
2994.81	113.79167
2996.889	122.79167
2998.966	124.125
3001.042	133.45833
3003.117	117.125
3005.191	121.79167
3007.263	129.45833
3009.334	117.79167
3011.403	121.125
3013.472	115.45833
3015.539	128.125
3017.604	134.45833
3019.669	108.125
3021.732	107.79167
3023.794	117.79167
3025.854	107.79167
3027.914	98.79167
3029.971	100.79167
3032.028	103.125
3034.083	116.45833
3036.137	111.45833
3038.19	101.125
3040.242	94.125
3042.292	93.125
3044.341	98.79167
3046.388	109.79167
3048.435	94.79167
3050.48	111.125
3052.524	99.45833
3054.566	84.45833
3056.607	96.45833
3058.647	94.45833
3060.686	86.125
3062.723	76.45833
3064.759	79.79167
3066.794	0.79167
3068.828	-0.875
3070.86	2.45833
