-0.839	143.08333
3.438	166.08333
7.711	70.75
11.981	44.41667
16.247	33.75
20.509	41.08333
24.768	36.08333
29.024	43.41667
33.276	32.75
37.524	42.75
41.769	29.75
46.01	27.41667
50.247	46.41667
54.481	53.75
58.712	55.41667
62.939	37.75
67.162	53.75
71.382	47.41667
75.599	35.41667
79.812	45.08333
84.021	62.75
88.227	45.08333
92.429	51.41667
96.628	41.08333
100.823	51.08333
105.015	49.08333
109.204	48.08333
113.388	61.08333
117.57	46.75
121.748	59.08333
125.922	50.41667
130.093	62.75
134.261	70.41667
138.425	55.75
142.585	88.75
146.742	68.41667
150.896	79.08333
155.046	79.08333
159.193	113.75
163.336	173.08333
167.476	284.75
171.613	527.41667
175.746	843.41667
179.875	1232.75
184.002	1596.41667
188.124	1888.75
192.244	1981.75
196.36	1981.41667
200.472	1973.75
204.581	1957.75
208.687	1892.75
212.79	1888.75
216.889	1923.41667
220.984	1938.75
225.077	1939.08333
229.165	1964.08333
233.251	1965.08333
237.333	1964.75
241.412	1964.75
245.487	1945.08333
249.559	1915.08333
253.628	1921.41667
257.694	1877.41667
261.756	1887.75
265.814	1838.08333
269.87	1785.41667
273.922	1747.75
277.97	1747.75
282.016	1741.75
286.058	1721.08333
290.097	1757.41667
294.132	1745.41667
298.164	1750.75
302.193	1672.08333
306.219	1595.75
310.241	1485.75
314.26	1400.41667
318.276	1331.08333
322.288	1293.75
326.297	1244.75
330.303	1212.75
334.305	1208.41667
338.305	1204.75
342.301	1186.75
346.294	1178.08333
350.283	1181.75
354.269	1169.41667
358.252	1148.75
362.232	1157.75
366.209	1163.75
370.182	1153.41667
374.152	1136.41667
378.119	1150.08333
382.083	1142.75
386.043	1151.08333
390	1146.41667
393.954	1161.41667
397.905	1151.75
401.852	1170.75
405.797	1151.75
409.738	1140.41667
413.676	1147.08333
417.61	1147.75
421.542	1157.75
425.47	1119.41667
429.396	1138.41667
433.318	1112.75
437.236	1117.75
441.152	1150.75
445.065	1095.08333
448.974	1118.41667
452.88	1108.75
456.783	1096.75
460.683	1100.08333
464.58	1096.08333
468.473	1099.75
472.364	1103.08333
476.251	1094.75
480.135	1105.08333
484.016	1124.08333
487.894	1131.75
491.769	1132.75
495.641	1112.75
499.509	1135.08333
503.375	1129.08333
507.237	1131.08333
511.096	1124.75
514.952	1157.75
518.805	1180.41667
522.655	1186.75
526.502	1150.41667
530.346	1145.08333
534.187	1127.41667
538.024	1141.41667
541.859	1118.75
545.69	1136.75
549.519	1147.08333
553.344	1136.41667
557.166	1110.08333
560.985	1114.41667
564.802	1109.41667
568.615	1101.08333
572.425	1084.41667
576.232	1071.75
580.036	1073.75
583.836	1066.41667
587.634	1078.08333
591.429	1077.08333
595.221	1120.75
599.01	1088.08333
602.796	1092.08333
606.578	1099.75
610.358	1104.08333
614.135	1087.08333
617.909	1097.08333
621.679	1092.08333
625.447	1077.08333
629.212	1085.75
632.973	1081.41667
636.732	1085.75
640.488	1099.08333
644.241	1074.41667
647.991	1068.41667
651.737	1084.08333
655.481	1039.08333
659.222	1060.75
662.96	1035.08333
666.695	1072.41667
670.427	1064.75
674.156	1076.75
677.882	1075.08333
681.605	1067.08333
685.325	1070.75
689.043	1096.75
692.757	1063.75
696.468	1059.75
700.177	1058.41667
703.882	1043.75
707.585	1038.41667
711.284	1044.41667
714.981	1037.41667
718.675	1036.75
722.366	1050.75
726.054	1027.08333
729.739	1038.41667
733.421	1042.41667
737.1	1037.08333
740.777	1045.08333
744.45	1037.75
748.121	1046.08333
751.789	1067.75
755.453	1061.41667
759.115	1073.08333
762.774	1061.75
766.431	1050.41667
770.084	1079.41667
773.734	1075.08333
777.382	1080.08333
781.027	1093.75
784.669	1098.08333
788.308	1088.08333
791.944	1097.41667
795.577	1104.41667
799.208	1100.41667
802.835	1114.75
806.46	1103.08333
810.082	1122.08333
813.701	1111.08333
817.317	1115.08333
820.931	1122.08333
824.542	1126.41667
828.149	1103.75
831.754	1101.41667
835.357	1089.08333
838.956	1106.08333
842.553	1100.75
846.146	1093.08333
849.737	1075.41667
853.326	1085.08333
856.911	1046.08333
860.493	1102.08333
864.073	1093.75
867.65	1105.08333
871.225	1122.75
874.796	1096.08333
878.365	1102.08333
881.931	1107.41667
885.494	1115.75
889.054	1118.75
892.612	1119.08333
896.166	1094.75
899.719	1094.75
903.268	1062.08333
906.814	1065.41667
910.358	1067.75
913.899	1044.08333
917.438	1059.08333
920.973	1028.41667
924.506	1048.75
928.036	1064.75
931.564	1075.75
935.088	1097.75
938.61	1082.41667
942.129	1077.08333
945.646	1102.08333
949.16	1114.41667
952.671	1134.08333
956.179	1144.41667
959.685	1108.08333
963.188	1126.08333
966.688	1086.75
970.185	1087.08333
973.68	1052.08333
977.173	1058.75
980.662	1040.41667
984.149	1041.08333
987.633	1019.08333
991.114	1039.75
994.593	1059.41667
998.069	1075.75
1001.542	1091.41667
1005.013	1080.41667
1008.481	1037.41667
1011.947	1023.75
1015.409	998.41667
1018.869	1025.41667
1022.327	1006.75
1025.782	1002.08333
1029.234	977.41667
1032.683	980.75
1036.13	959.08333
1039.574	921.08333
1043.016	901.41667
1046.455	897.08333
1049.891	884.41667
1053.325	899.08333
1056.756	896.75
1060.184	893.75
1063.61	873.08333
1067.033	891.41667
1070.454	876.41667
1073.872	919.08333
1077.287	886.75
1080.7	888.75
1084.11	880.08333
1087.517	884.75
1090.922	882.41667
1094.325	870.08333
1097.724	855.08333
1101.122	867.75
1104.516	860.08333
1107.908	844.08333
1111.298	861.08333
1114.684	873.75
1118.069	881.75
1121.45	894.41667
1124.83	874.41667
1128.206	881.08333
1131.58	912.08333
1134.951	927.75
1138.32	929.41667
1141.687	968.41667
1145.05	992.41667
1148.412	968.41667
1151.77	974.75
1155.126	966.08333
1158.48	958.08333
1161.831	959.75
1165.18	969.41667
1168.525	985.75
1171.869	994.41667
1175.21	985.08333
1178.548	1010.41667
1181.884	1008.75
1185.217	1016.08333
1188.548	1046.41667
1191.877	1055.41667
1195.202	1115.08333
1198.526	1108.75
1201.846	1122.08333
1205.165	1108.75
1208.48	1123.08333
1211.794	1106.08333
1215.104	1112.41667
1218.413	1094.08333
1221.719	1105.08333
1225.022	1071.75
1228.323	1061.75
1231.621	1082.75
1234.917	1067.08333
1238.21	1087.75
1241.501	1079.75
1244.79	1048.41667
1248.076	1035.41667
1251.359	1058.75
1254.64	1107.75
1257.919	1080.41667
1261.195	1100.75
1264.468	1106.08333
1267.74	1114.08333
1271.008	1116.75
1274.275	1115.75
1277.538	1118.08333
1280.8	1105.41667
1284.059	1097.08333
1287.315	1119.08333
1290.569	1119.75
1293.821	1119.41667
1297.07	1121.08333
1300.317	1135.41667
1303.562	1137.41667
1306.803	1113.75
1310.043	1117.75
1313.28	1114.41667
1316.515	1097.75
1319.747	1098.41667
1322.977	1076.08333
1326.204	1083.08333
1329.429	1069.08333
1332.652	1062.08333
1335.872	1066.08333
1339.09	1035.41667
1342.306	1043.08333
1345.519	1031.41667
1348.729	1028.75
1351.938	1023.41667
1355.144	1025.08333
1358.347	1009.08333
1361.548	1006.75
1364.747	996.41667
1367.944	982.41667
1371.138	995.08333
1374.329	996.08333
1377.518	1017.41667
1380.705	1019.41667
1383.89	1024.08333
1387.072	973.41667
1390.252	949.41667
1393.429	930.08333
1396.605	912.41667
1399.777	883.41667
1402.948	868.41667
1406.116	840.75
1409.282	859.41667
1412.445	850.08333
1415.606	876.08333
1418.765	873.08333
1421.921	888.75
1425.075	884.08333
1428.227	914.08333
1431.376	949.41667
1434.524	976.41667
1437.668	995.75
1440.811	1014.08333
1443.951	1007.75
1447.089	1015.08333
1450.224	1005.75
1453.357	1015.08333
1456.488	994.75
1459.617	977.41667
1462.743	972.41667
1465.867	939.08333
1468.989	949.75
1472.108	924.75
1475.225	919.08333
1478.34	902.41667
1481.453	895.41667
1484.563	891.75
1487.671	897.41667
1490.776	924.08333
1493.88	923.75
1496.981	953.75
1500.08	953.41667
1503.176	963.08333
1506.271	972.75
1509.363	973.75
1512.452	985.41667
1515.54	999.08333
1518.625	1016.75
1521.708	1048.75
1524.789	1061.41667
1527.867	1092.08333
1530.944	1135.08333
1534.018	1180.41667
1537.089	1219.75
1540.159	1250.08333
1543.226	1249.08333
1546.291	1228.75
1549.354	1199.75
1552.415	1184.75
1555.473	1148.75
1558.529	1136.75
1561.583	1126.08333
1564.634	1109.41667
1567.684	1106.41667
1570.731	1101.08333
1573.776	1116.08333
1576.819	1119.41667
1579.859	1139.41667
1582.898	1136.75
1585.934	1161.08333
1588.968	1170.08333
1591.999	1141.08333
1595.029	1142.08333
1598.056	1166.08333
1601.081	1176.75
1604.104	1167.08333
1607.125	1153.08333
1610.144	1125.75
1613.16	1097.08333
1616.174	1070.41667
1619.186	1044.41667
1622.196	1021.75
1625.203	993.08333
1628.209	985.75
1631.212	968.75
1634.213	974.75
1637.212	961.41667
1640.209	954.41667
1643.203	926.08333
1646.196	897.41667
1649.186	871.75
1652.174	862.08333
1655.16	824.75
1658.144	828.75
1661.125	793.75
1664.105	758.75
1667.082	749.08333
1670.057	708.41667
1673.03	672.75
1676.001	640.08333
1678.97	598.08333
1681.937	566.41667
1684.901	545.41667
1687.863	546.75
1690.824	508.08333
1693.782	518.41667
1696.738	482.75
1699.692	480.75
1702.643	473.75
1705.593	466.75
1708.54	467.08333
1711.486	478.08333
1714.429	443.08333
1717.37	449.75
1720.309	432.41667
1723.246	450.41667
1726.181	430.08333
1729.113	438.75
1732.044	431.08333
1734.972	424.41667
1737.899	442.75
1740.823	435.75
1743.745	454.75
1746.665	414.75
1749.583	405.08333
1752.499	397.75
1755.413	395.08333
1758.325	395.75
1761.235	400.75
1764.142	381.41667
1767.048	387.08333
1769.951	383.41667
1772.852	379.75
1775.752	389.75
1778.649	385.08333
1781.544	396.08333
1784.437	366.75
1787.328	379.41667
1790.217	374.41667
1793.104	353.75
1795.989	354.08333
1798.872	350.75
1801.753	379.75
1804.631	370.08333
1807.508	376.75
1810.383	362.41667
1813.255	364.41667
1816.126	350.08333
1818.994	357.75
1821.861	352.75
1824.725	359.08333
1827.587	360.08333
1830.448	352.75
1833.306	342.41667
1836.162	356.75
1839.017	347.75
1841.869	340.08333
1844.719	347.08333
1847.567	327.41667
1850.414	326.75
1853.258	331.41667
1856.1	345.41667
1858.94	348.08333
1861.778	338.41667
1864.614	336.08333
1867.448	339.41667
1870.28	325.41667
1873.111	343.41667
1875.939	327.75
1878.765	341.08333
1881.589	320.08333
1884.411	333.75
1887.231	335.75
1890.049	329.41667
1892.865	345.41667
1895.68	320.75
1898.492	326.75
1901.302	323.41667
1904.11	326.41667
1906.916	326.08333
1909.721	316.75
1912.523	334.75
1915.323	313.08333
1918.122	317.08333
1920.918	328.08333
1923.712	314.08333
1926.505	319.41667
1929.295	299.08333
1932.084	322.41667
1934.87	315.41667
1937.655	304.41667
1940.438	304.41667
1943.218	306.75
1945.997	307.08333
1948.774	313.41667
1951.549	324.41667
1954.322	304.41667
1957.093	305.75
1959.862	305.75
1962.629	299.41667
1965.394	297.41667
1968.157	283.08333
1970.918	312.75
1973.678	293.75
1976.435	305.08333
1979.19	292.41667
1981.944	285.08333
1984.696	289.41667
1987.445	285.41667
1990.193	297.08333
1992.939	312.41667
1995.683	286.75
1998.425	265.41667
2001.165	313.41667
2003.903	280.75
2006.639	289.75
2009.374	294.75
2012.106	292.08333
2014.837	272.08333
2017.566	293.08333
2020.292	292.08333
2023.017	276.08333
2025.74	276.41667
2028.461	275.08333
2031.18	281.41667
2033.898	274.08333
2036.613	275.08333
2039.327	286.75
2042.038	264.75
2044.748	277.75
2047.456	279.41667
2050.162	268.08333
2052.866	269.75
2055.568	286.41667
2058.268	267.75
2060.967	281.75
2063.663	261.75
2066.358	264.08333
2069.051	261.41667
2071.742	261.75
2074.431	269.75
2077.118	269.75
2079.804	259.75
2082.487	265.41667
2085.169	283.75
2087.849	292.75
2090.527	267.75
2093.203	274.08333
2095.877	268.75
2098.55	258.41667
2101.22	279.41667
2103.889	277.08333
2106.556	273.75
2109.221	294.41667
2111.884	278.75
2114.546	307.41667
2117.205	318.08333
2119.863	344.41667
2122.519	357.41667
2125.173	374.41667
2127.825	400.41667
2130.475	405.08333
2133.124	385.75
2135.771	370.41667
2138.416	371.08333
2141.059	337.75
2143.7	339.41667
2146.339	315.41667
2148.977	287.08333
2151.613	297.08333
2154.247	293.41667
2156.879	294.08333
2159.51	276.75
2162.138	271.75
2164.765	268.08333
2167.39	256.08333
2170.013	282.41667
2172.634	278.08333
2175.254	260.08333
2177.872	291.08333
2180.488	244.08333
2183.102	254.08333
2185.714	251.41667
2188.325	240.75
2190.934	250.75
2193.541	258.41667
2196.146	250.08333
2198.75	235.41667
2201.351	236.41667
2203.951	223.08333
2206.549	241.08333
2209.146	238.75
2211.74	231.75
2214.333	238.08333
2216.924	223.75
2219.514	233.41667
2222.101	233.08333
2224.687	247.41667
2227.271	223.08333
2229.853	228.08333
2232.433	206.75
2235.012	229.41667
2237.589	229.08333
2240.164	242.08333
2242.738	226.41667
2245.309	217.41667
2247.879	232.41667
2250.448	232.41667
2253.014	221.08333
2255.579	208.41667
2258.142	212.08333
2260.703	217.41667
2263.262	215.08333
2265.82	208.08333
2268.376	219.75
2270.93	210.75
2273.483	203.41667
2276.033	215.41667
2278.583	203.08333
2281.13	209.41667
2283.675	200.08333
2286.219	207.41667
2288.761	208.08333
2291.302	213.75
2293.841	220.75
2296.377	199.08333
2298.913	212.41667
2301.446	217.75
2303.978	206.41667
2306.508	209.08333
2309.037	202.75
2311.563	207.75
2314.088	203.75
2316.612	196.08333
2319.133	206.75
2321.653	204.75
2324.171	204.08333
2326.688	213.08333
2329.202	207.75
2331.715	206.41667
2334.227	203.41667
2336.736	197.75
2339.244	195.08333
2341.751	193.08333
2344.255	200.75
2346.758	204.41667
2349.259	192.08333
2351.759	201.75
2354.257	189.08333
2356.753	188.41667
2359.247	192.41667
2361.74	197.08333
2364.231	197.41667
2366.721	203.75
2369.209	196.08333
2371.695	195.08333
2374.179	189.75
2376.662	176.08333
2379.143	209.08333
2381.622	194.75
2384.1	196.41667
2386.576	190.41667
2389.051	206.08333
2391.524	200.41667
2393.995	199.41667
2396.464	193.75
2398.932	185.41667
2401.398	193.08333
2403.863	184.41667
2406.325	184.75
2408.787	191.75
2411.246	188.41667
2413.704	188.75
2416.16	188.41667
2418.615	184.41667
2421.068	189.75
2423.519	183.08333
2425.969	184.75
2428.417	198.08333
2430.863	214.08333
2433.308	198.75
2435.751	191.08333
2438.193	189.75
2440.633	194.75
2443.071	195.75
2445.508	189.75
2447.943	192.75
2450.376	178.41667
2452.808	195.75
2455.238	172.08333
2457.667	211.08333
2460.093	181.75
2462.519	175.08333
2464.942	180.08333
2467.365	188.08333
2469.785	193.41667
2472.204	181.08333
2474.621	183.75
2477.037	202.41667
2479.451	179.08333
2481.863	176.41667
2484.274	172.08333
2486.683	181.41667
2489.091	198.08333
2491.497	189.41667
2493.901	183.08333
2496.304	178.75
2498.705	194.75
2501.105	183.08333
2503.503	199.41667
2505.899	178.08333
2508.294	195.41667
2510.687	181.75
2513.079	181.08333
2515.469	171.08333
2517.858	176.75
2520.245	197.41667
2522.63	183.75
2525.014	174.08333
2527.396	177.41667
2529.776	175.75
2532.156	180.41667
2534.533	171.08333
2536.909	176.08333
2539.283	158.41667
2541.656	177.75
2544.027	194.75
2546.397	186.41667
2548.765	175.41667
2551.131	181.08333
2553.496	180.75
2555.86	181.75
2558.221	184.08333
2560.582	176.41667
2562.94	163.41667
2565.298	176.08333
2567.653	189.08333
2570.007	168.41667
2572.36	188.75
2574.711	168.41667
2577.06	187.41667
2579.408	177.08333
2581.754	174.41667
2584.099	181.08333
2586.442	176.41667
2588.784	187.75
2591.124	180.08333
2593.463	177.08333
2595.8	181.75
2598.135	170.75
2600.469	177.08333
2602.802	184.08333
2605.133	182.75
2607.462	175.08333
2609.79	171.75
2612.116	183.75
2614.441	172.41667
2616.764	183.08333
2619.086	180.41667
2621.406	176.41667
2623.725	185.08333
2626.042	176.75
2628.358	169.08333
2630.672	183.75
2632.985	184.41667
2635.296	185.41667
2637.606	181.75
2639.914	173.08333
2642.22	173.41667
2644.525	184.08333
2646.829	180.41667
2649.131	192.08333
2651.432	184.08333
2653.731	182.75
2656.028	197.41667
2658.324	185.75
2660.619	175.75
2662.912	188.41667
2665.204	166.75
2667.494	189.08333
2669.782	174.75
2672.07	191.08333
2674.355	193.41667
2676.639	184.75
2678.922	177.08333
2681.203	180.41667
2683.483	172.75
2685.761	168.75
2688.038	188.41667
2690.313	197.08333
2692.587	188.75
2694.859	178.75
2697.13	187.08333
2699.399	185.75
2701.667	194.75
2703.933	191.41667
2706.198	194.41667
2708.461	202.08333
2710.723	193.08333
2712.984	191.08333
2715.243	201.08333
2717.5	191.75
2719.757	200.75
2722.011	189.75
2724.264	205.41667
2726.516	210.08333
2728.766	190.75
2731.015	193.41667
2733.262	196.08333
2735.508	194.08333
2737.753	196.08333
2739.996	183.08333
2742.237	186.75
2744.477	203.41667
2746.716	206.41667
2748.953	203.75
2751.189	205.08333
2753.423	192.08333
2755.656	193.75
2757.887	189.41667
2760.117	187.75
2762.346	187.75
2764.573	179.41667
2766.798	184.75
2769.022	187.75
2771.245	183.41667
2773.467	188.08333
2775.686	193.08333
2777.905	197.08333
2780.122	193.75
2782.337	192.75
2784.552	193.75
2786.764	192.41667
2788.976	184.41667
2791.186	196.41667
2793.394	200.08333
2795.601	209.75
2797.807	205.75
2800.011	204.41667
2802.214	211.08333
2804.415	208.08333
2806.615	208.08333
2808.814	210.41667
2811.011	210.08333
2813.206	210.75
2815.401	222.08333
2817.594	215.75
2819.785	226.08333
2821.975	211.41667
2824.164	218.41667
2826.351	210.75
2828.537	228.75
2830.722	232.75
2832.905	222.75
2835.086	231.08333
2837.267	249.41667
2839.445	248.75
2841.623	248.75
2843.799	252.08333
2845.974	262.75
2848.147	259.08333
2850.319	270.75
2852.489	280.41667
2854.659	287.75
2856.826	277.75
2858.993	298.08333
2861.158	279.75
2863.321	292.08333
2865.483	305.08333
2867.644	293.41667
2869.804	303.75
2871.962	285.75
2874.118	295.41667
2876.274	301.41667
2878.428	292.75
2880.58	302.75
2882.731	284.41667
2884.881	291.75
2887.03	299.41667
2889.177	298.75
2891.322	301.41667
2893.467	291.41667
2895.61	289.75
2897.751	315.75
2899.892	299.75
2902.03	308.41667
2904.168	301.08333
2906.304	299.08333
2908.439	322.41667
2910.572	294.75
2912.704	313.08333
2914.835	309.41667
2916.965	304.41667
2919.093	334.75
2921.219	298.08333
2923.345	324.41667
2925.469	307.75
2927.591	300.41667
2929.712	292.75
2931.832	303.41667
2933.951	289.41667
2936.068	282.75
2938.184	287.75
2940.299	267.75
2942.412	274.08333
2944.524	260.75
2946.634	262.41667
2948.744	243.75
2950.851	278.08333
2952.958	248.08333
2955.063	254.41667
2957.167	245.41667
2959.269	230.08333
2961.371	259.75
2963.471	235.08333
2965.569	257.08333
2967.666	228.08333
2969.762	230.41667
2971.857	223.41667
2973.95	217.08333
2976.042	222.41667
2978.133	214.08333
2980.222	214.08333
2982.31	199.75
2984.396	190.08333
2986.482	195.08333
2988.566	201.75
2990.648	195.75
2992.73	197.41667
2994.81	187.75
2996.889	194.08333
2998.966	194.75
3001.042	207.75
3003.117	192.41667
3005.191	194.75
3007.263	204.41667
3009.334	189.41667
3011.403	194.41667
3013.472	185.75
3015.539	201.08333
3017.604	208.75
3019.669	177.75
3021.732	184.41667
3023.794	187.75
3025.854	177.41667
3027.914	174.75
3029.971	180.41667
3032.028	182.41667
3034.083	186.75
3036.137	183.08333
3038.19	167.08333
3040.242	162.08333
3042.292	157.75
3044.341	166.41667
3046.388	177.41667
3048.435	155.41667
3050.48	177.41667
3052.524	162.08333
3054.566	151.08333
3056.607	169.75
3058.647	151.41667
3060.686	143.08333
3062.723	139.41667
3064.759	133.75
3066.794	-0.91667
3068.828	0.75
3070.86	2.41667
