-0.839	142.79167
3.438	164.125
7.711	60.125
11.981	43.125
16.247	33.125
20.509	38.79167
24.768	34.79167
29.024	46.125
33.276	29.125
37.524	40.79167
41.769	26.45833
46.01	25.125
50.247	41.79167
54.481	51.79167
58.712	53.79167
62.939	39.79167
67.162	53.79167
71.382	46.45833
75.599	39.45833
79.812	40.79167
84.021	62.125
88.227	40.79167
92.429	52.79167
96.628	38.79167
100.823	52.79167
105.015	52.45833
109.204	46.125
113.388	58.125
117.57	43.45833
121.748	61.45833
125.922	50.45833
130.093	71.125
134.261	66.125
138.425	55.45833
142.585	83.79167
146.742	63.79167
150.896	81.79167
155.046	80.45833
159.193	118.45833
163.336	164.79167
167.476	291.125
171.613	517.45833
175.746	832.79167
179.875	1218.125
184.002	1582.125
188.124	1871.125
192.244	1965.79167
196.36	1968.45833
200.472	1970.79167
204.581	1939.79167
208.687	1870.125
212.79	1873.125
216.889	1900.79167
220.984	1911.125
225.077	1924.45833
229.165	1912.45833
233.251	1934.125
237.333	1927.125
241.412	1931.125
245.487	1913.125
249.559	1875.45833
253.628	1874.79167
257.694	1836.45833
261.756	1861.125
265.814	1814.45833
269.87	1752.79167
273.922	1719.79167
277.97	1706.125
282.016	1709.79167
286.058	1685.125
290.097	1708.125
294.132	1731.125
298.164	1716.125
302.193	1660.79167
306.219	1551.79167
310.241	1457.125
314.26	1358.79167
318.276	1298.125
322.288	1274.125
326.297	1242.125
330.303	1201.79167
334.305	1175.79167
338.305	1157.79167
342.301	1157.79167
346.294	1145.45833
350.283	1149.79167
354.269	1138.45833
358.252	1116.125
362.232	1147.125
366.209	1122.125
370.182	1121.79167
374.152	1114.45833
378.119	1117.79167
382.083	1105.125
386.043	1130.79167
390	1090.79167
393.954	1130.79167
397.905	1103.125
401.852	1131.45833
405.797	1097.79167
409.738	1097.79167
413.676	1117.125
417.61	1121.45833
421.542	1113.125
425.47	1109.79167
429.396	1082.125
433.318	1068.45833
437.236	1077.79167
441.152	1127.79167
445.065	1069.125
448.974	1059.45833
452.88	1050.125
456.783	1063.45833
460.683	1062.45833
464.58	1054.79167
468.473	1071.45833
472.364	1066.79167
476.251	1083.45833
480.135	1081.45833
484.016	1078.45833
487.894	1094.125
491.769	1100.45833
495.641	1086.125
499.509	1101.125
503.375	1103.79167
507.237	1077.45833
511.096	1090.125
514.952	1120.79167
518.805	1141.45833
522.655	1162.45833
526.502	1114.125
530.346	1094.79167
534.187	1099.125
538.024	1087.79167
541.859	1075.125
545.69	1117.125
549.519	1106.79167
553.344	1089.125
557.166	1071.125
560.985	1076.45833
564.802	1077.45833
568.615	1049.79167
572.425	1031.45833
576.232	1040.125
580.036	1028.45833
583.836	1036.79167
587.634	1038.79167
591.429	1046.45833
595.221	1081.79167
599.01	1048.45833
602.796	1070.79167
606.578	1065.125
610.358	1068.79167
614.135	1060.45833
617.909	1069.45833
621.679	1063.125
625.447	1044.125
629.212	1051.45833
632.973	1047.125
636.732	1048.45833
640.488	1049.125
644.241	1032.79167
647.991	1017.79167
651.737	1054.125
655.481	1015.79167
659.222	1026.125
662.96	1005.79167
666.695	1041.45833
670.427	1041.45833
674.156	1039.125
677.882	1040.79167
681.605	1039.45833
685.325	1014.79167
689.043	1045.79167
692.757	1028.45833
696.468	1022.125
700.177	1031.125
703.882	1003.125
707.585	997.45833
711.284	1014.79167
714.981	994.125
718.675	994.79167
722.366	1004.125
726.054	994.45833
729.739	1015.45833
733.421	1006.125
737.1	999.79167
740.777	1012.125
744.45	1020.125
748.121	1025.79167
751.789	1052.45833
755.453	1018.79167
759.115	1025.45833
762.774	1019.79167
766.431	1033.125
770.084	1037.79167
773.734	1027.79167
777.382	1059.79167
781.027	1062.79167
784.669	1055.125
788.308	1061.125
791.944	1071.45833
795.577	1066.125
799.208	1068.125
802.835	1086.45833
806.46	1070.45833
810.082	1089.79167
813.701	1064.125
817.317	1082.79167
820.931	1068.45833
824.542	1100.45833
828.149	1068.45833
831.754	1055.79167
835.357	1058.125
838.956	1066.125
842.553	1076.45833
846.146	1060.125
849.737	1036.125
853.326	1051.79167
856.911	1033.79167
860.493	1063.125
864.073	1056.45833
867.65	1089.125
871.225	1078.45833
874.796	1068.125
878.365	1077.79167
881.931	1091.45833
885.494	1095.45833
889.054	1091.79167
892.612	1090.125
896.166	1070.79167
899.719	1059.79167
903.268	1048.125
906.814	1048.45833
910.358	1047.79167
913.899	1020.125
917.438	1007.125
920.973	998.125
924.506	1020.79167
928.036	1037.79167
931.564	1048.125
935.088	1069.125
938.61	1045.79167
942.129	1055.79167
945.646	1089.79167
949.16	1086.125
952.671	1099.45833
956.179	1105.125
959.685	1081.79167
963.188	1103.79167
966.688	1072.79167
970.185	1040.79167
973.68	1020.79167
977.173	1030.79167
980.662	998.125
984.149	1001.45833
987.633	986.125
991.114	1010.125
994.593	1039.45833
998.069	1048.125
1001.542	1059.125
1005.013	1048.125
1008.481	1000.125
1011.947	996.79167
1015.409	987.125
1018.869	974.45833
1022.327	985.45833
1025.782	970.79167
1029.234	967.45833
1032.683	947.45833
1036.13	951.79167
1039.574	892.79167
1043.016	887.125
1046.455	881.125
1049.891	860.45833
1053.325	860.125
1056.756	864.125
1060.184	873.79167
1063.61	852.125
1067.033	867.45833
1070.454	856.125
1073.872	887.45833
1077.287	864.79167
1080.7	855.125
1084.11	841.125
1087.517	869.125
1090.922	859.79167
1094.325	838.125
1097.724	836.45833
1101.122	842.125
1104.516	844.45833
1107.908	823.45833
1111.298	847.79167
1114.684	833.79167
1118.069	850.79167
1121.45	864.79167
1124.83	847.79167
1128.206	870.45833
1131.58	868.125
1134.951	897.79167
1138.32	921.45833
1141.687	949.125
1145.05	955.45833
1148.412	954.45833
1151.77	950.45833
1155.126	953.125
1158.48	947.45833
1161.831	934.79167
1165.18	950.45833
1168.525	959.45833
1171.869	980.79167
1175.21	972.45833
1178.548	997.79167
1181.884	990.45833
1185.217	996.79167
1188.548	1028.79167
1191.877	1036.45833
1195.202	1073.125
1198.526	1089.125
1201.846	1080.79167
1205.165	1080.79167
1208.48	1100.79167
1211.794	1095.125
1215.104	1085.125
1218.413	1075.45833
1221.719	1072.45833
1225.022	1056.79167
1228.323	1048.125
1231.621	1052.79167
1234.917	1042.45833
1238.21	1078.125
1241.501	1047.45833
1244.79	1029.125
1248.076	1018.79167
1251.359	1045.45833
1254.64	1084.45833
1257.919	1060.125
1261.195	1069.45833
1264.468	1095.125
1267.74	1090.45833
1271.008	1102.79167
1274.275	1104.79167
1277.538	1091.125
1280.8	1086.79167
1284.059	1082.45833
1287.315	1101.125
1290.569	1085.125
1293.821	1093.79167
1297.07	1107.45833
1300.317	1117.79167
1303.562	1114.45833
1306.803	1101.79167
1310.043	1087.125
1313.28	1100.79167
1316.515	1076.125
1319.747	1076.45833
1322.977	1061.45833
1326.204	1049.45833
1329.429	1035.45833
1332.652	1034.45833
1335.872	1042.125
1339.09	1010.45833
1342.306	1022.79167
1345.519	1013.125
1348.729	1007.125
1351.938	1012.45833
1355.144	978.45833
1358.347	987.45833
1361.548	996.125
1364.747	991.45833
1367.944	967.79167
1371.138	984.79167
1374.329	977.125
1377.518	997.45833
1380.705	1001.125
1383.89	988.79167
1387.072	964.45833
1390.252	936.125
1393.429	914.79167
1396.605	892.125
1399.777	863.79167
1402.948	853.79167
1406.116	837.125
1409.282	848.125
1412.445	854.125
1415.606	854.125
1418.765	863.79167
1421.921	882.125
1425.075	890.45833
1428.227	899.79167
1431.376	932.79167
1434.524	957.125
1437.668	983.79167
1440.811	993.45833
1443.951	1001.45833
1447.089	997.45833
1450.224	980.45833
1453.357	987.125
1456.488	987.79167
1459.617	972.125
1462.743	958.45833
1465.867	929.45833
1468.989	936.125
1472.108	914.45833
1475.225	897.45833
1478.34	876.79167
1481.453	878.45833
1484.563	868.125
1487.671	896.45833
1490.776	920.79167
1493.88	922.125
1496.981	928.125
1500.08	944.79167
1503.176	934.45833
1506.271	966.45833
1509.363	979.125
1512.452	971.79167
1515.54	979.125
1518.625	993.45833
1521.708	1024.79167
1524.789	1042.79167
1527.867	1079.45833
1530.944	1132.125
1534.018	1148.79167
1537.089	1210.125
1540.159	1231.125
1543.226	1230.45833
1546.291	1201.79167
1549.354	1185.45833
1552.415	1170.79167
1555.473	1153.79167
1558.529	1125.79167
1561.583	1114.45833
1564.634	1104.45833
1567.684	1097.79167
1570.731	1104.45833
1573.776	1097.125
1576.819	1104.125
1579.859	1122.45833
1582.898	1128.45833
1585.934	1143.125
1588.968	1141.79167
1591.999	1125.45833
1595.029	1124.125
1598.056	1134.45833
1601.081	1161.125
1604.104	1155.79167
1607.125	1133.45833
1610.144	1113.45833
1613.16	1088.79167
1616.174	1053.45833
1619.186	1040.79167
1622.196	1013.45833
1625.203	986.79167
1628.209	983.45833
1631.212	965.125
1634.213	953.79167
1637.212	947.45833
1640.209	926.45833
1643.203	909.125
1646.196	889.125
1649.186	859.45833
1652.174	843.45833
1655.16	824.45833
1658.144	814.45833
1661.125	805.79167
1664.105	756.45833
1667.082	726.125
1670.057	693.125
1673.03	649.45833
1676.001	629.45833
1678.97	582.45833
1681.937	559.45833
1684.901	532.45833
1687.863	522.125
1690.824	497.45833
1693.782	509.45833
1696.738	469.125
1699.692	467.125
1702.643	455.79167
1705.593	449.125
1708.54	453.79167
1711.486	467.125
1714.429	429.45833
1717.37	444.79167
1720.309	426.45833
1723.246	433.125
1726.181	416.125
1729.113	418.45833
1732.044	429.45833
1734.972	415.45833
1737.899	428.79167
1740.823	431.125
1743.745	445.79167
1746.665	407.125
1749.583	403.79167
1752.499	389.125
1755.413	395.79167
1758.325	377.45833
1761.235	389.45833
1764.142	371.45833
1767.048	371.79167
1769.951	373.79167
1772.852	366.79167
1775.752	378.79167
1778.649	375.125
1781.544	383.45833
1784.437	364.125
1787.328	363.79167
1790.217	372.79167
1793.104	339.125
1795.989	346.125
1798.872	342.45833
1801.753	359.125
1804.631	347.79167
1807.508	360.125
1810.383	345.79167
1813.255	352.45833
1816.126	357.45833
1818.994	342.79167
1821.861	342.79167
1824.725	353.45833
1827.587	340.125
1830.448	341.79167
1833.306	330.45833
1836.162	347.45833
1839.017	330.125
1841.869	340.45833
1844.719	336.125
1847.567	318.79167
1850.414	317.125
1853.258	323.125
1856.1	334.45833
1858.94	333.79167
1861.778	329.45833
1864.614	317.79167
1867.448	335.125
1870.28	316.45833
1873.111	332.45833
1875.939	323.45833
1878.765	335.79167
1881.589	323.79167
1884.411	329.45833
1887.231	330.45833
1890.049	328.79167
1892.865	334.45833
1895.68	310.125
1898.492	328.125
1901.302	325.45833
1904.11	315.125
1906.916	311.125
1909.721	309.79167
1912.523	315.45833
1915.323	310.79167
1918.122	297.79167
1920.918	317.79167
1923.712	298.125
1926.505	307.45833
1929.295	291.45833
1932.084	303.125
1934.87	309.125
1937.655	302.79167
1940.438	285.79167
1943.218	304.45833
1945.997	304.45833
1948.774	301.79167
1951.549	303.79167
1954.322	300.79167
1957.093	296.45833
1959.862	293.79167
1962.629	292.45833
1965.394	293.45833
1968.157	286.45833
1970.918	299.45833
1973.678	292.125
1976.435	293.79167
1979.19	279.125
1981.944	276.125
1984.696	284.45833
1987.445	285.125
1990.193	286.125
1992.939	290.45833
1995.683	287.125
1998.425	268.79167
2001.165	307.125
2003.903	272.125
2006.639	278.45833
2009.374	277.45833
2012.106	279.79167
2014.837	265.45833
2017.566	288.79167
2020.292	278.79167
2023.017	276.125
2025.74	272.125
2028.461	269.79167
2031.18	273.79167
2033.898	262.79167
2036.613	277.45833
2039.327	277.79167
2042.038	265.79167
2044.748	264.125
2047.456	274.125
2050.162	258.45833
2052.866	263.45833
2055.568	272.45833
2058.268	264.45833
2060.967	276.45833
2063.663	249.45833
2066.358	255.45833
2069.051	258.79167
2071.742	264.125
2074.431	272.125
2077.118	254.45833
2079.804	252.125
2082.487	265.79167
2085.169	275.79167
2087.849	286.125
2090.527	260.45833
2093.203	260.45833
2095.877	260.125
2098.55	264.45833
2101.22	276.125
2103.889	275.125
2106.556	266.79167
2109.221	291.45833
2111.884	274.125
2114.546	303.79167
2117.205	310.79167
2119.863	344.125
2122.519	345.45833
2125.173	365.45833
2127.825	397.45833
2130.475	403.125
2133.124	377.79167
2135.771	358.79167
2138.416	367.125
2141.059	330.125
2143.7	332.79167
2146.339	315.45833
2148.977	276.79167
2151.613	301.79167
2154.247	279.79167
2156.879	284.79167
2159.51	268.79167
2162.138	272.79167
2164.765	260.125
2167.39	257.125
2170.013	280.79167
2172.634	270.79167
2175.254	252.45833
2177.872	289.79167
2180.488	239.45833
2183.102	247.125
2185.714	244.45833
2188.325	242.125
2190.934	242.45833
2193.541	252.45833
2196.146	244.125
2198.75	231.79167
2201.351	232.125
2203.951	222.125
2206.549	237.125
2209.146	236.79167
2211.74	223.125
2214.333	238.125
2216.924	218.125
2219.514	227.79167
2222.101	228.79167
2224.687	237.125
2227.271	221.125
2229.853	225.125
2232.433	206.125
2235.012	226.125
2237.589	221.45833
2240.164	228.79167
2242.738	221.45833
2245.309	208.125
2247.879	228.125
2250.448	221.45833
2253.014	209.79167
2255.579	200.125
2258.142	207.125
2260.703	216.45833
2263.262	208.125
2265.82	202.45833
2268.376	218.79167
2270.93	209.79167
2273.483	202.45833
2276.033	213.45833
2278.583	201.79167
2281.13	197.79167
2283.675	197.45833
2286.219	201.45833
2288.761	203.79167
2291.302	210.125
2293.841	213.125
2296.377	193.45833
2298.913	208.45833
2301.446	204.45833
2303.978	201.79167
2306.508	202.125
2309.037	206.125
2311.563	199.79167
2314.088	211.125
2316.612	187.125
2319.133	197.79167
2321.653	201.45833
2324.171	189.79167
2326.688	203.79167
2329.202	199.125
2331.715	208.79167
2334.227	201.45833
2336.736	198.45833
2339.244	189.125
2341.751	185.125
2344.255	197.125
2346.758	199.125
2349.259	194.125
2351.759	196.45833
2354.257	190.79167
2356.753	191.45833
2359.247	192.125
2361.74	193.45833
2364.231	195.45833
2366.721	199.45833
2369.209	184.45833
2371.695	191.79167
2374.179	183.125
2376.662	175.79167
2379.143	205.125
2381.622	185.45833
2384.1	187.45833
2386.576	186.45833
2389.051	198.125
2391.524	200.125
2393.995	196.45833
2396.464	184.45833
2398.932	182.79167
2401.398	188.45833
2403.863	185.125
2406.325	184.79167
2408.787	191.79167
2411.246	186.45833
2413.704	182.79167
2416.16	180.125
2418.615	179.79167
2421.068	184.79167
2423.519	177.45833
2425.969	174.125
2428.417	200.45833
2430.863	205.45833
2433.308	192.125
2435.751	191.79167
2438.193	184.125
2440.633	192.125
2443.071	192.79167
2445.508	182.45833
2447.943	180.79167
2450.376	183.79167
2452.808	193.45833
2455.238	171.79167
2457.667	204.125
2460.093	176.125
2462.519	171.125
2464.942	180.125
2467.365	181.79167
2469.785	183.79167
2472.204	176.125
2474.621	187.79167
2477.037	196.45833
2479.451	167.45833
2481.863	169.79167
2484.274	174.125
2486.683	179.79167
2489.091	188.79167
2491.497	186.125
2493.901	186.45833
2496.304	180.125
2498.705	187.45833
2501.105	181.45833
2503.503	195.45833
2505.899	169.125
2508.294	197.125
2510.687	180.125
2513.079	181.125
2515.469	166.79167
2517.858	174.45833
2520.245	189.125
2522.63	170.79167
2525.014	165.45833
2527.396	173.125
2529.776	176.125
2532.156	181.45833
2534.533	170.125
2536.909	170.79167
2539.283	160.79167
2541.656	173.45833
2544.027	186.125
2546.397	185.125
2548.765	174.45833
2551.131	175.45833
2553.496	184.125
2555.86	184.79167
2558.221	181.79167
2560.582	170.45833
2562.94	163.125
2565.298	178.45833
2567.653	191.125
2570.007	167.125
2572.36	179.45833
2574.711	175.45833
2577.06	187.79167
2579.408	180.125
2581.754	176.125
2584.099	176.45833
2586.442	178.45833
2588.784	177.125
2591.124	176.125
2593.463	178.45833
2595.8	183.125
2598.135	165.79167
2600.469	169.45833
2602.802	184.79167
2605.133	180.79167
2607.462	169.79167
2609.79	161.125
2612.116	179.45833
2614.441	170.125
2616.764	180.125
2619.086	176.45833
2621.406	176.79167
2623.725	186.125
2626.042	177.45833
2628.358	169.45833
2630.672	181.79167
2632.985	187.125
2635.296	176.45833
2637.606	173.125
2639.914	171.125
2642.22	179.125
2644.525	181.79167
2646.829	174.45833
2649.131	187.45833
2651.432	185.45833
2653.731	178.45833
2656.028	191.79167
2658.324	180.125
2660.619	166.79167
2662.912	185.45833
2665.204	172.45833
2667.494	181.45833
2669.782	170.125
2672.07	188.125
2674.355	194.125
2676.639	181.125
2678.922	170.79167
2681.203	184.79167
2683.483	178.125
2685.761	170.125
2688.038	184.125
2690.313	193.45833
2692.587	182.79167
2694.859	180.45833
2697.13	186.125
2699.399	185.45833
2701.667	198.125
2703.933	190.45833
2706.198	192.79167
2708.461	189.125
2710.723	194.79167
2712.984	191.79167
2715.243	196.79167
2717.5	193.45833
2719.757	205.45833
2722.011	189.125
2724.264	201.45833
2726.516	211.45833
2728.766	186.79167
2731.015	192.45833
2733.262	191.45833
2735.508	195.79167
2737.753	200.125
2739.996	178.79167
2742.237	182.45833
2744.477	201.125
2746.716	201.125
2748.953	203.45833
2751.189	202.45833
2753.423	203.79167
2755.656	188.45833
2757.887	178.45833
2760.117	188.125
2762.346	183.79167
2764.573	177.79167
2766.798	183.45833
2769.022	189.125
2771.245	174.45833
2773.467	194.45833
2775.686	186.79167
2777.905	196.79167
2780.122	189.45833
2782.337	198.45833
2784.552	187.79167
2786.764	190.79167
2788.976	191.79167
2791.186	195.45833
2793.394	201.125
2795.601	205.79167
2797.807	208.79167
2800.011	199.79167
2802.214	211.45833
2804.415	206.125
2806.615	204.45833
2808.814	210.45833
2811.011	219.79167
2813.206	213.45833
2815.401	214.45833
2817.594	219.79167
2819.785	229.125
2821.975	210.125
2824.164	214.45833
2826.351	214.125
2828.537	230.125
2830.722	229.45833
2832.905	228.79167
2835.086	233.79167
2837.267	257.45833
2839.445	245.125
2841.623	244.45833
2843.799	251.125
2845.974	247.79167
2848.147	259.125
2850.319	273.125
2852.489	278.79167
2854.659	277.45833
2856.826	280.45833
2858.993	302.45833
2861.158	276.45833
2863.321	283.79167
2865.483	305.45833
2867.644	296.79167
2869.804	298.125
2871.962	298.125
2874.118	290.125
2876.274	288.45833
2878.428	289.125
2880.58	297.45833
2882.731	290.125
2884.881	295.125
2887.03	304.125
2889.177	294.125
2891.322	299.125
2893.467	289.79167
2895.61	287.45833
2897.751	305.45833
2899.892	293.79167
2902.03	306.125
2904.168	299.45833
2906.304	296.79167
2908.439	324.79167
2910.572	302.125
2912.704	305.79167
2914.835	307.79167
2916.965	308.45833
2919.093	325.79167
2921.219	291.45833
2923.345	334.125
2925.469	305.125
2927.591	308.79167
2929.712	287.45833
2931.832	294.125
2933.951	288.125
2936.068	290.125
2938.184	284.79167
2940.299	277.79167
2942.412	267.45833
2944.524	263.45833
2946.634	268.79167
2948.744	235.125
2950.851	279.79167
2952.958	246.125
2955.063	252.79167
2957.167	253.79167
2959.269	237.79167
2961.371	263.79167
2963.471	233.45833
2965.569	252.79167
2967.666	226.45833
2969.762	229.45833
2971.857	218.79167
2973.95	213.125
2976.042	227.125
2978.133	216.45833
2980.222	213.45833
2982.31	207.125
2984.396	189.45833
2986.482	193.79167
2988.566	199.79167
2990.648	199.45833
2992.73	201.79167
2994.81	187.79167
2996.889	201.79167
2998.966	197.125
3001.042	205.45833
3003.117	191.79167
3005.191	196.125
3007.263	205.125
3009.334	188.45833
3011.403	197.45833
3013.472	187.125
3015.539	199.125
3017.604	210.125
3019.669	172.125
3021.732	179.79167
3023.794	192.125
3025.854	179.79167
3027.914	181.45833
3029.971	177.45833
3032.028	187.125
3034.083	184.79167
3036.137	188.125
3038.19	168.79167
3040.242	163.45833
3042.292	159.79167
3044.341	164.125
3046.388	177.125
3048.435	160.125
3050.48	173.125
3052.524	166.45833
3054.566	150.45833
3056.607	159.125
3058.647	152.45833
3060.686	144.79167
3062.723	131.125
3064.759	137.45833
3066.794	2.125
3068.828	-1.54167
3070.86	2.79167
