-0.839	151.33333
3.438	166.66667
7.711	65.33333
11.981	45
16.247	32.33333
20.509	39.33333
24.768	35.66667
29.024	46
33.276	28.33333
37.524	41.66667
41.769	31
46.01	24.66667
50.247	46.66667
54.481	52
58.712	57
62.939	37.66667
67.162	50.66667
71.382	48.33333
75.599	34.66667
79.812	47
84.021	61.66667
88.227	43
92.429	52
96.628	42.66667
100.823	54
105.015	52
109.204	45.66667
113.388	59
117.57	41.66667
121.748	60
125.922	47.33333
130.093	66.33333
134.261	63.33333
138.425	52.66667
142.585	83.33333
146.742	64
150.896	81
155.046	77.33333
159.193	118
163.336	172.33333
167.476	291
171.613	515.33333
175.746	844.33333
179.875	1225.33333
184.002	1593.33333
188.124	1883.33333
192.244	1969.66667
196.36	1970
200.472	1966
204.581	1927.33333
208.687	1858.66667
212.79	1879.66667
216.889	1898.33333
220.984	1892.66667
225.077	1917.66667
229.165	1916.33333
233.251	1918.66667
237.333	1930.66667
241.412	1912.66667
245.487	1906.66667
249.559	1895
253.628	1920
257.694	1888.33333
261.756	1928.33333
265.814	1860.33333
269.87	1765
273.922	1713.33333
277.97	1716.66667
282.016	1696.66667
286.058	1686
290.097	1722.66667
294.132	1758.66667
298.164	1745
302.193	1676.66667
306.219	1580
310.241	1487.33333
314.26	1381.33333
318.276	1320
322.288	1280.33333
326.297	1244.66667
330.303	1210.33333
334.305	1202.66667
338.305	1185.33333
342.301	1186.66667
346.294	1177.66667
350.283	1165.33333
354.269	1155.66667
358.252	1139.33333
362.232	1162.66667
366.209	1155
370.182	1132.33333
374.152	1133.33333
378.119	1148
382.083	1147.66667
386.043	1169.33333
390	1149.66667
393.954	1236
397.905	1227.66667
401.852	1235
405.797	1201.33333
409.738	1346
413.676	1480.66667
417.61	1578
421.542	1306
425.47	1147
429.396	1131.33333
433.318	1124.33333
437.236	1129
441.152	1149.66667
445.065	1101.33333
448.974	1109.33333
452.88	1104.66667
456.783	1093.66667
460.683	1108.33333
464.58	1131.33333
468.473	1106.33333
472.364	1101.66667
476.251	1110.33333
480.135	1107.66667
484.016	1123.33333
487.894	1119.66667
491.769	1129.33333
495.641	1135
499.509	1120
503.375	1137.66667
507.237	1132.66667
511.096	1121.66667
514.952	1125
518.805	1118
522.655	1116.66667
526.502	1114.33333
530.346	1126.33333
534.187	1129.33333
538.024	1120.66667
541.859	1130
545.69	1140.33333
549.519	1127.66667
553.344	1122.33333
557.166	1105.66667
560.985	1113.33333
564.802	1100.66667
568.615	1080.33333
572.425	1063.66667
576.232	1053
580.036	1057.33333
583.836	1067
587.634	1069.66667
591.429	1064
595.221	1097.33333
599.01	1099
602.796	1090
606.578	1097
610.358	1101.66667
614.135	1108.66667
617.909	1105
621.679	1086
625.447	1078.33333
629.212	1091.33333
632.973	1111.66667
636.732	1116
640.488	1120
644.241	1072
647.991	1077.33333
651.737	1095.33333
655.481	1058.33333
659.222	1067
662.96	1050.33333
666.695	1065
670.427	1072.33333
674.156	1079
677.882	1068.66667
681.605	1071
685.325	1043.66667
689.043	1073.66667
692.757	1057
696.468	1068.33333
700.177	1058.66667
703.882	1042.33333
707.585	1032
711.284	1039.33333
714.981	1020
718.675	1025
722.366	1049.66667
726.054	1027.33333
729.739	1028.33333
733.421	1031.33333
737.1	1024.33333
740.777	1043.33333
744.45	1043
748.121	1020
751.789	1072.66667
755.453	1051.33333
759.115	1057.33333
762.774	1043.33333
766.431	1042
770.084	1065
773.734	1063.66667
777.382	1078.66667
781.027	1074
784.669	1075
788.308	1062.33333
791.944	1092.33333
795.577	1100.66667
799.208	1093.66667
802.835	1096.33333
806.46	1118
810.082	1106.66667
813.701	1105.33333
817.317	1122.33333
820.931	1118.66667
824.542	1127
828.149	1106.66667
831.754	1075
835.357	1088.33333
838.956	1120
842.553	1146.33333
846.146	1168
849.737	1091.33333
853.326	1064.66667
856.911	1042.33333
860.493	1095
864.073	1154.33333
867.65	1270.33333
871.225	1267.33333
874.796	1111
878.365	1072
881.931	1093
885.494	1104
889.054	1102
892.612	1099
896.166	1080
899.719	1079
903.268	1050
906.814	1054
910.358	1039.33333
913.899	1048
917.438	1038.66667
920.973	1010.66667
924.506	1042
928.036	1051.66667
931.564	1045.66667
935.088	1064.66667
938.61	1078.66667
942.129	1060.66667
945.646	1081.66667
949.16	1091.33333
952.671	1106.66667
956.179	1124.66667
959.685	1095.66667
963.188	1120.33333
966.688	1110
970.185	1076.66667
973.68	1063.66667
977.173	1041.66667
980.662	1037.66667
984.149	1023
987.633	1020.66667
991.114	1025
994.593	1041
998.069	1057
1001.542	1120
1005.013	1114.33333
1008.481	1020
1011.947	1005.33333
1015.409	993.33333
1018.869	987.33333
1022.327	1008
1025.782	983.66667
1029.234	980
1032.683	983.66667
1036.13	951.66667
1039.574	924.66667
1043.016	895.66667
1046.455	878.33333
1049.891	859.33333
1053.325	893
1056.756	884
1060.184	878.33333
1063.61	869.33333
1067.033	882.33333
1070.454	884.33333
1073.872	903
1077.287	881
1080.7	884.66667
1084.11	874.33333
1087.517	875
1090.922	878
1094.325	856.33333
1097.724	849.33333
1101.122	857.33333
1104.516	842.66667
1107.908	835
1111.298	844
1114.684	861.33333
1118.069	857.66667
1121.45	876
1124.83	856.66667
1128.206	887.66667
1131.58	883.33333
1134.951	904
1138.32	920
1141.687	945.33333
1145.05	960.33333
1148.412	960.66667
1151.77	949.66667
1155.126	956.33333
1158.48	933.66667
1161.831	948.33333
1165.18	949
1168.525	966.66667
1171.869	963.66667
1175.21	966.33333
1178.548	980.66667
1181.884	994.66667
1185.217	990
1188.548	1027.66667
1191.877	1027
1195.202	1069
1198.526	1094.66667
1201.846	1099
1205.165	1103
1208.48	1095.33333
1211.794	1098
1215.104	1093.66667
1218.413	1096.66667
1221.719	1091
1225.022	1062.66667
1228.323	1044
1231.621	1064
1234.917	1045.33333
1238.21	1065
1241.501	1038
1244.79	1043.66667
1248.076	1014
1251.359	1038.33333
1254.64	1073
1257.919	1054.33333
1261.195	1060.33333
1264.468	1102.33333
1267.74	1108
1271.008	1097
1274.275	1087.66667
1277.538	1096.66667
1280.8	1085
1284.059	1081.66667
1287.315	1089
1290.569	1086
1293.821	1105
1297.07	1105
1300.317	1112.66667
1303.562	1118.33333
1306.803	1097.33333
1310.043	1098.33333
1313.28	1095
1316.515	1079
1319.747	1084.66667
1322.977	1082
1326.204	1053.66667
1329.429	1036.66667
1332.652	1060.66667
1335.872	1047.66667
1339.09	1038.33333
1342.306	1039
1345.519	1022.66667
1348.729	1021.33333
1351.938	1020.66667
1355.144	1011.33333
1358.347	1015.66667
1361.548	1008
1364.747	994.66667
1367.944	975.33333
1371.138	984
1374.329	984.66667
1377.518	974.66667
1380.705	981.66667
1383.89	994.66667
1387.072	947
1390.252	922.33333
1393.429	902.33333
1396.605	870.66667
1399.777	852.33333
1402.948	859
1406.116	828
1409.282	839.66667
1412.445	849.33333
1415.606	843.66667
1418.765	854
1421.921	880.33333
1425.075	868.66667
1428.227	888
1431.376	926.66667
1434.524	955.33333
1437.668	971.33333
1440.811	982
1443.951	997.66667
1447.089	1000.33333
1450.224	996.33333
1453.357	986
1456.488	980.33333
1459.617	980.33333
1462.743	955.66667
1465.867	935.33333
1468.989	935.33333
1472.108	918.66667
1475.225	899.66667
1478.34	885.33333
1481.453	884.33333
1484.563	878.66667
1487.671	886.33333
1490.776	903
1493.88	902.33333
1496.981	919.33333
1500.08	931
1503.176	929
1506.271	926
1509.363	962.66667
1512.452	952.33333
1515.54	966.33333
1518.625	967.66667
1521.708	1007
1524.789	1027.66667
1527.867	1050
1530.944	1106.66667
1534.018	1134
1537.089	1176.33333
1540.159	1186.33333
1543.226	1187
1546.291	1167.33333
1549.354	1159.33333
1552.415	1134.33333
1555.473	1108
1558.529	1101
1561.583	1098.33333
1564.634	1072.66667
1567.684	1078.33333
1570.731	1070
1573.776	1086.33333
1576.819	1100.33333
1579.859	1106
1582.898	1117
1585.934	1140.33333
1588.968	1125
1591.999	1115.66667
1595.029	1109.33333
1598.056	1132
1601.081	1157
1604.104	1144.33333
1607.125	1127
1610.144	1105
1613.16	1072.33333
1616.174	1045.33333
1619.186	1047.66667
1622.196	1024.33333
1625.203	987
1628.209	994.66667
1631.212	987.33333
1634.213	971.66667
1637.212	995.33333
1640.209	989.66667
1643.203	953.66667
1646.196	916
1649.186	883.66667
1652.174	872
1655.16	845.33333
1658.144	827.66667
1661.125	789.66667
1664.105	754.33333
1667.082	740.33333
1670.057	695.66667
1673.03	649
1676.001	633
1678.97	592.33333
1681.937	566.66667
1684.901	547
1687.863	525.33333
1690.824	504
1693.782	513.33333
1696.738	478.33333
1699.692	479.66667
1702.643	462.33333
1705.593	470
1708.54	459
1711.486	472.33333
1714.429	437.33333
1717.37	452
1720.309	437.66667
1723.246	446.66667
1726.181	413.66667
1729.113	430.33333
1732.044	429.66667
1734.972	419
1737.899	436.66667
1740.823	433.66667
1743.745	454
1746.665	417.33333
1749.583	404.33333
1752.499	413
1755.413	399.66667
1758.325	383.33333
1761.235	396.33333
1764.142	382.33333
1767.048	387
1769.951	387.33333
1772.852	393.33333
1775.752	478.66667
1778.649	544.33333
1781.544	457.66667
1784.437	378.66667
1787.328	384
1790.217	377.66667
1793.104	356
1795.989	361.33333
1798.872	344
1801.753	368.66667
1804.631	366
1807.508	369
1810.383	361.66667
1813.255	361.66667
1816.126	352.33333
1818.994	344
1821.861	353
1824.725	356.33333
1827.587	352
1830.448	352.66667
1833.306	340.33333
1836.162	357
1839.017	347
1841.869	337.66667
1844.719	340
1847.567	335
1850.414	332.33333
1853.258	320.33333
1856.1	341
1858.94	347
1861.778	342.33333
1864.614	329.33333
1867.448	332.33333
1870.28	320.33333
1873.111	344.66667
1875.939	322.66667
1878.765	348
1881.589	324.33333
1884.411	329.66667
1887.231	333.66667
1890.049	333
1892.865	337.33333
1895.68	327.33333
1898.492	351.33333
1901.302	333
1904.11	327.66667
1906.916	315
1909.721	318
1912.523	330
1915.323	311
1918.122	306.66667
1920.918	324.33333
1923.712	309.33333
1926.505	312
1929.295	297.66667
1932.084	320.33333
1934.87	314.33333
1937.655	306.33333
1940.438	297.66667
1943.218	303.66667
1945.997	304.66667
1948.774	311.33333
1951.549	310.66667
1954.322	298.66667
1957.093	295
1959.862	297.33333
1962.629	305.66667
1965.394	302
1968.157	280.33333
1970.918	305.66667
1973.678	289.66667
1976.435	305.66667
1979.19	295.33333
1981.944	281
1984.696	290
1987.445	279.66667
1990.193	286.33333
1992.939	296.66667
1995.683	290
1998.425	268.66667
2001.165	301
2003.903	271.33333
2006.639	282.66667
2009.374	286
2012.106	286.66667
2014.837	257.66667
2017.566	287.33333
2020.292	278.33333
2023.017	276
2025.74	274.66667
2028.461	264.66667
2031.18	274
2033.898	267
2036.613	265
2039.327	275
2042.038	259
2044.748	271
2047.456	277.33333
2050.162	254.66667
2052.866	258.66667
2055.568	279.66667
2058.268	259.66667
2060.967	270.33333
2063.663	255.66667
2066.358	261.33333
2069.051	253.66667
2071.742	256.66667
2074.431	267.66667
2077.118	257.66667
2079.804	245
2082.487	257.66667
2085.169	272.33333
2087.849	274.66667
2090.527	253.66667
2093.203	257.33333
2095.877	263.33333
2098.55	249.66667
2101.22	267.33333
2103.889	275
2106.556	262.66667
2109.221	278
2111.884	268.66667
2114.546	297.66667
2117.205	287
2119.863	335.66667
2122.519	319
2125.173	344
2127.825	370.33333
2130.475	372.33333
2133.124	356.33333
2135.771	347
2138.416	350.66667
2141.059	310.33333
2143.7	314.33333
2146.339	297
2148.977	266.33333
2151.613	280.66667
2154.247	268.33333
2156.879	262.66667
2159.51	254.66667
2162.138	251.66667
2164.765	249.66667
2167.39	238.66667
2170.013	260.66667
2172.634	257
2175.254	242.33333
2177.872	275.33333
2180.488	228.66667
2183.102	239.33333
2185.714	239
2188.325	223.33333
2190.934	236.66667
2193.541	246
2196.146	230.33333
2198.75	214.66667
2201.351	227.33333
2203.951	212.33333
2206.549	229.33333
2209.146	220.33333
2211.74	219
2214.333	228
2216.924	208
2219.514	214.66667
2222.101	214.33333
2224.687	226.66667
2227.271	209.33333
2229.853	207
2232.433	195.66667
2235.012	217.33333
2237.589	210
2240.164	219.66667
2242.738	204
2245.309	200
2247.879	222.66667
2250.448	209.66667
2253.014	198.33333
2255.579	194.66667
2258.142	203.33333
2260.703	198.66667
2263.262	196.66667
2265.82	188
2268.376	207.33333
2270.93	194.66667
2273.483	188.66667
2276.033	203.33333
2278.583	193.33333
2281.13	189.33333
2283.675	186.66667
2286.219	192
2288.761	193.33333
2291.302	195
2293.841	202.66667
2296.377	182.33333
2298.913	197.33333
2301.446	202
2303.978	190.33333
2306.508	193.66667
2309.037	190
2311.563	186
2314.088	194
2316.612	174.33333
2319.133	183.66667
2321.653	188.66667
2324.171	178.66667
2326.688	195.66667
2329.202	190.66667
2331.715	188.33333
2334.227	183.66667
2336.736	180.66667
2339.244	181
2341.751	175.33333
2344.255	179.66667
2346.758	174
2349.259	167
2351.759	183
2354.257	171.33333
2356.753	170.66667
2359.247	168.33333
2361.74	174.33333
2364.231	173.33333
2366.721	178.66667
2369.209	169.33333
2371.695	179.33333
2374.179	162.66667
2376.662	164.66667
2379.143	183.66667
2381.622	177.66667
2384.1	191
2386.576	179
2389.051	192.33333
2391.524	188
2393.995	178
2396.464	166.33333
2398.932	168.33333
2401.398	170.66667
2403.863	163
2406.325	165.33333
2408.787	169.66667
2411.246	169.66667
2413.704	164.66667
2416.16	158
2418.615	162
2421.068	164.66667
2423.519	160.66667
2425.969	153.66667
2428.417	174.33333
2430.863	186.66667
2433.308	169.66667
2435.751	164.33333
2438.193	160.66667
2440.633	164.66667
2443.071	170.66667
2445.508	162.33333
2447.943	162.33333
2450.376	155
2452.808	172.33333
2455.238	149.33333
2457.667	185.33333
2460.093	153.33333
2462.519	148
2464.942	149.66667
2467.365	166.33333
2469.785	158
2472.204	154.66667
2474.621	154
2477.037	173
2479.451	147.33333
2481.863	139
2484.274	144.66667
2486.683	149.33333
2489.091	160.66667
2491.497	161.33333
2493.901	160.66667
2496.304	148.66667
2498.705	160
2501.105	156.66667
2503.503	174
2505.899	144
2508.294	167.66667
2510.687	146.33333
2513.079	146.66667
2515.469	147.33333
2517.858	146.66667
2520.245	161
2522.63	151.33333
2525.014	137.33333
2527.396	139
2529.776	143.66667
2532.156	150
2534.533	137
2536.909	132.33333
2539.283	126
2541.656	134
2544.027	155.33333
2546.397	146.66667
2548.765	139
2551.131	141.66667
2553.496	149.33333
2555.86	142.66667
2558.221	152
2560.582	138
2562.94	137.33333
2565.298	147
2567.653	153.66667
2570.007	126.66667
2572.36	150.33333
2574.711	135.66667
2577.06	154.33333
2579.408	143
2581.754	137.66667
2584.099	137.66667
2586.442	135.33333
2588.784	141.66667
2591.124	137.66667
2593.463	132.33333
2595.8	141
2598.135	127.33333
2600.469	132.33333
2602.802	145.33333
2605.133	147.66667
2607.462	135
2609.79	125.66667
2612.116	142
2614.441	133.66667
2616.764	131.66667
2619.086	135.66667
2621.406	132.33333
2623.725	146.33333
2626.042	136
2628.358	125
2630.672	134.66667
2632.985	144
2635.296	138.33333
2637.606	130.33333
2639.914	130
2642.22	130.66667
2644.525	135.66667
2646.829	139
2649.131	143
2651.432	141.66667
2653.731	125.66667
2656.028	142.66667
2658.324	132.66667
2660.619	122.33333
2662.912	144.66667
2665.204	121.33333
2667.494	137.66667
2669.782	127.66667
2672.07	146.33333
2674.355	142.33333
2676.639	141.33333
2678.922	125.33333
2681.203	140
2683.483	128.66667
2685.761	116.33333
2688.038	134
2690.313	148.33333
2692.587	129.33333
2694.859	132.66667
2697.13	135
2699.399	133.33333
2701.667	147
2703.933	136.66667
2706.198	148
2708.461	151.33333
2710.723	143.66667
2712.984	138
2715.243	146
2717.5	134.33333
2719.757	147.66667
2722.011	132.66667
2724.264	146.66667
2726.516	150
2728.766	138.66667
2731.015	143.33333
2733.262	138.66667
2735.508	140.66667
2737.753	141.33333
2739.996	125.33333
2742.237	129.66667
2744.477	142.66667
2746.716	149.66667
2748.953	144
2751.189	148
2753.423	141
2755.656	130.66667
2757.887	130
2760.117	133.33333
2762.346	130.33333
2764.573	116.66667
2766.798	125.33333
2769.022	127.66667
2771.245	123.66667
2773.467	132.33333
2775.686	124.66667
2777.905	135.66667
2780.122	125.66667
2782.337	132.66667
2784.552	116.66667
2786.764	130.33333
2788.976	126.66667
2791.186	134.33333
2793.394	129.33333
2795.601	136
2797.807	143.66667
2800.011	134.33333
2802.214	145.33333
2804.415	139
2806.615	138.33333
2808.814	140
2811.011	147
2813.206	143.66667
2815.401	153.66667
2817.594	150
2819.785	158.66667
2821.975	139.66667
2824.164	150
2826.351	145.66667
2828.537	163
2830.722	160
2832.905	159.33333
2835.086	159.33333
2837.267	178.66667
2839.445	175.33333
2841.623	184.66667
2843.799	181
2845.974	188.66667
2848.147	187.66667
2850.319	207.66667
2852.489	219.33333
2854.659	219.66667
2856.826	217.66667
2858.993	231.66667
2861.158	220
2863.321	227.33333
2865.483	239.33333
2867.644	238.66667
2869.804	243.33333
2871.962	245
2874.118	269
2876.274	334.66667
2878.428	321
2880.58	285.66667
2882.731	259.33333
2884.881	244
2887.03	252.33333
2889.177	235.33333
2891.322	243
2893.467	235.66667
2895.61	228.66667
2897.751	237
2899.892	223
2902.03	233.33333
2904.168	225.33333
2906.304	227.33333
2908.439	244.66667
2910.572	227.33333
2912.704	236
2914.835	240
2916.965	234.66667
2919.093	250.66667
2921.219	221
2923.345	251
2925.469	232
2927.591	222.66667
2929.712	212.33333
2931.832	225
2933.951	215
2936.068	208.66667
2938.184	205.66667
2940.299	202.66667
2942.412	201
2944.524	182.33333
2946.634	193.33333
2948.744	165.66667
2950.851	195.66667
2952.958	169.33333
2955.063	177.66667
2957.167	165.66667
2959.269	147.33333
2961.371	184
2963.471	152
2965.569	168.66667
2967.666	147.33333
2969.762	146.66667
2971.857	146
2973.95	136
2976.042	145.66667
2978.133	139.66667
2980.222	135
2982.31	127.33333
2984.396	111.66667
2986.482	115.66667
2988.566	122
2990.648	123.66667
2992.73	122.33333
2994.81	112
2996.889	121.33333
2998.966	118
3001.042	126.66667
3003.117	113.66667
3005.191	120
3007.263	118.33333
3009.334	114.33333
3011.403	118
3013.472	114
3015.539	126.66667
3017.604	129
3019.669	102.33333
3021.732	105.66667
3023.794	110
3025.854	98.33333
3027.914	99
3029.971	103.33333
3032.028	105.33333
3034.083	111
3036.137	104.66667
3038.19	98
3040.242	91.66667
3042.292	89.33333
3044.341	94.66667
3046.388	109.66667
3048.435	88.66667
3050.48	109.66667
3052.524	99
3054.566	81
3056.607	95
3058.647	91.33333
3060.686	82
3062.723	74.66667
3064.759	76.66667
3066.794	1
3068.828	0.33333
3070.86	0.33333
