-0.839	146.75
3.438	157.41667
7.711	62.41667
11.981	40.75
16.247	30.08333
20.509	40.08333
24.768	33.75
29.024	42.08333
33.276	31.41667
37.524	40.41667
41.769	27.41667
46.01	25.08333
50.247	45.08333
54.481	56.41667
58.712	57.41667
62.939	35.75
67.162	54.08333
71.382	47.08333
75.599	38.08333
79.812	42.08333
84.021	62.08333
88.227	41.08333
92.429	54.08333
96.628	38.41667
100.823	53.08333
105.015	54.41667
109.204	45.08333
113.388	57.41667
117.57	41.41667
121.748	58.41667
125.922	50.08333
130.093	66.75
134.261	66.75
138.425	55.41667
142.585	81.41667
146.742	67.41667
150.896	79.08333
155.046	76.41667
159.193	118.75
163.336	167.08333
167.476	289.08333
171.613	521.41667
175.746	832.41667
179.875	1230.08333
184.002	1588.75
188.124	1887.75
192.244	1991.75
196.36	1976.75
200.472	1961.75
204.581	1951.75
208.687	1885.75
212.79	1897.08333
216.889	1913.75
220.984	1938.75
225.077	1947.08333
229.165	1954.75
233.251	1949.41667
237.333	1946.08333
241.412	1920.75
245.487	1922.08333
249.559	1878.75
253.628	1900.08333
257.694	1875.08333
261.756	1876.41667
265.814	1839.41667
269.87	1803.75
273.922	1731.41667
277.97	1734.41667
282.016	1728.41667
286.058	1713.41667
290.097	1747.08333
294.132	1774.41667
298.164	1753.41667
302.193	1703.08333
306.219	1586.75
310.241	1483.08333
314.26	1388.41667
318.276	1328.41667
322.288	1287.41667
326.297	1246.41667
330.303	1212.08333
334.305	1208.75
338.305	1175.08333
342.301	1190.41667
346.294	1194.08333
350.283	1163.41667
354.269	1162.08333
358.252	1146.08333
362.232	1170.41667
366.209	1162.75
370.182	1147.41667
374.152	1152.75
378.119	1161.08333
382.083	1142.08333
386.043	1169.41667
390	1144.75
393.954	1143.75
397.905	1154.08333
401.852	1161.75
405.797	1138.08333
409.738	1142.08333
413.676	1149.41667
417.61	1154.75
421.542	1142.41667
425.47	1124.08333
429.396	1132.75
433.318	1118.08333
437.236	1122.08333
441.152	1150.41667
445.065	1101.75
448.974	1105.41667
452.88	1094.75
456.783	1091.75
460.683	1077.75
464.58	1095.41667
468.473	1101.75
472.364	1108.41667
476.251	1116.41667
480.135	1109.75
484.016	1123.08333
487.894	1122.08333
491.769	1138.75
495.641	1120.41667
499.509	1137.41667
503.375	1135.75
507.237	1116.41667
511.096	1120.08333
514.952	1126.41667
518.805	1116.41667
522.655	1124.08333
526.502	1108.08333
530.346	1142.41667
534.187	1123.08333
538.024	1111.41667
541.859	1107.75
545.69	1135.08333
549.519	1123.08333
553.344	1113.08333
557.166	1094.41667
560.985	1097.75
564.802	1107.41667
568.615	1089.41667
572.425	1060.08333
576.232	1060.75
580.036	1064.41667
583.836	1072.08333
587.634	1078.75
591.429	1048.41667
595.221	1100.08333
599.01	1093.75
602.796	1093.08333
606.578	1109.75
610.358	1095.41667
614.135	1084.08333
617.909	1093.08333
621.679	1079.08333
625.447	1077.75
629.212	1082.75
632.973	1084.08333
636.732	1063.75
640.488	1077.41667
644.241	1073.08333
647.991	1067.75
651.737	1084.75
655.481	1044.41667
659.222	1053.75
662.96	1046.08333
666.695	1056.75
670.427	1062.41667
674.156	1080.75
677.882	1072.41667
681.605	1065.08333
685.325	1054.41667
689.043	1082.75
692.757	1056.08333
696.468	1063.75
700.177	1058.75
703.882	1038.75
707.585	1026.41667
711.284	1035.75
714.981	1029.75
718.675	1029.41667
722.366	1046.41667
726.054	1031.41667
729.739	1028.41667
733.421	1037.41667
737.1	1025.75
740.777	1040.08333
744.45	1036.75
748.121	1040.08333
751.789	1073.08333
755.453	1063.75
759.115	1067.41667
762.774	1057.08333
766.431	1067.75
770.084	1055.75
773.734	1074.41667
777.382	1078.08333
781.027	1092.75
784.669	1083.41667
788.308	1079.75
791.944	1113.08333
795.577	1108.41667
799.208	1107.41667
802.835	1096.75
806.46	1095.75
810.082	1126.41667
813.701	1106.08333
817.317	1132.41667
820.931	1119.08333
824.542	1127.75
828.149	1109.08333
831.754	1103.41667
835.357	1091.08333
838.956	1097.41667
842.553	1090.08333
846.146	1076.75
849.737	1055.41667
853.326	1070.41667
856.911	1054.08333
860.493	1077.41667
864.073	1075.41667
867.65	1092.41667
871.225	1109.41667
874.796	1091.41667
878.365	1087.41667
881.931	1103.75
885.494	1124.75
889.054	1097.75
892.612	1110.75
896.166	1093.75
899.719	1074.08333
903.268	1070.41667
906.814	1069.08333
910.358	1049.41667
913.899	1038.41667
917.438	1035.08333
920.973	1026.08333
924.506	1034.41667
928.036	1059.75
931.564	1065.75
935.088	1087.41667
938.61	1068.75
942.129	1075.41667
945.646	1095.41667
949.16	1096.08333
952.671	1126.41667
956.179	1120.75
959.685	1114.08333
963.188	1112.08333
966.688	1111.08333
970.185	1070.08333
973.68	1054.41667
977.173	1046.41667
980.662	1033.41667
984.149	1047.41667
987.633	1032.08333
991.114	1043.41667
994.593	1060.41667
998.069	1068.75
1001.542	1093.75
1005.013	1089.08333
1008.481	1028.75
1011.947	1015.75
1015.409	1003.75
1018.869	1015.75
1022.327	1021.08333
1025.782	1003.08333
1029.234	987.75
1032.683	977.08333
1036.13	962.41667
1039.574	918.75
1043.016	912.41667
1046.455	899.08333
1049.891	891.41667
1053.325	895.08333
1056.756	890.08333
1060.184	889.08333
1063.61	886.75
1067.033	889.08333
1070.454	879.08333
1073.872	922.75
1077.287	888.08333
1080.7	895.75
1084.11	896.41667
1087.517	893.75
1090.922	890.41667
1094.325	873.08333
1097.724	856.08333
1101.122	863.08333
1104.516	868.08333
1107.908	840.75
1111.298	862.08333
1114.684	867.41667
1118.069	865.41667
1121.45	889.41667
1124.83	862.08333
1128.206	875.41667
1131.58	904.08333
1134.951	917.75
1138.32	919.41667
1141.687	970.08333
1145.05	970.41667
1148.412	965.08333
1151.77	975.08333
1155.126	966.75
1158.48	952.08333
1161.831	960.08333
1165.18	954.08333
1168.525	956.75
1171.869	988.08333
1175.21	982.75
1178.548	994.08333
1181.884	1008.08333
1185.217	1000.75
1188.548	1040.08333
1191.877	1036.41667
1195.202	1080.75
1198.526	1103.41667
1201.846	1091.75
1205.165	1114.75
1208.48	1115.75
1211.794	1106.08333
1215.104	1121.75
1218.413	1107.08333
1221.719	1095.08333
1225.022	1083.08333
1228.323	1084.75
1231.621	1073.41667
1234.917	1064.08333
1238.21	1072.41667
1241.501	1065.08333
1244.79	1052.75
1248.076	1041.08333
1251.359	1066.41667
1254.64	1103.08333
1257.919	1071.08333
1261.195	1094.08333
1264.468	1107.75
1267.74	1108.08333
1271.008	1120.08333
1274.275	1126.08333
1277.538	1104.41667
1280.8	1112.41667
1284.059	1102.75
1287.315	1128.75
1290.569	1122.75
1293.821	1132.41667
1297.07	1137.75
1300.317	1139.08333
1303.562	1132.08333
1306.803	1139.08333
1310.043	1126.75
1313.28	1106.75
1316.515	1092.75
1319.747	1120.75
1322.977	1086.75
1326.204	1093.41667
1329.429	1079.75
1332.652	1091.08333
1335.872	1078.41667
1339.09	1061.41667
1342.306	1060.41667
1345.519	1042.41667
1348.729	1043.08333
1351.938	1051.41667
1355.144	1016.41667
1358.347	1019.75
1361.548	1023.08333
1364.747	1019.08333
1367.944	1014.08333
1371.138	1012.41667
1374.329	992.08333
1377.518	1002.41667
1380.705	1016.75
1383.89	999.75
1387.072	973.41667
1390.252	957.41667
1393.429	927.08333
1396.605	909.75
1399.777	874.75
1402.948	885.08333
1406.116	869.41667
1409.282	866.08333
1412.445	864.08333
1415.606	876.75
1418.765	885.75
1421.921	906.75
1425.075	907.75
1428.227	925.41667
1431.376	950.08333
1434.524	987.41667
1437.668	1016.75
1440.811	1002.41667
1443.951	1009.75
1447.089	1028.08333
1450.224	1019.08333
1453.357	1015.41667
1456.488	1004.41667
1459.617	1001.41667
1462.743	989.75
1465.867	956.41667
1468.989	959.08333
1472.108	931.75
1475.225	919.75
1478.34	894.08333
1481.453	902.08333
1484.563	880.41667
1487.671	902.41667
1490.776	912.08333
1493.88	927.41667
1496.981	938.41667
1500.08	948.41667
1503.176	947.08333
1506.271	945.75
1509.363	986.75
1512.452	966.41667
1515.54	986.75
1518.625	983.08333
1521.708	1027.75
1524.789	1062.08333
1527.867	1091.41667
1530.944	1126.41667
1534.018	1161.75
1537.089	1223.41667
1540.159	1235.08333
1543.226	1236.08333
1546.291	1210.41667
1549.354	1201.08333
1552.415	1188.08333
1555.473	1141.75
1558.529	1132.08333
1561.583	1097.75
1564.634	1097.08333
1567.684	1099.08333
1570.731	1109.75
1573.776	1111.41667
1576.819	1120.75
1579.859	1122.08333
1582.898	1130.41667
1585.934	1148.08333
1588.968	1154.41667
1591.999	1125.75
1595.029	1145.75
1598.056	1147.75
1601.081	1165.75
1604.104	1158.41667
1607.125	1153.08333
1610.144	1115.08333
1613.16	1086.41667
1616.174	1063.75
1619.186	1052.08333
1622.196	1044.08333
1625.203	1003.41667
1628.209	1005.41667
1631.212	978.08333
1634.213	986.75
1637.212	996.08333
1640.209	995.41667
1643.203	960.75
1646.196	942.75
1649.186	902.75
1652.174	887.75
1655.16	867.75
1658.144	863.75
1661.125	814.41667
1664.105	789.75
1667.082	770.41667
1670.057	722.08333
1673.03	681.41667
1676.001	654.75
1678.97	604.75
1681.937	598.08333
1684.901	550.08333
1687.863	539.41667
1690.824	512.75
1693.782	520.75
1696.738	491.41667
1699.692	474.41667
1702.643	470.41667
1705.593	466.41667
1708.54	477.08333
1711.486	475.08333
1714.429	444.75
1717.37	464.75
1720.309	436.41667
1723.246	455.08333
1726.181	437.08333
1729.113	448.41667
1732.044	444.41667
1734.972	431.41667
1737.899	448.41667
1740.823	446.75
1743.745	458.41667
1746.665	415.75
1749.583	413.75
1752.499	409.41667
1755.413	401.08333
1758.325	394.75
1761.235	409.41667
1764.142	384.41667
1767.048	392.08333
1769.951	385.08333
1772.852	380.08333
1775.752	393.08333
1778.649	392.08333
1781.544	397.75
1784.437	372.08333
1787.328	382.75
1790.217	382.75
1793.104	355.41667
1795.989	369.75
1798.872	360.41667
1801.753	374.08333
1804.631	366.08333
1807.508	369.08333
1810.383	363.41667
1813.255	363.41667
1816.126	361.08333
1818.994	359.75
1821.861	355.08333
1824.725	361.08333
1827.587	360.08333
1830.448	353.41667
1833.306	339.08333
1836.162	357.08333
1839.017	358.75
1841.869	350.75
1844.719	351.75
1847.567	325.08333
1850.414	324.75
1853.258	328.75
1856.1	347.75
1858.94	343.41667
1861.778	345.41667
1864.614	330.75
1867.448	338.41667
1870.28	323.08333
1873.111	348.08333
1875.939	337.08333
1878.765	352.08333
1881.589	327.41667
1884.411	331.41667
1887.231	339.08333
1890.049	326.41667
1892.865	345.08333
1895.68	320.75
1898.492	332.75
1901.302	331.75
1904.11	319.41667
1906.916	327.41667
1909.721	307.41667
1912.523	331.75
1915.323	315.41667
1918.122	305.08333
1920.918	320.75
1923.712	309.08333
1926.505	317.75
1929.295	287.75
1932.084	311.75
1934.87	311.41667
1937.655	315.08333
1940.438	297.75
1943.218	306.75
1945.997	307.08333
1948.774	321.75
1951.549	308.08333
1954.322	306.75
1957.093	304.75
1959.862	302.08333
1962.629	304.75
1965.394	295.75
1968.157	294.75
1970.918	308.75
1973.678	288.41667
1976.435	307.08333
1979.19	289.75
1981.944	288.41667
1984.696	286.75
1987.445	286.41667
1990.193	281.08333
1992.939	301.75
1995.683	289.08333
1998.425	279.08333
2001.165	313.08333
2003.903	279.75
2006.639	288.41667
2009.374	295.08333
2012.106	288.08333
2014.837	258.08333
2017.566	296.08333
2020.292	280.41667
2023.017	280.08333
2025.74	276.75
2028.461	267.08333
2031.18	272.41667
2033.898	271.08333
2036.613	270.41667
2039.327	278.75
2042.038	265.41667
2044.748	275.75
2047.456	272.41667
2050.162	262.75
2052.866	269.41667
2055.568	287.08333
2058.268	267.41667
2060.967	275.75
2063.663	260.08333
2066.358	261.08333
2069.051	254.08333
2071.742	262.75
2074.431	272.08333
2077.118	253.75
2079.804	248.41667
2082.487	260.75
2085.169	274.41667
2087.849	277.75
2090.527	258.08333
2093.203	266.08333
2095.877	261.41667
2098.55	267.75
2101.22	270.75
2103.889	272.75
2106.556	267.75
2109.221	284.08333
2111.884	278.75
2114.546	303.75
2117.205	310.08333
2119.863	348.75
2122.519	338.75
2125.173	362.41667
2127.825	401.08333
2130.475	399.08333
2133.124	377.75
2135.771	358.41667
2138.416	373.08333
2141.059	333.08333
2143.7	338.41667
2146.339	312.41667
2148.977	281.75
2151.613	296.08333
2154.247	282.08333
2156.879	277.41667
2159.51	269.41667
2162.138	260.75
2164.765	266.75
2167.39	246.75
2170.013	268.75
2172.634	260.41667
2175.254	242.75
2177.872	278.75
2180.488	241.08333
2183.102	245.41667
2185.714	243.75
2188.325	230.41667
2190.934	242.08333
2193.541	243.08333
2196.146	240.41667
2198.75	219.08333
2201.351	225.41667
2203.951	215.75
2206.549	235.41667
2209.146	224.08333
2211.74	221.08333
2214.333	229.08333
2216.924	211.08333
2219.514	220.75
2222.101	217.41667
2224.687	229.41667
2227.271	209.75
2229.853	214.08333
2232.433	200.75
2235.012	229.75
2237.589	216.41667
2240.164	228.08333
2242.738	212.41667
2245.309	204.75
2247.879	222.08333
2250.448	216.75
2253.014	195.75
2255.579	191.08333
2258.142	201.75
2260.703	206.08333
2263.262	202.41667
2265.82	192.08333
2268.376	208.08333
2270.93	200.08333
2273.483	198.75
2276.033	204.08333
2278.583	194.41667
2281.13	191.08333
2283.675	184.75
2286.219	195.08333
2288.761	197.75
2291.302	204.08333
2293.841	205.41667
2296.377	187.75
2298.913	196.41667
2301.446	203.75
2303.978	191.41667
2306.508	192.41667
2309.037	199.75
2311.563	191.41667
2314.088	195.41667
2316.612	177.41667
2319.133	192.75
2321.653	195.08333
2324.171	181.08333
2326.688	197.41667
2329.202	185.75
2331.715	196.08333
2334.227	186.75
2336.736	182.75
2339.244	182.41667
2341.751	175.08333
2344.255	192.08333
2346.758	183.08333
2349.259	174.08333
2351.759	182.41667
2354.257	172.75
2356.753	165.75
2359.247	171.08333
2361.74	177.75
2364.231	177.75
2366.721	184.08333
2369.209	169.41667
2371.695	175.41667
2374.179	172.08333
2376.662	161.08333
2379.143	183.08333
2381.622	165.75
2384.1	179.75
2386.576	172.75
2389.051	182.41667
2391.524	184.41667
2393.995	177.41667
2396.464	167.08333
2398.932	168.75
2401.398	175.08333
2403.863	165.08333
2406.325	169.41667
2408.787	169.08333
2411.246	173.41667
2413.704	169.08333
2416.16	161.75
2418.615	165.08333
2421.068	171.75
2423.519	161.75
2425.969	160.08333
2428.417	175.08333
2430.863	187.08333
2433.308	176.41667
2435.751	167.41667
2438.193	167.75
2440.633	171.75
2443.071	172.75
2445.508	154.75
2447.943	164.75
2450.376	159.75
2452.808	169.75
2455.238	153.75
2457.667	184.41667
2460.093	151.75
2462.519	147.75
2464.942	157.08333
2467.365	160.41667
2469.785	160.75
2472.204	153.75
2474.621	153.41667
2477.037	179.08333
2479.451	147.08333
2481.863	146.08333
2484.274	150.08333
2486.683	153.75
2489.091	164.75
2491.497	159.08333
2493.901	157.08333
2496.304	150.41667
2498.705	163.08333
2501.105	151.75
2503.503	174.08333
2505.899	144.41667
2508.294	168.08333
2510.687	150.75
2513.079	151.41667
2515.469	141.75
2517.858	147.75
2520.245	165.41667
2522.63	148.08333
2525.014	144.41667
2527.396	145.08333
2529.776	143.08333
2532.156	150.08333
2534.533	142.08333
2536.909	143.75
2539.283	127.41667
2541.656	140.41667
2544.027	162.75
2546.397	156.08333
2548.765	148.75
2551.131	147.41667
2553.496	148.08333
2555.86	150.75
2558.221	152.75
2560.582	144.41667
2562.94	136.41667
2565.298	147.41667
2567.653	155.41667
2570.007	135.08333
2572.36	149.75
2574.711	139.75
2577.06	154.41667
2579.408	142.08333
2581.754	140.41667
2584.099	141.08333
2586.442	139.41667
2588.784	145.41667
2591.124	139.08333
2593.463	135.41667
2595.8	148.75
2598.135	133.08333
2600.469	130.08333
2602.802	148.75
2605.133	149.75
2607.462	133.41667
2609.79	128.41667
2612.116	150.08333
2614.441	138.75
2616.764	141.75
2619.086	142.75
2621.406	137.75
2623.725	150.08333
2626.042	135.08333
2628.358	132.08333
2630.672	140.75
2632.985	147.08333
2635.296	143.08333
2637.606	138.08333
2639.914	128.41667
2642.22	131.75
2644.525	137.08333
2646.829	132.75
2649.131	150.75
2651.432	144.75
2653.731	133.08333
2656.028	148.08333
2658.324	148.08333
2660.619	135.08333
2662.912	144.08333
2665.204	127.75
2667.494	140.75
2669.782	129.08333
2672.07	150.41667
2674.355	148.41667
2676.639	143.41667
2678.922	135.41667
2681.203	141.75
2683.483	129.75
2685.761	126.41667
2688.038	148.41667
2690.313	153.41667
2692.587	138.41667
2694.859	138.75
2697.13	137.75
2699.399	141.41667
2701.667	146.75
2703.933	143.41667
2706.198	149.75
2708.461	155.41667
2710.723	149.41667
2712.984	143.08333
2715.243	147.75
2717.5	143.41667
2719.757	149.08333
2722.011	143.08333
2724.264	151.75
2726.516	157.08333
2728.766	143.41667
2731.015	144.75
2733.262	143.41667
2735.508	147.08333
2737.753	143.08333
2739.996	129.08333
2742.237	137.75
2744.477	148.08333
2746.716	155.08333
2748.953	151.41667
2751.189	153.75
2753.423	143.41667
2755.656	140.75
2757.887	135.75
2760.117	135.41667
2762.346	129.08333
2764.573	123.41667
2766.798	135.75
2769.022	132.75
2771.245	129.08333
2773.467	137.08333
2775.686	131.41667
2777.905	141.08333
2780.122	139.08333
2782.337	143.08333
2784.552	132.08333
2786.764	141.75
2788.976	134.41667
2791.186	134.41667
2793.394	139.41667
2795.601	142.08333
2797.807	142.75
2800.011	143.75
2802.214	152.41667
2804.415	146.08333
2806.615	146.41667
2808.814	149.75
2811.011	152.75
2813.206	153.08333
2815.401	163.75
2817.594	161.41667
2819.785	164.08333
2821.975	148.08333
2824.164	154.41667
2826.351	156.41667
2828.537	169.75
2830.722	172.08333
2832.905	165.41667
2835.086	174.75
2837.267	191.41667
2839.445	190.08333
2841.623	191.08333
2843.799	192.41667
2845.974	198.75
2848.147	205.75
2850.319	213.75
2852.489	230.08333
2854.659	222.75
2856.826	228.75
2858.993	240.75
2861.158	220.41667
2863.321	224.75
2865.483	247.08333
2867.644	235.75
2869.804	241.08333
2871.962	229.08333
2874.118	234.08333
2876.274	237.41667
2878.428	226.75
2880.58	238.75
2882.731	220.41667
2884.881	230.08333
2887.03	238.75
2889.177	233.41667
2891.322	242.75
2893.467	232.41667
2895.61	231.08333
2897.751	245.41667
2899.892	233.75
2902.03	235.41667
2904.168	234.41667
2906.304	232.41667
2908.439	258.41667
2910.572	232.08333
2912.704	236.75
2914.835	250.08333
2916.965	241.08333
2919.093	259.75
2921.219	227.75
2923.345	256.41667
2925.469	240.75
2927.591	238.08333
2929.712	227.08333
2931.832	232.08333
2933.951	224.41667
2936.068	221.08333
2938.184	214.75
2940.299	211.41667
2942.412	205.75
2944.524	192.41667
2946.634	198.75
2948.744	173.41667
2950.851	208.08333
2952.958	174.75
2955.063	184.08333
2957.167	177.08333
2959.269	154.75
2961.371	192.08333
2963.471	157.41667
2965.569	176.08333
2967.666	148.41667
2969.762	149.41667
2971.857	142.75
2973.95	142.75
2976.042	149.08333
2978.133	142.75
2980.222	146.75
2982.31	132.41667
2984.396	118.08333
2986.482	121.75
2988.566	131.08333
2990.648	125.75
2992.73	128.75
2994.81	110.08333
2996.889	128.41667
2998.966	120.75
3001.042	132.41667
3003.117	116.41667
3005.191	122.08333
3007.263	133.41667
3009.334	117.75
3011.403	125.41667
3013.472	113.41667
3015.539	129.41667
3017.604	138.41667
3019.669	105.08333
3021.732	113.75
3023.794	112.41667
3025.854	105.41667
3027.914	103.08333
3029.971	106.08333
3032.028	110.08333
3034.083	112.75
3036.137	110.75
3038.19	96.08333
3040.242	92.75
3042.292	95.75
3044.341	99.75
3046.388	119.41667
3048.435	94.75
3050.48	111.08333
3052.524	93.41667
3054.566	84.41667
3056.607	99.41667
3058.647	95.08333
3060.686	82.41667
3062.723	76.75
3064.759	81.75
3066.794	1.08333
3068.828	0.75
3070.86	1.75
