-0.839	141.83333
3.438	160.83333
7.711	65.16667
11.981	45.16667
16.247	33.5
20.509	39.5
24.768	36.16667
29.024	43.16667
33.276	32.5
37.524	42.5
41.769	31.16667
46.01	29.16667
50.247	44.83333
54.481	52.16667
58.712	54.16667
62.939	38.16667
67.162	54.5
71.382	42.83333
75.599	36.16667
79.812	45.16667
84.021	64.5
88.227	42.5
92.429	50.5
96.628	37.83333
100.823	51.83333
105.015	56.83333
109.204	46.5
113.388	62.16667
117.57	44.5
121.748	59.5
125.922	48.16667
130.093	69.5
134.261	67.83333
138.425	56.16667
142.585	85.83333
146.742	66.83333
150.896	80.5
155.046	82.5
159.193	116.5
163.336	165.5
167.476	291.5
171.613	532.16667
175.746	860.5
179.875	1252.83333
184.002	1643.83333
188.124	1946.16667
192.244	2059.5
196.36	2047.16667
200.472	2048.16667
204.581	2005.5
208.687	1949.83333
212.79	1956.5
216.889	1985.16667
220.984	2005.16667
225.077	2017.83333
229.165	2027.5
233.251	2026.83333
237.333	2037.83333
241.412	2007.16667
245.487	2012.16667
249.559	1974.16667
253.628	1976.5
257.694	1941.16667
261.756	1964.5
265.814	1911.16667
269.87	1865.16667
273.922	1835.5
277.97	1820.5
282.016	1804.5
286.058	1792.83333
290.097	1828.83333
294.132	1844.16667
298.164	1807.5
302.193	1776.83333
306.219	1664.16667
310.241	1569.83333
314.26	1466.83333
318.276	1408.16667
322.288	1367.5
326.297	1330.5
330.303	1295.83333
334.305	1275.16667
338.305	1264.5
342.301	1254.16667
346.294	1266.5
350.283	1239.16667
354.269	1242.5
358.252	1229.83333
362.232	1240.16667
366.209	1251.5
370.182	1213.16667
374.152	1225.16667
378.119	1232.83333
382.083	1230.83333
386.043	1248.5
390	1232.83333
393.954	1235.16667
397.905	1233.5
401.852	1244.5
405.797	1224.5
409.738	1233.16667
413.676	1239.16667
417.61	1234.5
421.542	1235.83333
425.47	1202.83333
429.396	1206.5
433.318	1190.5
437.236	1205.16667
441.152	1246.5
445.065	1175.83333
448.974	1182.83333
452.88	1185.16667
456.783	1175.5
460.683	1167.83333
464.58	1190.83333
468.473	1189.16667
472.364	1193.83333
476.251	1191.5
480.135	1200.16667
484.016	1210.16667
487.894	1225.5
491.769	1212.16667
495.641	1208.5
499.509	1229.16667
503.375	1225.5
507.237	1209.83333
511.096	1209.5
514.952	1209.16667
518.805	1199.5
522.655	1208.16667
526.502	1189.5
530.346	1212.16667
534.187	1217.83333
538.024	1206.16667
541.859	1203.83333
545.69	1213.83333
549.519	1209.16667
553.344	1206.5
557.166	1186.5
560.985	1187.5
564.802	1182.16667
568.615	1174.5
572.425	1151.5
576.232	1144.16667
580.036	1141.83333
583.836	1147.5
587.634	1159.16667
591.429	1146.83333
595.221	1192.83333
599.01	1185.5
602.796	1166.83333
606.578	1188.83333
610.358	1185.5
614.135	1185.16667
617.909	1176.16667
621.679	1171.5
625.447	1158.83333
629.212	1167.16667
632.973	1160.16667
636.732	1163.16667
640.488	1152.83333
644.241	1136.83333
647.991	1145.83333
651.737	1165.16667
655.481	1128.5
659.222	1134.16667
662.96	1143.16667
666.695	1146.83333
670.427	1143.5
674.156	1161.83333
677.882	1162.16667
681.605	1157.16667
685.325	1127.5
689.043	1160.83333
692.757	1146.5
696.468	1127.5
700.177	1134.83333
703.882	1113.16667
707.585	1103.16667
711.284	1123.83333
714.981	1103.5
718.675	1105.16667
722.366	1120.5
726.054	1102.83333
729.739	1119.83333
733.421	1105.16667
737.1	1101.83333
740.777	1113.16667
744.45	1103.83333
748.121	1122.5
751.789	1149.83333
755.453	1132.5
759.115	1173.16667
762.774	1170.83333
766.431	1136.5
770.084	1158.5
773.734	1149.5
777.382	1149.83333
781.027	1161.5
784.669	1144.83333
788.308	1149.83333
791.944	1156.83333
795.577	1180.83333
799.208	1185.83333
802.835	1175.83333
806.46	1178.16667
810.082	1186.83333
813.701	1185.83333
817.317	1188.16667
820.931	1199.16667
824.542	1192.16667
828.149	1164.16667
831.754	1154.83333
835.357	1167.83333
838.956	1156.83333
842.553	1159.83333
846.146	1145.16667
849.737	1137.83333
853.326	1151.16667
856.911	1116.83333
860.493	1149.83333
864.073	1138.5
867.65	1181.83333
871.225	1168.16667
874.796	1157.16667
878.365	1170.83333
881.931	1161.16667
885.494	1185.83333
889.054	1154.83333
892.612	1170.16667
896.166	1161.5
899.719	1135.83333
903.268	1109.83333
906.814	1135.83333
910.358	1116.83333
913.899	1096.83333
917.438	1107.5
920.973	1078.83333
924.506	1107.5
928.036	1126.5
931.564	1135.5
935.088	1153.5
938.61	1144.16667
942.129	1132.16667
945.646	1158.5
949.16	1183.5
952.671	1182.83333
956.179	1179.16667
959.685	1181.83333
963.188	1187.83333
966.688	1170.5
970.185	1124.5
973.68	1107.83333
977.173	1103.5
980.662	1092.83333
984.149	1112.83333
987.633	1085.83333
991.114	1094.83333
994.593	1104.5
998.069	1136.83333
1001.542	1153.5
1005.013	1159.5
1008.481	1079.16667
1011.947	1062.5
1015.409	1054.16667
1018.869	1064.5
1022.327	1077.5
1025.782	1054.83333
1029.234	1050.83333
1032.683	1027.83333
1036.13	1001.83333
1039.574	984.5
1043.016	962.5
1046.455	938.83333
1049.891	924.5
1053.325	953.16667
1056.756	935.16667
1060.184	932.5
1063.61	939.16667
1067.033	949.5
1070.454	935.16667
1073.872	959.16667
1077.287	941.5
1080.7	948.83333
1084.11	939.16667
1087.517	940.5
1090.922	934.5
1094.325	914.5
1097.724	899.83333
1101.122	910.16667
1104.516	898.16667
1107.908	899.16667
1111.298	897.16667
1114.684	915.5
1118.069	909.16667
1121.45	934.16667
1124.83	910.5
1128.206	936.16667
1131.58	937.83333
1134.951	954.5
1138.32	967.5
1141.687	1017.16667
1145.05	1012.83333
1148.412	1004.16667
1151.77	999.16667
1155.126	1002.16667
1158.48	994.83333
1161.831	1002.83333
1165.18	1002.16667
1168.525	1031.83333
1171.869	1026.16667
1175.21	1019.16667
1178.548	1037.83333
1181.884	1049.83333
1185.217	1054.5
1188.548	1067.5
1191.877	1086.83333
1195.202	1126.5
1198.526	1166.83333
1201.846	1138.83333
1205.165	1143.83333
1208.48	1150.5
1211.794	1144.5
1215.104	1142.83333
1218.413	1151.83333
1221.719	1154.5
1225.022	1142.16667
1228.323	1105.5
1231.621	1109.5
1234.917	1109.83333
1238.21	1121.16667
1241.501	1101.16667
1244.79	1091.83333
1248.076	1083.83333
1251.359	1096.83333
1254.64	1144.5
1257.919	1112.5
1261.195	1132.83333
1264.468	1137.16667
1267.74	1167.5
1271.008	1152.5
1274.275	1162.16667
1277.538	1146.16667
1280.8	1154.5
1284.059	1150.16667
1287.315	1166.5
1290.569	1159.5
1293.821	1168.5
1297.07	1179.5
1300.317	1176.5
1303.562	1177.83333
1306.803	1169.5
1310.043	1154.5
1313.28	1142.16667
1316.515	1142.5
1319.747	1139.5
1322.977	1130.16667
1326.204	1119.83333
1329.429	1110.16667
1332.652	1117.83333
1335.872	1121.16667
1339.09	1091.83333
1342.306	1089.16667
1345.519	1083.83333
1348.729	1083.5
1351.938	1078.16667
1355.144	1064.5
1358.347	1052.83333
1361.548	1071.5
1364.747	1069.83333
1367.944	1045.5
1371.138	1050.16667
1374.329	1043.83333
1377.518	1053.16667
1380.705	1052.16667
1383.89	1049.5
1387.072	1014.5
1390.252	987.83333
1393.429	958.83333
1396.605	947.16667
1399.777	918.83333
1402.948	914.5
1406.116	889.83333
1409.282	907.5
1412.445	895.83333
1415.606	918.5
1418.765	924.83333
1421.921	918.5
1425.075	936.83333
1428.227	955.5
1431.376	992.16667
1434.524	1026.5
1437.668	1038.16667
1440.811	1040.5
1443.951	1060.5
1447.089	1057.16667
1450.224	1046.83333
1453.357	1029.83333
1456.488	1037.16667
1459.617	1030.16667
1462.743	1023.5
1465.867	979.16667
1468.989	987.16667
1472.108	969.5
1475.225	951.5
1478.34	926.83333
1481.453	928.16667
1484.563	924.5
1487.671	929.16667
1490.776	956.5
1493.88	956.16667
1496.981	959.16667
1500.08	978.5
1503.176	983.16667
1506.271	978.16667
1509.363	997.5
1512.452	1004.83333
1515.54	1028.5
1518.625	1033.5
1521.708	1068.5
1524.789	1078.5
1527.867	1113.16667
1530.944	1150.83333
1534.018	1193.5
1537.089	1255.16667
1540.159	1261.5
1543.226	1270.5
1546.291	1237.5
1549.354	1213.5
1552.415	1184.5
1555.473	1175.16667
1558.529	1160.5
1561.583	1140.16667
1564.634	1133.5
1567.684	1134.83333
1570.731	1118.83333
1573.776	1130.16667
1576.819	1124.16667
1579.859	1133.16667
1582.898	1154.83333
1585.934	1174.83333
1588.968	1181.16667
1591.999	1158.5
1595.029	1170.16667
1598.056	1166.83333
1601.081	1193.5
1604.104	1183.16667
1607.125	1148.16667
1610.144	1148.16667
1613.16	1108.83333
1616.174	1092.5
1619.186	1072.83333
1622.196	1055.16667
1625.203	1027.83333
1628.209	1022.16667
1631.212	1011.16667
1634.213	1018.16667
1637.212	1011.5
1640.209	1014.83333
1643.203	979.83333
1646.196	967.16667
1649.186	937.16667
1652.174	918.5
1655.16	879.16667
1658.144	886.83333
1661.125	848.83333
1664.105	809.16667
1667.082	795.5
1670.057	740.5
1673.03	701.83333
1676.001	663.83333
1678.97	625.83333
1681.937	617.16667
1684.901	585.16667
1687.863	569.16667
1690.824	523.16667
1693.782	538.83333
1696.738	508.16667
1699.692	501.83333
1702.643	501.83333
1705.593	489.83333
1708.54	486.83333
1711.486	502.5
1714.429	476.83333
1717.37	484.5
1720.309	471.83333
1723.246	466.5
1726.181	461.16667
1729.113	457.5
1732.044	457.83333
1734.972	454.83333
1737.899	465.5
1740.823	463.16667
1743.745	475.83333
1746.665	436.16667
1749.583	432.5
1752.499	421.5
1755.413	424.5
1758.325	416.83333
1761.235	424.16667
1764.142	406.83333
1767.048	407.16667
1769.951	405.83333
1772.852	403.16667
1775.752	406.83333
1778.649	412.83333
1781.544	424.5
1784.437	390.5
1787.328	405.83333
1790.217	396.16667
1793.104	370.83333
1795.989	387.5
1798.872	374.5
1801.753	393.5
1804.631	382.83333
1807.508	388.16667
1810.383	375.5
1813.255	382.5
1816.126	380.83333
1818.994	380.16667
1821.861	362.83333
1824.725	376.83333
1827.587	380.83333
1830.448	374.5
1833.306	361.16667
1836.162	373.5
1839.017	364.16667
1841.869	366.83333
1844.719	372.16667
1847.567	344.16667
1850.414	346.16667
1853.258	347.16667
1856.1	368.5
1858.94	365.83333
1861.778	360.5
1864.614	348.83333
1867.448	361.16667
1870.28	333.5
1873.111	360.83333
1875.939	351.83333
1878.765	364.83333
1881.589	347.16667
1884.411	341.83333
1887.231	357.5
1890.049	346.16667
1892.865	355.83333
1895.68	335.5
1898.492	354.83333
1901.302	342.5
1904.11	329.5
1906.916	341.16667
1909.721	331.83333
1912.523	340.5
1915.323	327.5
1918.122	317.5
1920.918	345.83333
1923.712	326.16667
1926.505	334.16667
1929.295	312.83333
1932.084	331.16667
1934.87	325.16667
1937.655	319.83333
1940.438	315.83333
1943.218	326.16667
1945.997	331.16667
1948.774	327.5
1951.549	336.16667
1954.322	317.83333
1957.093	318.5
1959.862	318.16667
1962.629	310.16667
1965.394	315.83333
1968.157	299.83333
1970.918	325.5
1973.678	303.83333
1976.435	318.16667
1979.19	307.83333
1981.944	301.16667
1984.696	302.16667
1987.445	306.16667
1990.193	303.5
1992.939	312.83333
1995.683	303.16667
1998.425	286.5
2001.165	324.16667
2003.903	289.83333
2006.639	291.5
2009.374	302.16667
2012.106	307.83333
2014.837	278.83333
2017.566	302.83333
2020.292	295.83333
2023.017	295.16667
2025.74	293.5
2028.461	288.5
2031.18	290.5
2033.898	275.16667
2036.613	279.5
2039.327	285.5
2042.038	285.83333
2044.748	285.16667
2047.456	294.16667
2050.162	270.83333
2052.866	280.83333
2055.568	286.5
2058.268	278.83333
2060.967	288.16667
2063.663	274.5
2066.358	273.16667
2069.051	271.16667
2071.742	280.83333
2074.431	283.16667
2077.118	285.83333
2079.804	260.83333
2082.487	265.83333
2085.169	285.5
2087.849	302.83333
2090.527	266.83333
2093.203	276.5
2095.877	270.5
2098.55	282.5
2101.22	280.5
2103.889	284.83333
2106.556	275.5
2109.221	299.83333
2111.884	283.83333
2114.546	312.83333
2117.205	319.83333
2119.863	354.16667
2122.519	351.16667
2125.173	374.83333
2127.825	408.5
2130.475	412.5
2133.124	393.5
2135.771	376.5
2138.416	387.16667
2141.059	349.16667
2143.7	344.5
2146.339	321.16667
2148.977	288.5
2151.613	301.83333
2154.247	293.16667
2156.879	286.83333
2159.51	272.5
2162.138	274.83333
2164.765	268.83333
2167.39	255.16667
2170.013	282.5
2172.634	271.83333
2175.254	266.83333
2177.872	289.5
2180.488	254.5
2183.102	262.83333
2185.714	253.5
2188.325	238.83333
2190.934	247.83333
2193.541	253.5
2196.146	249.83333
2198.75	241.83333
2201.351	238.16667
2203.951	227.5
2206.549	237.16667
2209.146	228.5
2211.74	225.83333
2214.333	238.16667
2216.924	225.83333
2219.514	230.83333
2222.101	228.16667
2224.687	239.16667
2227.271	214.5
2229.853	222.16667
2232.433	208.16667
2235.012	230.83333
2237.589	225.83333
2240.164	238.16667
2242.738	224.5
2245.309	206.16667
2247.879	235.83333
2250.448	230.83333
2253.014	205.16667
2255.579	200.5
2258.142	216.5
2260.703	213.5
2263.262	211.5
2265.82	196.16667
2268.376	214.16667
2270.93	208.83333
2273.483	204.16667
2276.033	210.83333
2278.583	200.5
2281.13	201.83333
2283.675	195.83333
2286.219	200.5
2288.761	211.5
2291.302	212.83333
2293.841	214.16667
2296.377	189.83333
2298.913	202.83333
2301.446	211.16667
2303.978	200.16667
2306.508	199.83333
2309.037	201.83333
2311.563	194.83333
2314.088	198.16667
2316.612	186.83333
2319.133	194.83333
2321.653	200.5
2324.171	195.16667
2326.688	201.83333
2329.202	196.16667
2331.715	199.83333
2334.227	195.5
2336.736	195.5
2339.244	185.5
2341.751	182.16667
2344.255	198.16667
2346.758	193.83333
2349.259	182.16667
2351.759	189.5
2354.257	181.83333
2356.753	186.16667
2359.247	181.16667
2361.74	183.83333
2364.231	188.5
2366.721	187.16667
2369.209	182.83333
2371.695	184.16667
2374.179	178.16667
2376.662	163.5
2379.143	189.83333
2381.622	179.5
2384.1	183.5
2386.576	177.83333
2389.051	186.83333
2391.524	190.83333
2393.995	185.83333
2396.464	173.5
2398.932	170.16667
2401.398	180.16667
2403.863	169.83333
2406.325	169.5
2408.787	181.5
2411.246	174.16667
2413.704	178.83333
2416.16	168.5
2418.615	170.83333
2421.068	175.5
2423.519	163.16667
2425.969	161.83333
2428.417	178.16667
2430.863	193.83333
2433.308	182.16667
2435.751	175.16667
2438.193	170.5
2440.633	178.83333
2443.071	176.5
2445.508	167.83333
2447.943	169.5
2450.376	165.83333
2452.808	170.83333
2455.238	163.83333
2457.667	187.5
2460.093	162.16667
2462.519	151.16667
2464.942	157.16667
2467.365	167.16667
2469.785	166.5
2472.204	154.83333
2474.621	161.5
2477.037	179.16667
2479.451	153.16667
2481.863	154.16667
2484.274	154.16667
2486.683	158.83333
2489.091	171.16667
2491.497	160.83333
2493.901	165.83333
2496.304	158.5
2498.705	170.83333
2501.105	163.5
2503.503	173.16667
2505.899	150.16667
2508.294	175.16667
2510.687	150.83333
2513.079	157.83333
2515.469	149.16667
2517.858	151.83333
2520.245	163.83333
2522.63	155.16667
2525.014	146.83333
2527.396	145.83333
2529.776	155.83333
2532.156	159.83333
2534.533	143.83333
2536.909	144.16667
2539.283	139.16667
2541.656	148.16667
2544.027	159.16667
2546.397	155.16667
2548.765	154.83333
2551.131	150.16667
2553.496	158.5
2555.86	156.83333
2558.221	157.16667
2560.582	142.5
2562.94	140.16667
2565.298	146.83333
2567.653	163.5
2570.007	138.5
2572.36	156.5
2574.711	140.16667
2577.06	156.83333
2579.408	149.16667
2581.754	144.83333
2584.099	147.83333
2586.442	145.16667
2588.784	149.5
2591.124	149.83333
2593.463	147.16667
2595.8	154.16667
2598.135	133.16667
2600.469	135.5
2602.802	152.5
2605.133	154.83333
2607.462	139.16667
2609.79	138.5
2612.116	146.83333
2614.441	143.16667
2616.764	144.16667
2619.086	139.83333
2621.406	138.5
2623.725	157.83333
2626.042	141.83333
2628.358	135.5
2630.672	145.5
2632.985	150.16667
2635.296	145.83333
2637.606	139.16667
2639.914	134.83333
2642.22	137.83333
2644.525	142.5
2646.829	140.16667
2649.131	153.83333
2651.432	144.5
2653.731	137.16667
2656.028	152.5
2658.324	142.5
2660.619	134.16667
2662.912	151.83333
2665.204	130.83333
2667.494	146.83333
2669.782	131.5
2672.07	152.83333
2674.355	151.16667
2676.639	144.83333
2678.922	136.16667
2681.203	140.16667
2683.483	133.83333
2685.761	130.5
2688.038	152.83333
2690.313	152.5
2692.587	144.83333
2694.859	136.5
2697.13	144.16667
2699.399	144.16667
2701.667	147.83333
2703.933	142.16667
2706.198	151.83333
2708.461	147.5
2710.723	145.5
2712.984	147.83333
2715.243	150.5
2717.5	140.83333
2719.757	151.16667
2722.011	142.83333
2724.264	157.5
2726.516	162.16667
2728.766	139.16667
2731.015	144.5
2733.262	147.16667
2735.508	145.5
2737.753	151.16667
2739.996	137.5
2742.237	141.5
2744.477	148.83333
2746.716	153.5
2748.953	150.83333
2751.189	154.5
2753.423	144.5
2755.656	134.83333
2757.887	133.5
2760.117	137.5
2762.346	132.16667
2764.573	126.5
2766.798	133.16667
2769.022	136.5
2771.245	132.83333
2773.467	139.83333
2775.686	132.16667
2777.905	148.5
2780.122	141.16667
2782.337	142.83333
2784.552	135.5
2786.764	141.83333
2788.976	135.5
2791.186	140.5
2793.394	141.16667
2795.601	146.5
2797.807	148.83333
2800.011	149.5
2802.214	147.16667
2804.415	153.16667
2806.615	152.16667
2808.814	147.16667
2811.011	155.5
2813.206	156.16667
2815.401	162.5
2817.594	161.83333
2819.785	162.83333
2821.975	150.83333
2824.164	161.16667
2826.351	156.83333
2828.537	170.83333
2830.722	174.5
2832.905	167.5
2835.086	176.16667
2837.267	193.5
2839.445	188.16667
2841.623	187.16667
2843.799	193.5
2845.974	201.16667
2848.147	204.83333
2850.319	209.5
2852.489	227.83333
2854.659	222.16667
2856.826	224.16667
2858.993	244.5
2861.158	224.16667
2863.321	229.16667
2865.483	240.83333
2867.644	239.83333
2869.804	232.16667
2871.962	231.5
2874.118	227.5
2876.274	237.16667
2878.428	236.16667
2880.58	238.16667
2882.731	227.5
2884.881	236.83333
2887.03	240.83333
2889.177	236.5
2891.322	248.5
2893.467	235.5
2895.61	236.5
2897.751	247.5
2899.892	236.5
2902.03	242.16667
2904.168	239.5
2906.304	240.83333
2908.439	257.5
2910.572	234.16667
2912.704	242.16667
2914.835	249.83333
2916.965	252.83333
2919.093	261.83333
2921.219	234.83333
2923.345	259.5
2925.469	241.5
2927.591	230.83333
2929.712	219.83333
2931.832	235.83333
2933.951	228.5
2936.068	220.16667
2938.184	212.5
2940.299	208.16667
2942.412	210.83333
2944.524	197.83333
2946.634	201.83333
2948.744	178.83333
2950.851	205.83333
2952.958	175.83333
2955.063	187.83333
2957.167	174.83333
2959.269	163.83333
2961.371	194.83333
2963.471	161.5
2965.569	182.16667
2967.666	151.83333
2969.762	157.5
2971.857	151.83333
2973.95	146.5
2976.042	156.5
2978.133	146.5
2980.222	140.16667
2982.31	127.83333
2984.396	122.5
2986.482	126.5
2988.566	130.16667
2990.648	130.83333
2992.73	129.83333
2994.81	114.83333
2996.889	131.83333
2998.966	124.16667
3001.042	139.5
3003.117	121.16667
3005.191	122.5
3007.263	130.16667
3009.334	121.5
3011.403	125.16667
3013.472	120.5
3015.539	130.16667
3017.604	133.5
3019.669	109.5
3021.732	119.83333
3023.794	111.16667
3025.854	108.83333
3027.914	105.5
3029.971	110.83333
3032.028	106.83333
3034.083	117.16667
3036.137	111.83333
3038.19	101.5
3040.242	94.5
3042.292	94.16667
3044.341	99.16667
3046.388	118.83333
3048.435	96.83333
3050.48	117.16667
3052.524	99.5
3054.566	88.83333
3056.607	102.16667
3058.647	96.16667
3060.686	84.16667
3062.723	82.5
3064.759	83.16667
3066.794	-0.16667
3068.828	1.83333
3070.86	2.5
