-0.839	144.79167
3.438	163.125
7.711	68.79167
11.981	43.125
16.247	31.79167
20.509	38.79167
24.768	35.45833
29.024	43.45833
33.276	31.79167
37.524	41.79167
41.769	27.45833
46.01	26.45833
50.247	41.125
54.481	48.79167
58.712	50.79167
62.939	37.125
67.162	57.45833
71.382	45.45833
75.599	37.45833
79.812	41.79167
84.021	61.45833
88.227	41.79167
92.429	48.79167
96.628	37.79167
100.823	53.45833
105.015	53.125
109.204	44.125
113.388	59.125
117.57	49.125
121.748	60.45833
125.922	46.45833
130.093	66.45833
134.261	66.45833
138.425	52.45833
142.585	88.125
146.742	67.79167
150.896	80.125
155.046	72.125
159.193	112.79167
163.336	163.125
167.476	289.125
171.613	518.79167
175.746	853.45833
179.875	1223.125
184.002	1589.125
188.124	1868.125
192.244	1973.45833
196.36	1983.79167
200.472	1967.125
204.581	1954.45833
208.687	1867.45833
212.79	1870.79167
216.889	1904.79167
220.984	1925.125
225.077	1948.79167
229.165	1939.45833
233.251	1927.125
237.333	1934.125
241.412	1918.79167
245.487	1910.79167
249.559	1889.125
253.628	1901.45833
257.694	1871.79167
261.756	1869.45833
265.814	1818.125
269.87	1770.45833
273.922	1730.79167
277.97	1712.125
282.016	1723.125
286.058	1687.125
290.097	1709.45833
294.132	1739.125
298.164	1732.125
302.193	1660.79167
306.219	1570.79167
310.241	1476.45833
314.26	1380.125
318.276	1307.79167
322.288	1272.79167
326.297	1236.125
330.303	1202.79167
334.305	1193.79167
338.305	1178.79167
342.301	1163.45833
346.294	1152.45833
350.283	1151.45833
354.269	1142.79167
358.252	1132.45833
362.232	1154.79167
366.209	1142.125
370.182	1128.79167
374.152	1124.79167
378.119	1134.79167
382.083	1111.125
386.043	1133.45833
390	1120.45833
393.954	1135.45833
397.905	1124.45833
401.852	1137.45833
405.797	1116.125
409.738	1123.125
413.676	1139.45833
417.61	1148.45833
421.542	1120.45833
425.47	1103.45833
429.396	1101.79167
433.318	1093.125
437.236	1083.79167
441.152	1133.125
445.065	1075.125
448.974	1089.125
452.88	1069.125
456.783	1065.45833
460.683	1057.79167
464.58	1078.125
468.473	1086.125
472.364	1074.79167
476.251	1082.125
480.135	1082.125
484.016	1093.45833
487.894	1111.79167
491.769	1105.125
495.641	1107.79167
499.509	1107.125
503.375	1119.45833
507.237	1100.45833
511.096	1116.79167
514.952	1131.79167
518.805	1151.125
522.655	1169.79167
526.502	1136.79167
530.346	1105.79167
534.187	1120.45833
538.024	1108.125
541.859	1109.79167
545.69	1120.125
549.519	1125.45833
553.344	1107.125
557.166	1075.45833
560.985	1084.125
564.802	1072.79167
568.615	1067.45833
572.425	1047.79167
576.232	1046.45833
580.036	1049.79167
583.836	1054.79167
587.634	1059.45833
591.429	1057.125
595.221	1071.79167
599.01	1074.79167
602.796	1068.45833
606.578	1080.45833
610.358	1082.79167
614.135	1079.125
617.909	1066.79167
621.679	1059.79167
625.447	1062.125
629.212	1052.79167
632.973	1060.125
636.732	1053.45833
640.488	1063.45833
644.241	1046.125
647.991	1046.125
651.737	1060.45833
655.481	1028.79167
659.222	1025.45833
662.96	1027.45833
666.695	1045.79167
670.427	1056.79167
674.156	1049.125
677.882	1056.45833
681.605	1054.125
685.325	1043.79167
689.043	1060.79167
692.757	1047.125
696.468	1035.125
700.177	1030.79167
703.882	1012.79167
707.585	1015.79167
711.284	1027.125
714.981	1005.45833
718.675	1006.125
722.366	1029.125
726.054	1001.45833
729.739	1007.125
733.421	1020.125
737.1	1004.125
740.777	1020.79167
744.45	1019.79167
748.121	1020.45833
751.789	1070.45833
755.453	1037.45833
759.115	1024.79167
762.774	1036.79167
766.431	1041.79167
770.084	1043.125
773.734	1047.45833
777.382	1060.79167
781.027	1073.45833
784.669	1064.125
788.308	1072.125
791.944	1074.125
795.577	1084.125
799.208	1081.125
802.835	1083.125
806.46	1086.125
810.082	1077.79167
813.701	1080.45833
817.317	1098.79167
820.931	1094.125
824.542	1107.45833
828.149	1076.45833
831.754	1083.125
835.357	1078.125
838.956	1081.45833
842.553	1084.79167
846.146	1075.125
849.737	1059.125
853.326	1060.125
856.911	1045.79167
860.493	1081.79167
864.073	1076.45833
867.65	1100.79167
871.225	1108.125
874.796	1081.125
878.365	1082.79167
881.931	1096.125
885.494	1101.125
889.054	1087.125
892.612	1091.125
896.166	1090.79167
899.719	1079.79167
903.268	1054.45833
906.814	1046.45833
910.358	1035.79167
913.899	1032.45833
917.438	1039.125
920.973	1019.79167
924.506	1040.45833
928.036	1053.45833
931.564	1048.79167
935.088	1075.79167
938.61	1066.125
942.129	1066.125
945.646	1090.45833
949.16	1095.45833
952.671	1104.125
956.179	1120.45833
959.685	1104.79167
963.188	1092.45833
966.688	1068.125
970.185	1059.125
973.68	1036.79167
977.173	1032.79167
980.662	1019.79167
984.149	1020.45833
987.633	1009.125
991.114	1020.79167
994.593	1045.79167
998.069	1062.45833
1001.542	1084.79167
1005.013	1069.125
1008.481	1004.45833
1011.947	993.79167
1015.409	977.45833
1018.869	990.45833
1022.327	1001.45833
1025.782	974.125
1029.234	981.125
1032.683	968.79167
1036.13	938.45833
1039.574	908.79167
1043.016	898.79167
1046.455	868.45833
1049.891	874.125
1053.325	886.79167
1056.756	870.45833
1060.184	882.45833
1063.61	857.45833
1067.033	883.79167
1070.454	880.45833
1073.872	882.79167
1077.287	879.45833
1080.7	870.45833
1084.11	882.79167
1087.517	872.79167
1090.922	869.79167
1094.325	848.79167
1097.724	846.79167
1101.122	855.79167
1104.516	849.79167
1107.908	835.125
1111.298	836.79167
1114.684	849.79167
1118.069	848.45833
1121.45	876.79167
1124.83	862.45833
1128.206	873.125
1131.58	893.45833
1134.951	912.45833
1138.32	918.79167
1141.687	956.125
1145.05	973.79167
1148.412	967.125
1151.77	954.79167
1155.126	957.125
1158.48	957.125
1161.831	961.45833
1165.18	952.125
1168.525	988.125
1171.869	993.125
1175.21	977.79167
1178.548	990.79167
1181.884	991.79167
1185.217	1014.45833
1188.548	1034.79167
1191.877	1038.45833
1195.202	1096.45833
1198.526	1097.125
1201.846	1095.79167
1205.165	1080.79167
1208.48	1097.79167
1211.794	1095.125
1215.104	1090.45833
1218.413	1081.125
1221.719	1087.45833
1225.022	1061.125
1228.323	1057.45833
1231.621	1068.45833
1234.917	1043.45833
1238.21	1073.79167
1241.501	1043.79167
1244.79	1034.45833
1248.076	1022.45833
1251.359	1047.125
1254.64	1093.45833
1257.919	1069.45833
1261.195	1073.125
1264.468	1102.45833
1267.74	1108.45833
1271.008	1114.45833
1274.275	1106.125
1277.538	1091.125
1280.8	1099.125
1284.059	1095.79167
1287.315	1103.45833
1290.569	1089.79167
1293.821	1108.45833
1297.07	1103.125
1300.317	1115.45833
1303.562	1124.79167
1306.803	1110.45833
1310.043	1103.79167
1313.28	1106.125
1316.515	1085.125
1319.747	1080.45833
1322.977	1074.45833
1326.204	1056.45833
1329.429	1039.45833
1332.652	1060.79167
1335.872	1051.79167
1339.09	1022.125
1342.306	1027.125
1345.519	1017.125
1348.729	1007.125
1351.938	1007.45833
1355.144	1004.45833
1358.347	990.125
1361.548	1009.79167
1364.747	1000.79167
1367.944	983.45833
1371.138	985.45833
1374.329	991.45833
1377.518	1006.79167
1380.705	1005.79167
1383.89	1008.45833
1387.072	965.79167
1390.252	933.79167
1393.429	915.125
1396.605	889.79167
1399.777	862.45833
1402.948	861.125
1406.116	844.45833
1409.282	858.125
1412.445	841.125
1415.606	859.79167
1418.765	860.79167
1421.921	886.45833
1425.075	890.79167
1428.227	904.125
1431.376	944.125
1434.524	961.45833
1437.668	985.125
1440.811	980.45833
1443.951	999.125
1447.089	997.125
1450.224	984.45833
1453.357	986.125
1456.488	977.79167
1459.617	969.79167
1462.743	978.125
1465.867	939.45833
1468.989	937.79167
1472.108	914.125
1475.225	904.79167
1478.34	892.79167
1481.453	890.125
1484.563	878.125
1487.671	883.45833
1490.776	916.125
1493.88	921.79167
1496.981	931.125
1500.08	943.45833
1503.176	949.79167
1506.271	968.45833
1509.363	975.79167
1512.452	970.45833
1515.54	987.79167
1518.625	990.79167
1521.708	1037.125
1524.789	1052.45833
1527.867	1091.125
1530.944	1121.79167
1534.018	1168.45833
1537.089	1220.79167
1540.159	1226.125
1543.226	1224.79167
1546.291	1216.125
1549.354	1199.79167
1552.415	1180.125
1555.473	1155.45833
1558.529	1142.125
1561.583	1123.79167
1564.634	1095.79167
1567.684	1105.79167
1570.731	1102.79167
1573.776	1117.79167
1576.819	1123.45833
1579.859	1131.79167
1582.898	1140.45833
1585.934	1137.125
1588.968	1150.79167
1591.999	1132.125
1595.029	1140.45833
1598.056	1160.79167
1601.081	1164.79167
1604.104	1157.79167
1607.125	1143.125
1610.144	1116.79167
1613.16	1073.125
1616.174	1066.79167
1619.186	1047.79167
1622.196	1013.45833
1625.203	984.45833
1628.209	977.45833
1631.212	958.125
1634.213	958.79167
1637.212	958.79167
1640.209	941.125
1643.203	905.79167
1646.196	884.125
1649.186	867.45833
1652.174	857.125
1655.16	820.125
1658.144	817.125
1661.125	781.125
1664.105	758.45833
1667.082	743.79167
1670.057	697.45833
1673.03	664.79167
1676.001	628.79167
1678.97	586.79167
1681.937	561.79167
1684.901	532.45833
1687.863	534.125
1690.824	495.45833
1693.782	512.125
1696.738	468.125
1699.692	481.125
1702.643	455.79167
1705.593	454.79167
1708.54	455.45833
1711.486	461.125
1714.429	430.45833
1717.37	444.125
1720.309	436.45833
1723.246	445.79167
1726.181	420.45833
1729.113	426.45833
1732.044	427.45833
1734.972	424.125
1737.899	424.79167
1740.823	429.45833
1743.745	456.45833
1746.665	411.45833
1749.583	400.125
1752.499	399.125
1755.413	402.45833
1758.325	387.125
1761.235	393.125
1764.142	375.125
1767.048	371.125
1769.951	373.79167
1772.852	371.125
1775.752	384.45833
1778.649	385.45833
1781.544	384.79167
1784.437	367.45833
1787.328	380.125
1790.217	363.79167
1793.104	354.125
1795.989	356.79167
1798.872	343.79167
1801.753	368.79167
1804.631	354.79167
1807.508	370.125
1810.383	350.45833
1813.255	352.125
1816.126	351.45833
1818.994	340.125
1821.861	351.125
1824.725	354.79167
1827.587	347.79167
1830.448	345.79167
1833.306	336.45833
1836.162	354.79167
1839.017	338.125
1841.869	344.79167
1844.719	338.79167
1847.567	331.125
1850.414	323.79167
1853.258	322.125
1856.1	336.79167
1858.94	348.125
1861.778	334.79167
1864.614	319.125
1867.448	334.79167
1870.28	318.79167
1873.111	338.79167
1875.939	330.125
1878.765	343.125
1881.589	322.45833
1884.411	324.45833
1887.231	335.45833
1890.049	326.79167
1892.865	332.79167
1895.68	313.125
1898.492	321.45833
1901.302	311.45833
1904.11	319.79167
1906.916	311.125
1909.721	307.125
1912.523	323.125
1915.323	307.125
1918.122	304.45833
1920.918	318.79167
1923.712	305.45833
1926.505	315.45833
1929.295	289.125
1932.084	310.125
1934.87	312.79167
1937.655	301.45833
1940.438	301.45833
1943.218	301.125
1945.997	305.125
1948.774	315.79167
1951.549	306.79167
1954.322	294.79167
1957.093	293.79167
1959.862	293.125
1962.629	295.125
1965.394	303.79167
1968.157	287.79167
1970.918	301.125
1973.678	287.125
1976.435	304.125
1979.19	293.79167
1981.944	275.125
1984.696	289.125
1987.445	277.45833
1990.193	295.125
1992.939	297.79167
1995.683	291.79167
1998.425	273.79167
2001.165	302.125
2003.903	271.79167
2006.639	275.125
2009.374	289.45833
2012.106	286.79167
2014.837	260.45833
2017.566	291.125
2020.292	280.45833
2023.017	282.79167
2025.74	279.79167
2028.461	268.79167
2031.18	274.79167
2033.898	264.125
2036.613	275.79167
2039.327	279.79167
2042.038	263.79167
2044.748	271.125
2047.456	276.79167
2050.162	267.79167
2052.866	268.45833
2055.568	278.79167
2058.268	270.79167
2060.967	272.79167
2063.663	261.45833
2066.358	266.125
2069.051	258.125
2071.742	264.79167
2074.431	268.45833
2077.118	262.125
2079.804	249.79167
2082.487	257.45833
2085.169	273.45833
2087.849	288.79167
2090.527	262.79167
2093.203	265.79167
2095.877	269.125
2098.55	273.45833
2101.22	277.45833
2103.889	278.125
2106.556	272.125
2109.221	283.45833
2111.884	282.125
2114.546	306.79167
2117.205	308.79167
2119.863	346.45833
2122.519	344.45833
2125.173	364.79167
2127.825	399.45833
2130.475	394.45833
2133.124	376.79167
2135.771	368.79167
2138.416	368.45833
2141.059	338.79167
2143.7	338.125
2146.339	308.45833
2148.977	284.125
2151.613	298.125
2154.247	293.79167
2156.879	286.45833
2159.51	273.125
2162.138	270.79167
2164.765	263.79167
2167.39	255.79167
2170.013	269.125
2172.634	268.79167
2175.254	257.45833
2177.872	290.79167
2180.488	249.125
2183.102	251.45833
2185.714	252.125
2188.325	238.125
2190.934	248.79167
2193.541	250.45833
2196.146	251.45833
2198.75	232.79167
2201.351	232.125
2203.951	227.125
2206.549	240.125
2209.146	235.125
2211.74	229.125
2214.333	242.125
2216.924	218.45833
2219.514	223.125
2222.101	224.79167
2224.687	239.125
2227.271	215.125
2229.853	224.79167
2232.433	213.125
2235.012	227.79167
2237.589	224.45833
2240.164	236.45833
2242.738	224.45833
2245.309	210.79167
2247.879	244.125
2250.448	229.79167
2253.014	214.45833
2255.579	204.79167
2258.142	211.125
2260.703	212.79167
2263.262	207.79167
2265.82	201.79167
2268.376	222.45833
2270.93	210.79167
2273.483	204.125
2276.033	215.79167
2278.583	205.79167
2281.13	205.79167
2283.675	191.79167
2286.219	206.79167
2288.761	218.125
2291.302	211.125
2293.841	216.79167
2296.377	200.45833
2298.913	209.79167
2301.446	212.79167
2303.978	203.79167
2306.508	208.45833
2309.037	205.45833
2311.563	197.45833
2314.088	203.79167
2316.612	183.45833
2319.133	209.45833
2321.653	205.45833
2324.171	194.79167
2326.688	210.45833
2329.202	201.45833
2331.715	212.45833
2334.227	204.79167
2336.736	196.79167
2339.244	191.45833
2341.751	184.45833
2344.255	202.45833
2346.758	193.125
2349.259	186.79167
2351.759	199.79167
2354.257	184.45833
2356.753	189.125
2359.247	193.45833
2361.74	195.125
2364.231	196.125
2366.721	199.79167
2369.209	191.125
2371.695	194.45833
2374.179	192.79167
2376.662	179.79167
2379.143	214.125
2381.622	191.45833
2384.1	201.45833
2386.576	187.45833
2389.051	197.45833
2391.524	197.45833
2393.995	195.45833
2396.464	191.125
2398.932	187.79167
2401.398	185.79167
2403.863	178.79167
2406.325	184.45833
2408.787	192.79167
2411.246	181.125
2413.704	184.45833
2416.16	182.45833
2418.615	178.79167
2421.068	189.125
2423.519	184.125
2425.969	178.125
2428.417	195.125
2430.863	205.45833
2433.308	188.79167
2435.751	188.45833
2438.193	186.45833
2440.633	189.125
2443.071	193.79167
2445.508	180.79167
2447.943	186.79167
2450.376	179.125
2452.808	191.79167
2455.238	184.125
2457.667	206.125
2460.093	176.45833
2462.519	168.79167
2464.942	182.125
2467.365	177.125
2469.785	186.125
2472.204	184.125
2474.621	176.79167
2477.037	197.45833
2479.451	166.125
2481.863	170.45833
2484.274	173.125
2486.683	179.45833
2489.091	193.45833
2491.497	186.45833
2493.901	180.125
2496.304	181.79167
2498.705	187.125
2501.105	177.79167
2503.503	200.125
2505.899	174.125
2508.294	196.79167
2510.687	170.79167
2513.079	177.125
2515.469	174.125
2517.858	175.125
2520.245	192.45833
2522.63	177.125
2525.014	175.45833
2527.396	176.45833
2529.776	173.125
2532.156	183.79167
2534.533	172.45833
2536.909	172.125
2539.283	159.45833
2541.656	171.45833
2544.027	188.79167
2546.397	181.45833
2548.765	170.125
2551.131	182.79167
2553.496	179.79167
2555.86	180.79167
2558.221	180.45833
2560.582	171.125
2562.94	169.125
2565.298	175.79167
2567.653	191.125
2570.007	164.45833
2572.36	187.125
2574.711	170.45833
2577.06	185.45833
2579.408	178.79167
2581.754	176.79167
2584.099	174.79167
2586.442	173.125
2588.784	185.125
2591.124	174.125
2593.463	177.45833
2595.8	183.125
2598.135	164.45833
2600.469	170.125
2602.802	184.45833
2605.133	181.79167
2607.462	168.125
2609.79	166.45833
2612.116	184.45833
2614.441	173.125
2616.764	179.79167
2619.086	176.79167
2621.406	168.79167
2623.725	189.125
2626.042	172.45833
2628.358	171.79167
2630.672	182.45833
2632.985	186.125
2635.296	179.125
2637.606	175.79167
2639.914	168.79167
2642.22	173.45833
2644.525	176.125
2646.829	181.45833
2649.131	186.125
2651.432	181.79167
2653.731	170.125
2656.028	192.79167
2658.324	187.125
2660.619	177.45833
2662.912	192.125
2665.204	171.125
2667.494	181.79167
2669.782	174.125
2672.07	185.125
2674.355	190.79167
2676.639	184.125
2678.922	181.79167
2681.203	182.79167
2683.483	179.79167
2685.761	171.125
2688.038	195.125
2690.313	194.79167
2692.587	181.45833
2694.859	182.125
2697.13	178.125
2699.399	187.45833
2701.667	186.45833
2703.933	189.79167
2706.198	199.45833
2708.461	192.79167
2710.723	193.79167
2712.984	191.79167
2715.243	197.45833
2717.5	195.125
2719.757	202.45833
2722.011	192.79167
2724.264	197.45833
2726.516	207.125
2728.766	188.125
2731.015	193.79167
2733.262	198.125
2735.508	194.79167
2737.753	195.125
2739.996	184.45833
2742.237	187.45833
2744.477	198.79167
2746.716	210.45833
2748.953	204.45833
2751.189	201.125
2753.423	201.45833
2755.656	192.79167
2757.887	180.79167
2760.117	190.125
2762.346	186.125
2764.573	180.45833
2766.798	181.125
2769.022	188.45833
2771.245	179.45833
2773.467	189.79167
2775.686	183.125
2777.905	193.125
2780.122	192.125
2782.337	197.45833
2784.552	193.45833
2786.764	195.79167
2788.976	184.45833
2791.186	194.45833
2793.394	198.125
2795.601	206.79167
2797.807	203.79167
2800.011	205.125
2802.214	210.79167
2804.415	202.125
2806.615	206.125
2808.814	214.45833
2811.011	214.45833
2813.206	214.45833
2815.401	219.79167
2817.594	218.79167
2819.785	227.125
2821.975	208.125
2824.164	211.125
2826.351	220.125
2828.537	231.45833
2830.722	231.79167
2832.905	223.125
2835.086	228.79167
2837.267	257.79167
2839.445	241.79167
2841.623	249.45833
2843.799	250.79167
2845.974	265.125
2848.147	257.79167
2850.319	274.125
2852.489	286.125
2854.659	283.79167
2856.826	286.45833
2858.993	303.45833
2861.158	280.125
2863.321	287.45833
2865.483	304.45833
2867.644	295.125
2869.804	293.45833
2871.962	293.125
2874.118	295.125
2876.274	296.79167
2878.428	299.79167
2880.58	297.79167
2882.731	281.125
2884.881	286.79167
2887.03	294.79167
2889.177	289.79167
2891.322	303.125
2893.467	291.45833
2895.61	288.125
2897.751	305.79167
2899.892	295.79167
2902.03	306.125
2904.168	299.79167
2906.304	297.45833
2908.439	315.79167
2910.572	299.45833
2912.704	305.79167
2914.835	309.79167
2916.965	310.45833
2919.093	327.45833
2921.219	296.125
2923.345	315.45833
2925.469	308.79167
2927.591	303.125
2929.712	291.125
2931.832	299.79167
2933.951	298.79167
2936.068	286.125
2938.184	288.125
2940.299	276.45833
2942.412	272.125
2944.524	248.79167
2946.634	265.79167
2948.744	244.125
2950.851	274.125
2952.958	249.45833
2955.063	260.45833
2957.167	247.79167
2959.269	236.79167
2961.371	261.79167
2963.471	235.125
2965.569	252.45833
2967.666	224.125
2969.762	224.79167
2971.857	221.125
2973.95	220.79167
2976.042	225.125
2978.133	214.79167
2980.222	204.45833
2982.31	201.125
2984.396	194.45833
2986.482	191.125
2988.566	200.79167
2990.648	203.79167
2992.73	200.79167
2994.81	184.79167
2996.889	200.45833
2998.966	194.45833
3001.042	205.79167
3003.117	193.79167
3005.191	198.125
3007.263	203.79167
3009.334	194.125
3011.403	195.45833
3013.472	187.45833
3015.539	201.79167
3017.604	204.79167
3019.669	174.125
3021.732	184.79167
3023.794	186.45833
3025.854	173.125
3027.914	175.45833
3029.971	173.45833
3032.028	182.79167
3034.083	184.45833
3036.137	180.125
3038.19	168.79167
3040.242	158.125
3042.292	161.125
3044.341	168.45833
3046.388	176.125
3048.435	160.79167
3050.48	177.45833
3052.524	166.125
3054.566	150.125
3056.607	157.79167
3058.647	152.125
3060.686	142.79167
3062.723	133.79167
3064.759	137.79167
3066.794	-0.875
3068.828	1.45833
3070.86	2.79167
