-0.839	149.70833
3.438	164.04167
7.711	67.04167
11.981	41.70833
16.247	30.70833
20.509	40.04167
24.768	36.04167
29.024	43.70833
33.276	31.04167
37.524	42.04167
41.769	30.375
46.01	24.70833
50.247	42.375
54.481	51.70833
58.712	55.04167
62.939	33.375
67.162	53.70833
71.382	42.70833
75.599	36.375
79.812	42.70833
84.021	61.375
88.227	41.04167
92.429	48.70833
96.628	38.70833
100.823	52.70833
105.015	53.04167
109.204	49.70833
113.388	58.04167
117.57	46.04167
121.748	60.70833
125.922	48.04167
130.093	67.04167
134.261	64.375
138.425	52.375
142.585	85.04167
146.742	65.04167
150.896	79.04167
155.046	74.70833
159.193	114.70833
163.336	165.375
167.476	288.375
171.613	514.04167
175.746	811.04167
179.875	1192.375
184.002	1533.375
188.124	1813.70833
192.244	1908.375
196.36	1927.70833
200.472	1914.375
204.581	1865.04167
208.687	1804.04167
212.79	1806.04167
216.889	1796.70833
220.984	1841.70833
225.077	1843.70833
229.165	1849.04167
233.251	1838.04167
237.333	1859.375
241.412	1845.375
245.487	1856.375
249.559	1836.375
253.628	1826.70833
257.694	1819.375
261.756	1847.375
265.814	1802.375
269.87	1705.04167
273.922	1658.375
277.97	1659.04167
282.016	1636.04167
286.058	1632.04167
290.097	1651.375
294.132	1684.04167
298.164	1656.375
302.193	1606.375
306.219	1527.70833
310.241	1421.04167
314.26	1325.04167
318.276	1268.375
322.288	1226.04167
326.297	1181.70833
330.303	1152.375
334.305	1143.70833
338.305	1133.375
342.301	1116.375
346.294	1122.375
350.283	1107.04167
354.269	1108.04167
358.252	1090.70833
362.232	1104.04167
366.209	1099.375
370.182	1090.04167
374.152	1082.04167
378.119	1078.70833
382.083	1071.04167
386.043	1099.375
390	1102.04167
393.954	1153.375
397.905	1173.04167
401.852	1178.375
405.797	1124.70833
409.738	1272.04167
413.676	1406.04167
417.61	1500.375
421.542	1232.375
425.47	1072.375
429.396	1067.70833
433.318	1042.375
437.236	1066.375
441.152	1076.70833
445.065	1029.375
448.974	1053.04167
452.88	1042.70833
456.783	1029.375
460.683	1028.375
464.58	1030.04167
468.473	1037.04167
472.364	1037.70833
476.251	1037.375
480.135	1051.04167
484.016	1050.70833
487.894	1064.375
491.769	1058.375
495.641	1068.70833
499.509	1070.375
503.375	1058.70833
507.237	1062.70833
511.096	1053.70833
514.952	1058.375
518.805	1049.70833
522.655	1047.70833
526.502	1052.04167
530.346	1055.04167
534.187	1064.04167
538.024	1059.375
541.859	1065.70833
545.69	1073.70833
549.519	1060.375
553.344	1055.04167
557.166	1041.04167
560.985	1035.375
564.802	1034.04167
568.615	1015.04167
572.425	1009.375
576.232	1013.70833
580.036	992.70833
583.836	1013.70833
587.634	1026.04167
591.429	1012.70833
595.221	1043.375
599.01	1021.70833
602.796	1042.04167
606.578	1034.70833
610.358	1038.04167
614.135	1041.04167
617.909	1028.04167
621.679	1033.04167
625.447	1027.375
629.212	1019.70833
632.973	1030.70833
636.732	1044.04167
640.488	1057.375
644.241	1020.375
647.991	1001.04167
651.737	1031.04167
655.481	986.70833
659.222	997.375
662.96	1003.375
666.695	1007.04167
670.427	1010.04167
674.156	1017.70833
677.882	1014.70833
681.605	1006.04167
685.325	990.70833
689.043	1021.70833
692.757	996.375
696.468	1003.375
700.177	988.70833
703.882	976.375
707.585	980.70833
711.284	981.375
714.981	971.70833
718.675	976.375
722.366	992.375
726.054	964.70833
729.739	963.375
733.421	960.70833
737.1	973.375
740.777	964.70833
744.45	969.375
748.121	975.04167
751.789	1007.04167
755.453	997.70833
759.115	1007.70833
762.774	1002.70833
766.431	1006.70833
770.084	1015.04167
773.734	997.04167
777.382	1032.04167
781.027	1020.70833
784.669	1019.375
788.308	1019.70833
791.944	1035.70833
795.577	1042.04167
799.208	1042.04167
802.835	1037.375
806.46	1070.70833
810.082	1067.04167
813.701	1047.375
817.317	1082.04167
820.931	1065.70833
824.542	1057.04167
828.149	1044.04167
831.754	1030.04167
835.357	1039.04167
838.956	1050.375
842.553	1098.04167
846.146	1100.04167
849.737	1038.70833
853.326	1022.375
856.911	998.375
860.493	1030.70833
864.073	1105.375
867.65	1235.04167
871.225	1222.375
874.796	1068.70833
878.365	1029.04167
881.931	1046.04167
885.494	1056.70833
889.054	1034.04167
892.612	1051.70833
896.166	1027.70833
899.719	1022.70833
903.268	1009.70833
906.814	1010.70833
910.358	985.04167
913.899	982.04167
917.438	978.70833
920.973	972.375
924.506	977.375
928.036	994.70833
931.564	1009.375
935.088	1037.375
938.61	1010.04167
942.129	1013.375
945.646	1043.04167
949.16	1043.04167
952.671	1068.375
956.179	1068.04167
959.685	1053.70833
963.188	1069.70833
966.688	1055.375
970.185	1020.70833
973.68	997.70833
977.173	990.375
980.662	970.70833
984.149	985.70833
987.633	954.70833
991.114	995.375
994.593	1012.04167
998.069	1019.04167
1001.542	1062.70833
1005.013	1057.04167
1008.481	967.375
1011.947	956.04167
1015.409	941.70833
1018.869	951.04167
1022.327	952.04167
1025.782	938.04167
1029.234	924.375
1032.683	919.04167
1036.13	895.04167
1039.574	874.375
1043.016	848.70833
1046.455	844.70833
1049.891	844.04167
1053.325	838.375
1056.756	841.04167
1060.184	849.70833
1063.61	822.375
1067.033	837.70833
1070.454	844.70833
1073.872	866.70833
1077.287	838.375
1080.7	837.375
1084.11	848.375
1087.517	839.04167
1090.922	832.375
1094.325	812.70833
1097.724	810.04167
1101.122	807.375
1104.516	825.70833
1107.908	801.375
1111.298	800.04167
1114.684	823.04167
1118.069	829.04167
1121.45	842.375
1124.83	831.70833
1128.206	832.04167
1131.58	842.70833
1134.951	862.70833
1138.32	877.04167
1141.687	903.375
1145.05	924.375
1148.412	925.70833
1151.77	917.04167
1155.126	919.375
1158.48	900.04167
1161.831	908.04167
1165.18	908.375
1168.525	923.70833
1171.869	936.04167
1175.21	927.70833
1178.548	950.04167
1181.884	949.375
1185.217	956.04167
1188.548	985.375
1191.877	990.70833
1195.202	1036.375
1198.526	1058.70833
1201.846	1059.70833
1205.165	1072.04167
1208.48	1069.04167
1211.794	1049.04167
1215.104	1064.375
1218.413	1050.375
1221.719	1044.375
1225.022	1047.70833
1228.323	1016.70833
1231.621	1023.70833
1234.917	1015.375
1238.21	1031.04167
1241.501	997.04167
1244.79	982.375
1248.076	995.04167
1251.359	1002.04167
1254.64	1046.04167
1257.919	1022.70833
1261.195	1027.70833
1264.468	1061.04167
1267.74	1081.375
1271.008	1070.04167
1274.275	1041.70833
1277.538	1042.70833
1280.8	1037.375
1284.059	1043.04167
1287.315	1050.70833
1290.569	1052.375
1293.821	1066.70833
1297.07	1075.04167
1300.317	1090.04167
1303.562	1082.70833
1306.803	1064.04167
1310.043	1046.375
1313.28	1057.70833
1316.515	1029.70833
1319.747	1054.70833
1322.977	1051.04167
1326.204	1020.375
1329.429	1011.70833
1332.652	1008.04167
1335.872	1015.04167
1339.09	1006.70833
1342.306	994.70833
1345.519	986.04167
1348.729	977.375
1351.938	994.04167
1355.144	956.375
1358.347	960.04167
1361.548	957.04167
1364.747	955.04167
1367.944	922.70833
1371.138	951.70833
1374.329	940.375
1377.518	944.375
1380.705	941.70833
1383.89	954.04167
1387.072	925.375
1390.252	900.375
1393.429	867.70833
1396.605	852.375
1399.777	817.04167
1402.948	822.70833
1406.116	810.04167
1409.282	808.70833
1412.445	811.70833
1415.606	816.375
1418.765	826.04167
1421.921	844.375
1425.075	843.70833
1428.227	869.04167
1431.376	905.375
1434.524	933.04167
1437.668	949.70833
1440.811	961.375
1443.951	958.375
1447.089	955.70833
1450.224	966.04167
1453.357	954.70833
1456.488	951.375
1459.617	931.375
1462.743	936.70833
1465.867	892.375
1468.989	901.375
1472.108	883.04167
1475.225	860.70833
1478.34	856.04167
1481.453	847.375
1484.563	834.375
1487.671	859.375
1490.776	871.04167
1493.88	869.04167
1496.981	891.70833
1500.08	902.70833
1503.176	890.70833
1506.271	909.70833
1509.363	911.70833
1512.452	915.04167
1515.54	924.04167
1518.625	944.70833
1521.708	975.375
1524.789	996.04167
1527.867	1017.04167
1530.944	1053.375
1534.018	1082.70833
1537.089	1158.04167
1540.159	1157.04167
1543.226	1174.70833
1546.291	1122.375
1549.354	1111.70833
1552.415	1107.375
1555.473	1091.70833
1558.529	1066.04167
1561.583	1067.04167
1564.634	1048.04167
1567.684	1040.04167
1570.731	1050.70833
1573.776	1051.04167
1576.819	1055.375
1579.859	1059.375
1582.898	1073.375
1585.934	1101.70833
1588.968	1104.04167
1591.999	1085.70833
1595.029	1076.70833
1598.056	1105.375
1601.081	1107.70833
1604.104	1109.70833
1607.125	1087.375
1610.144	1071.375
1613.16	1042.04167
1616.174	1020.04167
1619.186	1020.375
1622.196	980.375
1625.203	947.70833
1628.209	955.375
1631.212	958.70833
1634.213	954.375
1637.212	954.04167
1640.209	952.04167
1643.203	923.70833
1646.196	889.70833
1649.186	858.375
1652.174	837.04167
1655.16	811.04167
1658.144	807.04167
1661.125	755.70833
1664.105	738.70833
1667.082	716.70833
1670.057	673.375
1673.03	639.04167
1676.001	617.04167
1678.97	573.375
1681.937	550.70833
1684.901	515.70833
1687.863	509.04167
1690.824	477.70833
1693.782	505.70833
1696.738	462.375
1699.692	465.375
1702.643	440.375
1705.593	443.70833
1708.54	431.375
1711.486	448.375
1714.429	422.70833
1717.37	433.70833
1720.309	413.375
1723.246	433.375
1726.181	408.70833
1729.113	404.375
1732.044	402.70833
1734.972	404.04167
1737.899	422.70833
1740.823	420.70833
1743.745	433.70833
1746.665	398.375
1749.583	395.04167
1752.499	386.70833
1755.413	385.70833
1758.325	374.04167
1761.235	377.375
1764.142	368.375
1767.048	362.375
1769.951	367.70833
1772.852	383.04167
1775.752	460.04167
1778.649	529.375
1781.544	440.375
1784.437	368.70833
1787.328	362.375
1790.217	362.70833
1793.104	337.70833
1795.989	343.04167
1798.872	332.375
1801.753	348.04167
1804.631	346.04167
1807.508	341.375
1810.383	339.04167
1813.255	348.375
1816.126	340.04167
1818.994	332.04167
1821.861	329.375
1824.725	343.375
1827.587	337.04167
1830.448	336.04167
1833.306	331.375
1836.162	335.70833
1839.017	327.375
1841.869	331.04167
1844.719	326.375
1847.567	311.04167
1850.414	305.70833
1853.258	311.04167
1856.1	327.70833
1858.94	330.70833
1861.778	316.04167
1864.614	300.04167
1867.448	322.375
1870.28	301.375
1873.111	328.70833
1875.939	314.70833
1878.765	325.04167
1881.589	315.70833
1884.411	317.70833
1887.231	325.375
1890.049	312.70833
1892.865	321.375
1895.68	312.375
1898.492	347.375
1901.302	320.375
1904.11	305.70833
1906.916	306.04167
1909.721	300.04167
1912.523	306.375
1915.323	291.04167
1918.122	293.04167
1920.918	312.70833
1923.712	295.375
1926.505	305.04167
1929.295	278.70833
1932.084	302.04167
1934.87	294.375
1937.655	283.375
1940.438	278.375
1943.218	291.375
1945.997	291.04167
1948.774	298.04167
1951.549	298.70833
1954.322	286.04167
1957.093	292.375
1959.862	284.04167
1962.629	289.04167
1965.394	282.375
1968.157	272.70833
1970.918	296.04167
1973.678	267.70833
1976.435	291.04167
1979.19	277.375
1981.944	267.70833
1984.696	278.375
1987.445	269.70833
1990.193	270.70833
1992.939	286.04167
1995.683	274.70833
1998.425	256.70833
2001.165	296.04167
2003.903	251.375
2006.639	266.375
2009.374	269.04167
2012.106	274.04167
2014.837	247.375
2017.566	270.04167
2020.292	264.70833
2023.017	264.04167
2025.74	261.04167
2028.461	259.375
2031.18	260.04167
2033.898	255.375
2036.613	258.70833
2039.327	259.375
2042.038	257.04167
2044.748	261.70833
2047.456	276.04167
2050.162	251.04167
2052.866	253.04167
2055.568	266.375
2058.268	248.375
2060.967	262.04167
2063.663	240.04167
2066.358	241.04167
2069.051	239.04167
2071.742	248.70833
2074.431	256.04167
2077.118	246.375
2079.804	243.04167
2082.487	246.70833
2085.169	254.70833
2087.849	269.04167
2090.527	242.70833
2093.203	246.70833
2095.877	246.04167
2098.55	254.04167
2101.22	256.375
2103.889	264.04167
2106.556	252.04167
2109.221	265.70833
2111.884	265.70833
2114.546	274.70833
2117.205	285.375
2119.863	318.70833
2122.519	311.70833
2125.173	336.375
2127.825	358.375
2130.475	366.375
2133.124	347.04167
2135.771	325.375
2138.416	334.04167
2141.059	306.375
2143.7	305.375
2146.339	279.70833
2148.977	259.375
2151.613	269.04167
2154.247	263.04167
2156.879	257.375
2159.51	241.375
2162.138	244.70833
2164.765	248.04167
2167.39	226.70833
2170.013	251.04167
2172.634	250.70833
2175.254	230.375
2177.872	274.70833
2180.488	220.70833
2183.102	229.70833
2185.714	232.375
2188.325	222.375
2190.934	225.04167
2193.541	228.04167
2196.146	225.04167
2198.75	215.375
2201.351	213.70833
2203.951	202.70833
2206.549	222.04167
2209.146	210.04167
2211.74	206.04167
2214.333	218.375
2216.924	206.70833
2219.514	205.04167
2222.101	205.375
2224.687	221.04167
2227.271	202.04167
2229.853	201.375
2232.433	190.04167
2235.012	209.70833
2237.589	206.04167
2240.164	218.375
2242.738	203.70833
2245.309	198.04167
2247.879	209.04167
2250.448	207.70833
2253.014	193.04167
2255.579	182.70833
2258.142	196.70833
2260.703	184.70833
2263.262	188.70833
2265.82	183.375
2268.376	206.70833
2270.93	187.70833
2273.483	179.375
2276.033	193.375
2278.583	178.70833
2281.13	180.70833
2283.675	178.375
2286.219	181.375
2288.761	189.70833
2291.302	193.375
2293.841	196.70833
2296.377	177.70833
2298.913	185.70833
2301.446	193.70833
2303.978	185.70833
2306.508	184.04167
2309.037	183.70833
2311.563	179.70833
2314.088	185.375
2316.612	163.375
2319.133	183.04167
2321.653	186.04167
2324.171	174.04167
2326.688	184.04167
2329.202	181.375
2331.715	170.70833
2334.227	174.04167
2336.736	177.04167
2339.244	168.375
2341.751	160.375
2344.255	180.04167
2346.758	174.70833
2349.259	162.375
2351.759	176.70833
2354.257	168.375
2356.753	160.70833
2359.247	165.04167
2361.74	169.70833
2364.231	170.04167
2366.721	177.70833
2369.209	162.70833
2371.695	161.70833
2374.179	159.375
2376.662	159.375
2379.143	181.04167
2381.622	164.70833
2384.1	191.375
2386.576	172.375
2389.051	189.375
2391.524	177.70833
2393.995	175.04167
2396.464	166.04167
2398.932	160.04167
2401.398	164.04167
2403.863	150.04167
2406.325	158.70833
2408.787	165.70833
2411.246	162.04167
2413.704	161.70833
2416.16	155.70833
2418.615	151.70833
2421.068	164.375
2423.519	153.375
2425.969	154.70833
2428.417	173.70833
2430.863	178.04167
2433.308	166.375
2435.751	161.04167
2438.193	155.04167
2440.633	159.04167
2443.071	172.04167
2445.508	150.70833
2447.943	155.375
2450.376	151.04167
2452.808	158.70833
2455.238	145.04167
2457.667	176.70833
2460.093	146.70833
2462.519	140.375
2464.942	145.375
2467.365	149.70833
2469.785	161.70833
2472.204	151.04167
2474.621	148.375
2477.037	163.70833
2479.451	138.04167
2481.863	141.70833
2484.274	142.375
2486.683	153.70833
2489.091	162.70833
2491.497	149.04167
2493.901	148.04167
2496.304	146.04167
2498.705	149.70833
2501.105	154.70833
2503.503	165.70833
2505.899	147.375
2508.294	158.70833
2510.687	139.04167
2513.079	147.70833
2515.469	135.04167
2517.858	146.375
2520.245	156.04167
2522.63	151.70833
2525.014	140.70833
2527.396	136.375
2529.776	143.375
2532.156	147.375
2534.533	127.375
2536.909	132.375
2539.283	123.70833
2541.656	137.70833
2544.027	152.375
2546.397	145.04167
2548.765	136.70833
2551.131	144.04167
2553.496	145.04167
2555.86	141.375
2558.221	144.375
2560.582	134.70833
2562.94	126.70833
2565.298	138.375
2567.653	146.04167
2570.007	128.70833
2572.36	138.04167
2574.711	128.70833
2577.06	150.04167
2579.408	140.70833
2581.754	132.70833
2584.099	132.70833
2586.442	130.70833
2588.784	142.04167
2591.124	134.04167
2593.463	132.04167
2595.8	136.375
2598.135	122.04167
2600.469	124.375
2602.802	143.70833
2605.133	142.375
2607.462	127.70833
2609.79	121.375
2612.116	138.375
2614.441	132.04167
2616.764	132.70833
2619.086	135.04167
2621.406	130.04167
2623.725	133.70833
2626.042	130.70833
2628.358	126.04167
2630.672	131.375
2632.985	139.70833
2635.296	129.70833
2637.606	128.375
2639.914	123.04167
2642.22	125.70833
2644.525	125.04167
2646.829	132.70833
2649.131	140.375
2651.432	140.70833
2653.731	123.70833
2656.028	138.375
2658.324	140.70833
2660.619	119.04167
2662.912	141.04167
2665.204	118.04167
2667.494	134.375
2669.782	120.375
2672.07	140.04167
2674.355	135.70833
2676.639	130.70833
2678.922	129.04167
2681.203	137.04167
2683.483	122.70833
2685.761	119.375
2688.038	136.70833
2690.313	143.04167
2692.587	130.70833
2694.859	126.375
2697.13	129.70833
2699.399	136.375
2701.667	139.70833
2703.933	139.375
2706.198	143.70833
2708.461	140.04167
2710.723	138.375
2712.984	135.70833
2715.243	144.375
2717.5	134.04167
2719.757	139.04167
2722.011	134.375
2724.264	142.04167
2726.516	152.70833
2728.766	127.04167
2731.015	134.70833
2733.262	129.70833
2735.508	132.70833
2737.753	138.375
2739.996	124.375
2742.237	123.375
2744.477	136.04167
2746.716	140.70833
2748.953	140.04167
2751.189	140.70833
2753.423	142.70833
2755.656	126.70833
2757.887	126.70833
2760.117	125.70833
2762.346	123.70833
2764.573	111.04167
2766.798	118.04167
2769.022	126.70833
2771.245	123.04167
2773.467	126.375
2775.686	124.04167
2777.905	135.70833
2780.122	128.70833
2782.337	131.04167
2784.552	122.70833
2786.764	127.375
2788.976	121.04167
2791.186	128.70833
2793.394	129.70833
2795.601	136.04167
2797.807	144.04167
2800.011	135.70833
2802.214	141.04167
2804.415	137.70833
2806.615	139.04167
2808.814	136.04167
2811.011	142.04167
2813.206	141.70833
2815.401	146.375
2817.594	149.375
2819.785	149.04167
2821.975	144.04167
2824.164	151.70833
2826.351	145.04167
2828.537	160.375
2830.722	156.70833
2832.905	156.375
2835.086	155.375
2837.267	178.70833
2839.445	171.375
2841.623	174.70833
2843.799	178.70833
2845.974	188.375
2848.147	189.70833
2850.319	200.375
2852.489	208.375
2854.659	213.375
2856.826	208.04167
2858.993	235.70833
2861.158	217.70833
2863.321	221.70833
2865.483	245.04167
2867.644	232.04167
2869.804	234.375
2871.962	245.04167
2874.118	261.375
2876.274	333.04167
2878.428	313.70833
2880.58	284.04167
2882.731	255.04167
2884.881	248.70833
2887.03	247.70833
2889.177	235.04167
2891.322	238.70833
2893.467	232.375
2895.61	225.04167
2897.751	238.70833
2899.892	222.04167
2902.03	229.375
2904.168	223.04167
2906.304	230.04167
2908.439	242.375
2910.572	218.70833
2912.704	233.375
2914.835	229.70833
2916.965	229.375
2919.093	242.375
2921.219	221.70833
2923.345	246.04167
2925.469	232.70833
2927.591	223.04167
2929.712	209.375
2931.832	227.70833
2933.951	215.70833
2936.068	211.70833
2938.184	209.04167
2940.299	204.375
2942.412	195.04167
2944.524	180.04167
2946.634	190.70833
2948.744	161.70833
2950.851	199.70833
2952.958	165.375
2955.063	174.04167
2957.167	169.04167
2959.269	155.04167
2961.371	184.04167
2963.471	148.375
2965.569	170.04167
2967.666	142.375
2969.762	147.04167
2971.857	137.70833
2973.95	133.70833
2976.042	143.70833
2978.133	132.04167
2980.222	132.70833
2982.31	126.04167
2984.396	108.375
2986.482	112.70833
2988.566	123.375
2990.648	119.70833
2992.73	120.375
2994.81	107.375
2996.889	117.04167
2998.966	112.04167
3001.042	125.70833
3003.117	110.04167
3005.191	116.375
3007.263	116.70833
3009.334	114.70833
3011.403	115.375
3013.472	111.70833
3015.539	121.375
3017.604	127.375
3019.669	102.70833
3021.732	101.04167
3023.794	111.70833
3025.854	101.70833
3027.914	96.375
3029.971	100.70833
3032.028	100.70833
3034.083	106.04167
3036.137	101.70833
3038.19	92.04167
3040.242	85.70833
3042.292	85.375
3044.341	91.375
3046.388	109.70833
3048.435	88.04167
3050.48	105.375
3052.524	93.70833
3054.566	84.04167
3056.607	93.04167
3058.647	89.70833
3060.686	77.375
3062.723	72.70833
3064.759	77.70833
3066.794	-0.95833
3068.828	-1.29167
3070.86	3.70833
