-0.839	142.83333
3.438	164.5
7.711	63.5
11.981	42.83333
16.247	32.5
20.509	38.83333
24.768	38.16667
29.024	42.16667
33.276	29.16667
37.524	41.16667
41.769	31.83333
46.01	27.16667
50.247	45.16667
54.481	52.16667
58.712	53.83333
62.939	37.16667
67.162	51.5
71.382	43.16667
75.599	35.5
79.812	42.5
84.021	62.16667
88.227	44.5
92.429	50.16667
96.628	39.83333
100.823	51.83333
105.015	50.5
109.204	44.83333
113.388	58.5
117.57	43.16667
121.748	60.16667
125.922	52.5
130.093	65.83333
134.261	68.16667
138.425	52.16667
142.585	84.16667
146.742	63.83333
150.896	80.5
155.046	78.83333
159.193	114.83333
163.336	165.83333
167.476	292.83333
171.613	516.5
175.746	845.16667
179.875	1212.5
184.002	1562.83333
188.124	1854.5
192.244	1966.5
196.36	1948.16667
200.472	1927.16667
204.581	1911.16667
208.687	1845.5
212.79	1838.16667
216.889	1862.5
220.984	1872.83333
225.077	1880.83333
229.165	1888.83333
233.251	1908.83333
237.333	1891.5
241.412	1884.5
245.487	1919.16667
249.559	1890.5
253.628	1875.5
257.694	1868.5
261.756	1892.83333
265.814	1841.5
269.87	1738.5
273.922	1706.5
277.97	1675.83333
282.016	1692.16667
286.058	1664.5
290.097	1708.83333
294.132	1723.16667
298.164	1724.5
302.193	1653.5
306.219	1558.83333
310.241	1459.83333
314.26	1377.83333
318.276	1305.5
322.288	1273.5
326.297	1218.5
330.303	1202.83333
334.305	1178.16667
338.305	1160.83333
342.301	1158.83333
346.294	1160.5
350.283	1139.16667
354.269	1143.83333
358.252	1142.5
362.232	1139.83333
366.209	1123.5
370.182	1119.16667
374.152	1110.83333
378.119	1124.83333
382.083	1115.83333
386.043	1134.16667
390	1130.16667
393.954	1208.16667
397.905	1229.83333
401.852	1233.83333
405.797	1173.83333
409.738	1307.83333
413.676	1453.16667
417.61	1591.83333
421.542	1286.16667
425.47	1125.5
429.396	1105.83333
433.318	1095.16667
437.236	1088.83333
441.152	1135.83333
445.065	1081.16667
448.974	1099.16667
452.88	1093.5
456.783	1085.16667
460.683	1071.5
464.58	1084.83333
468.473	1087.16667
472.364	1086.5
476.251	1082.5
480.135	1083.16667
484.016	1102.83333
487.894	1120.16667
491.769	1115.16667
495.641	1109.5
499.509	1111.5
503.375	1121.5
507.237	1093.16667
511.096	1108.5
514.952	1094.5
518.805	1100.16667
522.655	1102.16667
526.502	1099.83333
530.346	1110.83333
534.187	1114.83333
538.024	1109.83333
541.859	1091.16667
545.69	1128.83333
549.519	1105.83333
553.344	1098.83333
557.166	1085.16667
560.985	1062.5
564.802	1087.16667
568.615	1071.16667
572.425	1042.16667
576.232	1054.5
580.036	1061.16667
583.836	1064.83333
587.634	1066.16667
591.429	1049.5
595.221	1093.83333
599.01	1078.83333
602.796	1057.5
606.578	1074.16667
610.358	1083.16667
614.135	1072.5
617.909	1074.16667
621.679	1074.16667
625.447	1063.16667
629.212	1069.16667
632.973	1080.83333
636.732	1101.5
640.488	1105.16667
644.241	1059.5
647.991	1048.5
651.737	1066.83333
655.481	1044.16667
659.222	1046.5
662.96	1041.83333
666.695	1056.16667
670.427	1056.16667
674.156	1063.16667
677.882	1065.83333
681.605	1057.5
685.325	1040.83333
689.043	1060.16667
692.757	1029.83333
696.468	1048.16667
700.177	1039.16667
703.882	1019.5
707.585	1011.16667
711.284	1027.83333
714.981	1006.83333
718.675	1028.16667
722.366	1025.16667
726.054	1012.16667
729.739	1016.16667
733.421	1021.5
737.1	1024.83333
740.777	1019.16667
744.45	1030.5
748.121	1009.83333
751.789	1053.16667
755.453	1041.5
759.115	1043.16667
762.774	1039.16667
766.431	1039.16667
770.084	1028.5
773.734	1037.16667
777.382	1067.16667
781.027	1071.83333
784.669	1052.83333
788.308	1052.16667
791.944	1081.83333
795.577	1086.16667
799.208	1074.16667
802.835	1084.83333
806.46	1086.16667
810.082	1100.5
813.701	1083.83333
817.317	1096.83333
820.931	1101.16667
824.542	1097.83333
828.149	1090.83333
831.754	1076.83333
835.357	1078.16667
838.956	1082.16667
842.553	1134.16667
846.146	1149.5
849.737	1071.5
853.326	1056.5
856.911	1032.16667
860.493	1065.16667
864.073	1139.16667
867.65	1261.83333
871.225	1234.83333
874.796	1093.83333
878.365	1059.83333
881.931	1083.16667
885.494	1088.16667
889.054	1071.5
892.612	1088.16667
896.166	1055.16667
899.719	1040.5
903.268	1031.83333
906.814	1032.83333
910.358	1029.5
913.899	1014.83333
917.438	1016.83333
920.973	996.83333
924.506	1001.16667
928.036	1028.83333
931.564	1046.83333
935.088	1067.16667
938.61	1049.83333
942.129	1050.83333
945.646	1076.5
949.16	1077.5
952.671	1090.83333
956.179	1114.83333
959.685	1094.16667
963.188	1085.5
966.688	1089.16667
970.185	1048.83333
973.68	1034.83333
977.173	1030.83333
980.662	1006.83333
984.149	1010.5
987.633	978.16667
991.114	1017.5
994.593	1023.16667
998.069	1060.83333
1001.542	1103.83333
1005.013	1105.5
1008.481	1006.5
1011.947	991.16667
1015.409	969.5
1018.869	972.16667
1022.327	989.83333
1025.782	962.16667
1029.234	966.16667
1032.683	953.5
1036.13	925.83333
1039.574	908.16667
1043.016	888.83333
1046.455	872.5
1049.891	853.5
1053.325	865.5
1056.756	854.5
1060.184	859.16667
1063.61	854.5
1067.033	880.16667
1070.454	875.5
1073.872	891.16667
1077.287	866.16667
1080.7	867.5
1084.11	865.5
1087.517	869.16667
1090.922	853.83333
1094.325	832.16667
1097.724	834.83333
1101.122	835.5
1104.516	840.83333
1107.908	831.16667
1111.298	836.5
1114.684	841.83333
1118.069	842.5
1121.45	872.16667
1124.83	849.83333
1128.206	856.16667
1131.58	870.83333
1134.951	897.5
1138.32	904.83333
1141.687	934.5
1145.05	945.5
1148.412	937.5
1151.77	953.5
1155.126	939.16667
1158.48	928.5
1161.831	937.5
1165.18	940.16667
1168.525	957.16667
1171.869	952.83333
1175.21	956.83333
1178.548	971.16667
1181.884	977.16667
1185.217	980.83333
1188.548	1011.5
1191.877	1017.83333
1195.202	1062.5
1198.526	1082.16667
1201.846	1072.16667
1205.165	1086.83333
1208.48	1081.83333
1211.794	1071.5
1215.104	1087.16667
1218.413	1073.5
1221.719	1081.16667
1225.022	1054.5
1228.323	1045.5
1231.621	1038.83333
1234.917	1017.5
1238.21	1056.16667
1241.501	1026.5
1244.79	1012.16667
1248.076	1008.16667
1251.359	1025.5
1254.64	1075.83333
1257.919	1046.16667
1261.195	1056.5
1264.468	1078.5
1267.74	1106.16667
1271.008	1098.16667
1274.275	1078.5
1277.538	1078.16667
1280.8	1067.83333
1284.059	1056.5
1287.315	1079.16667
1290.569	1063.5
1293.821	1092.83333
1297.07	1105.16667
1300.317	1104.16667
1303.562	1103.83333
1306.803	1099.16667
1310.043	1095.83333
1313.28	1086.16667
1316.515	1058.5
1319.747	1081.5
1322.977	1058.16667
1326.204	1052.16667
1329.429	1034.5
1332.652	1054.5
1335.872	1047.5
1339.09	1033.5
1342.306	1029.83333
1345.519	1016.83333
1348.729	1012.16667
1351.938	1011.83333
1355.144	983.83333
1358.347	985.5
1361.548	982.16667
1364.747	983.5
1367.944	973.83333
1371.138	967.83333
1374.329	967.83333
1377.518	970.5
1380.705	957.16667
1383.89	966.16667
1387.072	942.16667
1390.252	917.16667
1393.429	905.16667
1396.605	870.5
1399.777	837.16667
1402.948	845.83333
1406.116	824.83333
1409.282	835.83333
1412.445	831.16667
1415.606	847.5
1418.765	850.5
1421.921	860.83333
1425.075	862.5
1428.227	885.83333
1431.376	928.83333
1434.524	951.5
1437.668	977.83333
1440.811	970.5
1443.951	979.5
1447.089	983.5
1450.224	970.83333
1453.357	972.5
1456.488	971.5
1459.617	979.16667
1462.743	952.16667
1465.867	913.16667
1468.989	911.83333
1472.108	903.16667
1475.225	888.16667
1478.34	869.16667
1481.453	866.16667
1484.563	865.16667
1487.671	875.5
1490.776	889.16667
1493.88	892.83333
1496.981	924.83333
1500.08	922.83333
1503.176	913.5
1506.271	921.83333
1509.363	944.16667
1512.452	941.83333
1515.54	953.83333
1518.625	959.83333
1521.708	997.16667
1524.789	1012.16667
1527.867	1030.16667
1530.944	1096.16667
1534.018	1124.5
1537.089	1170.16667
1540.159	1182.5
1543.226	1189.5
1546.291	1169.5
1549.354	1139.83333
1552.415	1119.83333
1555.473	1111.16667
1558.529	1073.16667
1561.583	1069.5
1564.634	1053.5
1567.684	1067.16667
1570.731	1073.83333
1573.776	1072.16667
1576.819	1084.16667
1579.859	1095.83333
1582.898	1106.83333
1585.934	1118.16667
1588.968	1118.83333
1591.999	1095.16667
1595.029	1121.16667
1598.056	1112.16667
1601.081	1129.83333
1604.104	1131.83333
1607.125	1130.5
1610.144	1089.83333
1613.16	1057.5
1616.174	1038.83333
1619.186	1018.5
1622.196	1013.5
1625.203	970.5
1628.209	979.16667
1631.212	987.5
1634.213	978.83333
1637.212	987.83333
1640.209	975.83333
1643.203	938.5
1646.196	909.83333
1649.186	864.83333
1652.174	871.5
1655.16	839.5
1658.144	822.5
1661.125	790.83333
1664.105	751.16667
1667.082	745.5
1670.057	685.83333
1673.03	651.16667
1676.001	625.16667
1678.97	598.16667
1681.937	568.16667
1684.901	530.83333
1687.863	525.5
1690.824	504.16667
1693.782	507.5
1696.738	469.16667
1699.692	471.83333
1702.643	452.83333
1705.593	452.83333
1708.54	441.83333
1711.486	460.83333
1714.429	437.83333
1717.37	450.5
1720.309	427.16667
1723.246	441.83333
1726.181	421.5
1729.113	423.5
1732.044	424.5
1734.972	414.83333
1737.899	429.83333
1740.823	424.16667
1743.745	447.16667
1746.665	404.83333
1749.583	394.83333
1752.499	396.16667
1755.413	391.5
1758.325	380.16667
1761.235	394.5
1764.142	377.16667
1767.048	378.83333
1769.951	383.5
1772.852	394.16667
1775.752	473.16667
1778.649	548.16667
1781.544	451.16667
1784.437	367.83333
1787.328	379.16667
1790.217	371.16667
1793.104	352.83333
1795.989	355.83333
1798.872	346.16667
1801.753	364.83333
1804.631	355.83333
1807.508	360.5
1810.383	354.83333
1813.255	353.5
1816.126	344.5
1818.994	345.83333
1821.861	346.83333
1824.725	353.16667
1827.587	343.5
1830.448	339.83333
1833.306	338.16667
1836.162	344.16667
1839.017	333.16667
1841.869	340.5
1844.719	335.5
1847.567	320.16667
1850.414	315.16667
1853.258	314.83333
1856.1	336.16667
1858.94	330.5
1861.778	330.5
1864.614	313.83333
1867.448	329.16667
1870.28	317.5
1873.111	336.5
1875.939	325.16667
1878.765	342.83333
1881.589	321.16667
1884.411	318.16667
1887.231	329.5
1890.049	328.5
1892.865	334.16667
1895.68	322.16667
1898.492	352.16667
1901.302	327.5
1904.11	312.83333
1906.916	315.83333
1909.721	308.5
1912.523	316.16667
1915.323	304.16667
1918.122	304.16667
1920.918	314.16667
1923.712	304.16667
1926.505	307.16667
1929.295	294.5
1932.084	308.83333
1934.87	308.5
1937.655	301.83333
1940.438	291.5
1943.218	296.83333
1945.997	297.16667
1948.774	311.5
1951.549	313.5
1954.322	299.83333
1957.093	298.5
1959.862	292.5
1962.629	292.16667
1965.394	286.16667
1968.157	282.83333
1970.918	302.16667
1973.678	284.16667
1976.435	294.5
1979.19	292.16667
1981.944	267.5
1984.696	280.5
1987.445	279.5
1990.193	281.16667
1992.939	289.83333
1995.683	279.83333
1998.425	265.83333
2001.165	293.83333
2003.903	259.83333
2006.639	271.5
2009.374	280.83333
2012.106	275.16667
2014.837	259.16667
2017.566	283.5
2020.292	273.83333
2023.017	271.5
2025.74	267.16667
2028.461	262.83333
2031.18	270.83333
2033.898	257.16667
2036.613	264.16667
2039.327	269.83333
2042.038	256.16667
2044.748	264.5
2047.456	270.83333
2050.162	254.83333
2052.866	258.83333
2055.568	272.16667
2058.268	260.16667
2060.967	272.16667
2063.663	244.83333
2066.358	251.83333
2069.051	249.16667
2071.742	255.83333
2074.431	260.16667
2077.118	253.5
2079.804	245.16667
2082.487	249.16667
2085.169	265.83333
2087.849	269.5
2090.527	250.83333
2093.203	252.5
2095.877	258.83333
2098.55	252.5
2101.22	263.83333
2103.889	268.83333
2106.556	259.5
2109.221	268.16667
2111.884	259.5
2114.546	287.5
2117.205	295.16667
2119.863	318.16667
2122.519	331.83333
2125.173	346.83333
2127.825	372.16667
2130.475	365.83333
2133.124	355.16667
2135.771	327.83333
2138.416	344.16667
2141.059	309.16667
2143.7	309.83333
2146.339	291.5
2148.977	262.16667
2151.613	281.83333
2154.247	275.83333
2156.879	261.5
2159.51	254.83333
2162.138	253.83333
2164.765	249.83333
2167.39	237.16667
2170.013	260.5
2172.634	246.83333
2175.254	239.5
2177.872	273.83333
2180.488	235.5
2183.102	235.16667
2185.714	228.83333
2188.325	222.16667
2190.934	233.5
2193.541	237.5
2196.146	227.16667
2198.75	211.16667
2201.351	217.5
2203.951	208.83333
2206.549	230.83333
2209.146	223.5
2211.74	208.16667
2214.333	230.83333
2216.924	210.83333
2219.514	214.83333
2222.101	208.5
2224.687	218.5
2227.271	206.5
2229.853	208.83333
2232.433	190.16667
2235.012	213.83333
2237.589	209.5
2240.164	220.83333
2242.738	206.5
2245.309	198.83333
2247.879	223.16667
2250.448	216.83333
2253.014	196.5
2255.579	183.5
2258.142	199.16667
2260.703	195.5
2263.262	194.83333
2265.82	182.83333
2268.376	204.83333
2270.93	192.83333
2273.483	185.16667
2276.033	196.16667
2278.583	189.83333
2281.13	181.16667
2283.675	179.5
2286.219	183.16667
2288.761	195.5
2291.302	197.83333
2293.841	198.5
2296.377	178.16667
2298.913	184.5
2301.446	199.83333
2303.978	189.83333
2306.508	186.5
2309.037	187.16667
2311.563	183.5
2314.088	188.83333
2316.612	168.5
2319.133	187.83333
2321.653	193.83333
2324.171	175.16667
2326.688	190.16667
2329.202	189.16667
2331.715	182.83333
2334.227	178.16667
2336.736	179.83333
2339.244	174.83333
2341.751	162.83333
2344.255	181.83333
2346.758	176.16667
2349.259	165.5
2351.759	177.5
2354.257	164.83333
2356.753	168.16667
2359.247	171.16667
2361.74	170.16667
2364.231	171.5
2366.721	176.83333
2369.209	169.16667
2371.695	172.16667
2374.179	163.83333
2376.662	157.5
2379.143	184.83333
2381.622	175.16667
2384.1	187.5
2386.576	174.16667
2389.051	190.16667
2391.524	179.5
2393.995	174.16667
2396.464	163.16667
2398.932	161.5
2401.398	165.83333
2403.863	161.16667
2406.325	163.16667
2408.787	171.5
2411.246	166.5
2413.704	163.16667
2416.16	162.16667
2418.615	166.5
2421.068	161.83333
2423.519	157.83333
2425.969	152.83333
2428.417	168.5
2430.863	185.5
2433.308	168.83333
2435.751	166.5
2438.193	161.5
2440.633	159.83333
2443.071	165.16667
2445.508	159.83333
2447.943	147.83333
2450.376	151.5
2452.808	161.16667
2455.238	152.16667
2457.667	181.5
2460.093	153.83333
2462.519	144.83333
2464.942	151.16667
2467.365	161.83333
2469.785	156.83333
2472.204	151.5
2474.621	155.16667
2477.037	172.16667
2479.451	143.83333
2481.863	138.16667
2484.274	147.5
2486.683	155.16667
2489.091	153.83333
2491.497	155.83333
2493.901	154.16667
2496.304	149.83333
2498.705	152.16667
2501.105	152.83333
2503.503	170.16667
2505.899	142.83333
2508.294	167.83333
2510.687	146.16667
2513.079	146.16667
2515.469	136.5
2517.858	144.5
2520.245	163.83333
2522.63	147.16667
2525.014	143.83333
2527.396	136.83333
2529.776	139.83333
2532.156	146.16667
2534.533	143.16667
2536.909	134.16667
2539.283	128.16667
2541.656	140.16667
2544.027	153.16667
2546.397	151.5
2548.765	143.16667
2551.131	144.5
2553.496	148.83333
2555.86	143.16667
2558.221	152.5
2560.582	140.83333
2562.94	132.16667
2565.298	134.83333
2567.653	151.5
2570.007	126.5
2572.36	144.16667
2574.711	129.5
2577.06	149.83333
2579.408	140.5
2581.754	137.5
2584.099	139.83333
2586.442	135.5
2588.784	143.83333
2591.124	131.16667
2593.463	138.16667
2595.8	137.83333
2598.135	122.83333
2600.469	133.83333
2602.802	144.16667
2605.133	150.16667
2607.462	127.16667
2609.79	120.16667
2612.116	143.5
2614.441	131.5
2616.764	139.16667
2619.086	139.16667
2621.406	127.5
2623.725	145.83333
2626.042	131.16667
2628.358	128.83333
2630.672	135.5
2632.985	140.83333
2635.296	135.5
2637.606	129.5
2639.914	121.16667
2642.22	122.16667
2644.525	134.5
2646.829	137.5
2649.131	143.83333
2651.432	137.83333
2653.731	130.16667
2656.028	137.83333
2658.324	137.83333
2660.619	122.83333
2662.912	141.83333
2665.204	117.16667
2667.494	137.5
2669.782	118.83333
2672.07	148.83333
2674.355	141.16667
2676.639	138.83333
2678.922	127.83333
2681.203	133.16667
2683.483	124.5
2685.761	119.16667
2688.038	141.83333
2690.313	149.16667
2692.587	133.5
2694.859	134.83333
2697.13	133.16667
2699.399	132.83333
2701.667	141.5
2703.933	133.83333
2706.198	145.16667
2708.461	140.83333
2710.723	144.16667
2712.984	141.16667
2715.243	143.83333
2717.5	137.16667
2719.757	142.5
2722.011	138.5
2724.264	146.83333
2726.516	151.5
2728.766	133.16667
2731.015	137.16667
2733.262	135.5
2735.508	138.83333
2737.753	140.16667
2739.996	121.83333
2742.237	133.5
2744.477	147.83333
2746.716	145.16667
2748.953	143.16667
2751.189	142.16667
2753.423	139.83333
2755.656	126.83333
2757.887	125.16667
2760.117	130.5
2762.346	130.5
2764.573	117.16667
2766.798	124.5
2769.022	133.5
2771.245	122.83333
2773.467	125.5
2775.686	125.83333
2777.905	132.83333
2780.122	128.16667
2782.337	133.5
2784.552	129.5
2786.764	128.16667
2788.976	129.16667
2791.186	129.16667
2793.394	126.5
2795.601	136.83333
2797.807	144.16667
2800.011	135.83333
2802.214	136.83333
2804.415	133.83333
2806.615	135.83333
2808.814	138.5
2811.011	145.5
2813.206	147.83333
2815.401	154.83333
2817.594	153.83333
2819.785	155.83333
2821.975	140.5
2824.164	146.5
2826.351	146.16667
2828.537	159.83333
2830.722	159.83333
2832.905	158.5
2835.086	163.83333
2837.267	185.16667
2839.445	171.83333
2841.623	179.5
2843.799	175.5
2845.974	189.16667
2848.147	194.83333
2850.319	210.16667
2852.489	215.5
2854.659	212.83333
2856.826	215.5
2858.993	234.83333
2861.158	213.83333
2863.321	221.83333
2865.483	242.5
2867.644	237.16667
2869.804	240.16667
2871.962	240.16667
2874.118	264.83333
2876.274	332.5
2878.428	318.16667
2880.58	282.5
2882.731	252.83333
2884.881	253.5
2887.03	255.16667
2889.177	239.83333
2891.322	248.5
2893.467	230.5
2895.61	225.83333
2897.751	235.16667
2899.892	225.16667
2902.03	227.5
2904.168	232.16667
2906.304	228.5
2908.439	241.5
2910.572	222.5
2912.704	225.83333
2914.835	231.83333
2916.965	235.16667
2919.093	247.5
2921.219	218.16667
2923.345	247.16667
2925.469	223.83333
2927.591	221.16667
2929.712	210.5
2931.832	225.5
2933.951	216.16667
2936.068	217.16667
2938.184	205.16667
2940.299	202.16667
2942.412	198.5
2944.524	182.16667
2946.634	199.5
2948.744	164.16667
2950.851	204.83333
2952.958	171.5
2955.063	174.16667
2957.167	170.5
2959.269	159.83333
2961.371	186.5
2963.471	153.16667
2965.569	166.83333
2967.666	143.83333
2969.762	144.83333
2971.857	142.16667
2973.95	134.5
2976.042	139.16667
2978.133	139.16667
2980.222	135.83333
2982.31	123.5
2984.396	112.83333
2986.482	123.16667
2988.566	121.83333
2990.648	122.83333
2992.73	119.16667
2994.81	107.16667
2996.889	122.16667
2998.966	115.5
3001.042	130.16667
3003.117	113.16667
3005.191	120.5
3007.263	122.5
3009.334	121.16667
3011.403	114.5
3013.472	108.5
3015.539	126.83333
3017.604	134.5
3019.669	100.83333
3021.732	105.83333
3023.794	114.16667
3025.854	97.16667
3027.914	97.16667
3029.971	99.83333
3032.028	103.16667
3034.083	105.16667
3036.137	106.5
3038.19	95.16667
3040.242	92.16667
3042.292	85.5
3044.341	93.83333
3046.388	114.83333
3048.435	86.83333
3050.48	111.5
3052.524	98.16667
3054.566	77.5
3056.607	91.83333
3058.647	86.16667
3060.686	77.83333
3062.723	72.5
3064.759	77.16667
3066.794	0.16667
3068.828	1.5
3070.86	1.5
