-0.839	133.45833
3.438	155.79167
7.711	66.79167
11.981	41.79167
16.247	31.79167
20.509	40.45833
24.768	35.45833
29.024	41.125
33.276	31.125
37.524	40.79167
41.769	30.125
46.01	26.79167
50.247	42.45833
54.481	52.45833
58.712	53.79167
62.939	37.125
67.162	53.79167
71.382	43.45833
75.599	38.79167
79.812	42.125
84.021	63.79167
88.227	39.45833
92.429	52.45833
96.628	36.125
100.823	54.45833
105.015	53.125
109.204	46.125
113.388	55.45833
117.57	41.125
121.748	57.79167
125.922	50.125
130.093	64.45833
134.261	57.79167
138.425	51.125
142.585	82.79167
146.742	60.125
150.896	74.125
155.046	68.45833
159.193	108.125
163.336	151.125
167.476	248.125
171.613	434.79167
175.746	688.125
179.875	1018.45833
184.002	1296.45833
188.124	1538.79167
192.244	1595.45833
196.36	1593.79167
200.472	1586.45833
204.581	1578.125
208.687	1502.125
212.79	1493.79167
216.889	1520.79167
220.984	1510.125
225.077	1526.125
229.165	1527.45833
233.251	1527.79167
237.333	1509.45833
241.412	1496.45833
245.487	1486.79167
249.559	1464.45833
253.628	1470.45833
257.694	1452.79167
261.756	1452.125
265.814	1435.125
269.87	1387.125
273.922	1348.45833
277.97	1332.125
282.016	1330.45833
286.058	1318.79167
290.097	1353.79167
294.132	1374.45833
298.164	1364.125
302.193	1303.79167
306.219	1224.79167
310.241	1154.45833
314.26	1067.45833
318.276	1011.45833
322.288	986.125
326.297	950.125
330.303	923.125
334.305	911.125
338.305	897.79167
342.301	898.125
346.294	890.45833
350.283	884.79167
354.269	878.45833
358.252	870.45833
362.232	875.79167
366.209	871.79167
370.182	855.79167
374.152	851.79167
378.119	862.79167
382.083	853.45833
386.043	873.45833
390	856.45833
393.954	865.45833
397.905	859.45833
401.852	879.45833
405.797	864.45833
409.738	855.79167
413.676	871.79167
417.61	875.45833
421.542	856.79167
425.47	844.125
429.396	849.125
433.318	825.79167
437.236	842.45833
441.152	870.45833
445.065	821.125
448.974	830.79167
452.88	821.125
456.783	813.125
460.683	808.79167
464.58	816.79167
468.473	828.45833
472.364	835.125
476.251	823.79167
480.135	817.79167
484.016	839.125
487.894	841.125
491.769	842.45833
495.641	833.125
499.509	848.125
503.375	857.45833
507.237	845.45833
511.096	852.79167
514.952	886.45833
518.805	898.79167
522.655	925.125
526.502	881.45833
530.346	851.45833
534.187	853.45833
538.024	843.45833
541.859	827.79167
545.69	859.79167
549.519	849.79167
553.344	843.45833
557.166	824.45833
560.985	828.79167
564.802	818.79167
568.615	819.45833
572.425	804.125
576.232	793.125
580.036	792.125
583.836	799.79167
587.634	810.79167
591.429	798.125
595.221	837.125
599.01	820.125
602.796	826.79167
606.578	828.45833
610.358	832.45833
614.135	810.125
617.909	830.125
621.679	822.45833
625.447	801.79167
629.212	804.125
632.973	809.45833
636.732	810.125
640.488	824.125
644.241	799.45833
647.991	781.79167
651.737	826.45833
655.481	785.125
659.222	800.125
662.96	778.125
666.695	797.125
670.427	808.125
674.156	800.125
677.882	814.79167
681.605	816.125
685.325	791.79167
689.043	813.45833
692.757	784.79167
696.468	798.125
700.177	792.45833
703.882	784.45833
707.585	772.45833
711.284	789.125
714.981	776.45833
718.675	768.45833
722.366	789.79167
726.054	772.125
729.739	773.45833
733.421	786.79167
737.1	772.125
740.777	792.125
744.45	773.79167
748.121	778.79167
751.789	798.45833
755.453	791.125
759.115	808.79167
762.774	805.45833
766.431	804.45833
770.084	797.79167
773.734	787.79167
777.382	818.125
781.027	813.45833
784.669	812.125
788.308	816.125
791.944	829.45833
795.577	840.125
799.208	831.45833
802.835	843.45833
806.46	838.125
810.082	840.79167
813.701	829.45833
817.317	852.45833
820.931	848.125
824.542	844.125
828.149	825.79167
831.754	811.45833
835.357	827.45833
838.956	840.125
842.553	837.125
846.146	815.79167
849.737	796.45833
853.326	811.125
856.911	801.45833
860.493	821.79167
864.073	821.45833
867.65	843.45833
871.225	837.79167
874.796	829.79167
878.365	828.125
881.931	843.79167
885.494	844.79167
889.054	831.125
892.612	835.125
896.166	824.45833
899.719	815.125
903.268	815.125
906.814	809.79167
910.358	791.45833
913.899	794.45833
917.438	793.125
920.973	764.125
924.506	767.45833
928.036	798.45833
931.564	801.79167
935.088	824.79167
938.61	797.125
942.129	812.45833
945.646	827.79167
949.16	834.79167
952.671	836.45833
956.179	843.45833
959.685	829.79167
963.188	844.125
966.688	835.125
970.185	797.45833
973.68	791.125
977.173	786.45833
980.662	771.79167
984.149	789.45833
987.633	769.45833
991.114	778.79167
994.593	786.45833
998.069	792.125
1001.542	817.79167
1005.013	818.79167
1008.481	755.79167
1011.947	763.45833
1015.409	752.125
1018.869	751.79167
1022.327	769.125
1025.782	748.79167
1029.234	737.45833
1032.683	740.45833
1036.13	724.79167
1039.574	700.45833
1043.016	697.45833
1046.455	679.45833
1049.891	664.45833
1053.325	697.125
1056.756	672.125
1060.184	685.45833
1063.61	648.79167
1067.033	669.125
1070.454	672.45833
1073.872	679.125
1077.287	666.79167
1080.7	664.79167
1084.11	660.79167
1087.517	671.79167
1090.922	664.125
1094.325	658.79167
1097.724	648.125
1101.122	644.125
1104.516	653.125
1107.908	631.79167
1111.298	654.45833
1114.684	644.45833
1118.069	654.125
1121.45	661.125
1124.83	655.125
1128.206	672.45833
1131.58	675.125
1134.951	681.45833
1138.32	698.45833
1141.687	729.125
1145.05	740.79167
1148.412	724.125
1151.77	743.45833
1155.126	719.45833
1158.48	716.125
1161.831	718.79167
1165.18	717.45833
1168.525	734.79167
1171.869	736.125
1175.21	748.79167
1178.548	766.125
1181.884	765.125
1185.217	765.79167
1188.548	778.125
1191.877	787.79167
1195.202	835.125
1198.526	845.125
1201.846	845.45833
1205.165	839.79167
1208.48	841.125
1211.794	836.125
1215.104	852.45833
1218.413	839.45833
1221.719	833.79167
1225.022	817.45833
1228.323	802.79167
1231.621	807.45833
1234.917	790.79167
1238.21	827.45833
1241.501	795.79167
1244.79	789.79167
1248.076	780.45833
1251.359	793.45833
1254.64	835.125
1257.919	803.79167
1261.195	817.125
1264.468	833.45833
1267.74	840.45833
1271.008	843.45833
1274.275	852.79167
1277.538	832.125
1280.8	838.45833
1284.059	838.125
1287.315	840.125
1290.569	845.79167
1293.821	847.125
1297.07	866.125
1300.317	868.45833
1303.562	868.45833
1306.803	854.45833
1310.043	843.45833
1313.28	851.45833
1316.515	832.79167
1319.747	847.125
1322.977	827.79167
1326.204	818.79167
1329.429	820.45833
1332.652	820.79167
1335.872	813.125
1339.09	801.125
1342.306	790.125
1345.519	783.45833
1348.729	784.45833
1351.938	775.45833
1355.144	786.79167
1358.347	767.45833
1361.548	771.79167
1364.747	772.125
1367.944	745.45833
1371.138	753.45833
1374.329	762.125
1377.518	774.79167
1380.705	765.79167
1383.89	773.45833
1387.072	741.79167
1390.252	717.79167
1393.429	699.45833
1396.605	695.45833
1399.777	655.125
1402.948	658.79167
1406.116	654.79167
1409.282	661.79167
1412.445	660.79167
1415.606	661.45833
1418.765	665.79167
1421.921	683.125
1425.075	683.45833
1428.227	696.79167
1431.376	722.79167
1434.524	737.79167
1437.668	751.79167
1440.811	767.125
1443.951	762.79167
1447.089	773.125
1450.224	782.79167
1453.357	765.79167
1456.488	762.125
1459.617	756.79167
1462.743	752.125
1465.867	723.125
1468.989	716.125
1472.108	709.125
1475.225	692.45833
1478.34	682.45833
1481.453	687.79167
1484.563	673.45833
1487.671	690.79167
1490.776	703.45833
1493.88	697.125
1496.981	709.125
1500.08	726.125
1503.176	727.125
1506.271	726.79167
1509.363	736.79167
1512.452	731.45833
1515.54	746.79167
1518.625	756.125
1521.708	785.125
1524.789	796.125
1527.867	808.125
1530.944	854.125
1534.018	876.125
1537.089	920.79167
1540.159	926.125
1543.226	937.79167
1546.291	919.125
1549.354	910.125
1552.415	888.79167
1555.473	868.125
1558.529	868.125
1561.583	840.45833
1564.634	822.125
1567.684	839.45833
1570.731	838.79167
1573.776	842.79167
1576.819	850.79167
1579.859	852.125
1582.898	847.125
1585.934	892.79167
1588.968	870.125
1591.999	863.45833
1595.029	871.125
1598.056	874.45833
1601.081	889.79167
1604.104	879.125
1607.125	868.45833
1610.144	861.125
1613.16	823.79167
1616.174	816.45833
1619.186	798.125
1622.196	778.45833
1625.203	753.45833
1628.209	755.79167
1631.212	750.125
1634.213	752.79167
1637.212	752.125
1640.209	731.79167
1643.203	708.79167
1646.196	697.125
1649.186	672.125
1652.174	665.125
1655.16	644.79167
1658.144	637.79167
1661.125	598.45833
1664.105	594.79167
1667.082	584.79167
1670.057	531.79167
1673.03	505.79167
1676.001	502.125
1678.97	455.125
1681.937	443.125
1684.901	421.125
1687.863	424.45833
1690.824	392.79167
1693.782	404.45833
1696.738	374.125
1699.692	382.125
1702.643	366.79167
1705.593	365.79167
1708.54	360.45833
1711.486	364.45833
1714.429	345.79167
1717.37	350.125
1720.309	338.125
1723.246	352.79167
1726.181	332.79167
1729.113	334.79167
1732.044	350.45833
1734.972	331.79167
1737.899	350.79167
1740.823	350.45833
1743.745	370.45833
1746.665	330.45833
1749.583	319.79167
1752.499	310.79167
1755.413	319.79167
1758.325	301.79167
1761.235	314.79167
1764.142	297.79167
1767.048	300.79167
1769.951	301.125
1772.852	302.125
1775.752	308.125
1778.649	301.79167
1781.544	316.125
1784.437	289.45833
1787.328	302.79167
1790.217	303.79167
1793.104	278.125
1795.989	279.45833
1798.872	275.125
1801.753	297.79167
1804.631	283.79167
1807.508	283.45833
1810.383	295.125
1813.255	282.79167
1816.126	280.45833
1818.994	280.79167
1821.861	284.125
1824.725	285.45833
1827.587	282.79167
1830.448	275.79167
1833.306	261.45833
1836.162	280.79167
1839.017	271.79167
1841.869	272.79167
1844.719	273.125
1847.567	264.45833
1850.414	261.125
1853.258	258.125
1856.1	279.79167
1858.94	278.125
1861.778	275.125
1864.614	253.79167
1867.448	264.125
1870.28	252.79167
1873.111	273.45833
1875.939	259.79167
1878.765	280.125
1881.589	262.45833
1884.411	264.125
1887.231	263.79167
1890.049	264.79167
1892.865	273.45833
1895.68	254.125
1898.492	259.79167
1901.302	254.79167
1904.11	262.125
1906.916	252.125
1909.721	253.79167
1912.523	265.125
1915.323	246.79167
1918.122	251.79167
1920.918	252.79167
1923.712	242.45833
1926.505	258.45833
1929.295	232.125
1932.084	258.45833
1934.87	251.79167
1937.655	245.125
1940.438	236.45833
1943.218	242.45833
1945.997	245.125
1948.774	248.79167
1951.549	250.79167
1954.322	239.79167
1957.093	246.125
1959.862	238.45833
1962.629	233.79167
1965.394	234.79167
1968.157	227.45833
1970.918	244.125
1973.678	232.79167
1976.435	243.45833
1979.19	238.79167
1981.944	224.79167
1984.696	236.79167
1987.445	227.125
1990.193	236.45833
1992.939	244.79167
1995.683	237.45833
1998.425	222.125
2001.165	256.125
2003.903	213.79167
2006.639	229.125
2009.374	231.79167
2012.106	233.125
2014.837	215.79167
2017.566	235.79167
2020.292	224.79167
2023.017	227.125
2025.74	223.45833
2028.461	220.125
2031.18	224.45833
2033.898	220.125
2036.613	224.125
2039.327	224.79167
2042.038	216.125
2044.748	217.125
2047.456	229.45833
2050.162	202.79167
2052.866	219.125
2055.568	226.125
2058.268	221.79167
2060.967	229.45833
2063.663	204.45833
2066.358	214.125
2069.051	204.45833
2071.742	211.45833
2074.431	226.79167
2077.118	207.125
2079.804	200.125
2082.487	205.79167
2085.169	219.45833
2087.849	240.79167
2090.527	203.79167
2093.203	217.125
2095.877	213.79167
2098.55	215.45833
2101.22	220.125
2103.889	224.45833
2106.556	212.125
2109.221	232.125
2111.884	215.125
2114.546	237.125
2117.205	244.79167
2119.863	275.45833
2122.519	252.45833
2125.173	276.79167
2127.825	304.79167
2130.475	301.79167
2133.124	284.79167
2135.771	269.125
2138.416	289.79167
2141.059	255.79167
2143.7	265.79167
2146.339	238.79167
2148.977	225.45833
2151.613	232.45833
2154.247	228.45833
2156.879	225.45833
2159.51	210.45833
2162.138	218.79167
2164.765	210.125
2167.39	198.45833
2170.013	229.125
2172.634	215.45833
2175.254	206.45833
2177.872	246.45833
2180.488	200.45833
2183.102	206.79167
2185.714	203.45833
2188.325	197.79167
2190.934	211.125
2193.541	205.45833
2196.146	200.45833
2198.75	190.45833
2201.351	193.125
2203.951	179.79167
2206.549	204.125
2209.146	194.79167
2211.74	182.79167
2214.333	201.79167
2216.924	183.45833
2219.514	196.79167
2222.101	183.125
2224.687	204.125
2227.271	173.79167
2229.853	186.45833
2232.433	169.45833
2235.012	195.45833
2237.589	185.45833
2240.164	201.79167
2242.738	189.125
2245.309	178.125
2247.879	199.79167
2250.448	192.45833
2253.014	179.79167
2255.579	168.79167
2258.142	178.45833
2260.703	178.125
2263.262	173.79167
2265.82	170.45833
2268.376	193.79167
2270.93	175.45833
2273.483	169.125
2276.033	182.125
2278.583	176.45833
2281.13	176.79167
2283.675	163.79167
2286.219	173.45833
2288.761	180.45833
2291.302	181.79167
2293.841	190.79167
2296.377	163.45833
2298.913	179.79167
2301.446	186.79167
2303.978	183.125
2306.508	174.79167
2309.037	179.79167
2311.563	176.125
2314.088	176.79167
2316.612	156.79167
2319.133	180.45833
2321.653	176.125
2324.171	166.125
2326.688	177.125
2329.202	179.125
2331.715	171.45833
2334.227	170.45833
2336.736	174.79167
2339.244	163.79167
2341.751	161.79167
2344.255	175.79167
2346.758	169.125
2349.259	161.79167
2351.759	177.45833
2354.257	163.79167
2356.753	160.125
2359.247	165.79167
2361.74	170.79167
2364.231	163.45833
2366.721	181.125
2369.209	168.45833
2371.695	166.45833
2374.179	163.45833
2376.662	154.79167
2379.143	178.79167
2381.622	170.125
2384.1	168.45833
2386.576	166.125
2389.051	179.125
2391.524	178.125
2393.995	170.125
2396.464	163.79167
2398.932	161.125
2401.398	167.45833
2403.863	160.125
2406.325	157.45833
2408.787	171.125
2411.246	162.79167
2413.704	172.125
2416.16	163.125
2418.615	158.79167
2421.068	167.79167
2423.519	159.125
2425.969	160.125
2428.417	174.79167
2430.863	185.45833
2433.308	176.79167
2435.751	170.125
2438.193	169.125
2440.633	171.45833
2443.071	168.79167
2445.508	159.79167
2447.943	162.45833
2450.376	160.125
2452.808	174.125
2455.238	166.125
2457.667	191.125
2460.093	154.79167
2462.519	151.45833
2464.942	157.79167
2467.365	165.79167
2469.785	170.125
2472.204	164.125
2474.621	158.45833
2477.037	178.45833
2479.451	161.45833
2481.863	154.125
2484.274	159.125
2486.683	162.125
2489.091	178.45833
2491.497	171.125
2493.901	170.79167
2496.304	163.125
2498.705	176.45833
2501.105	168.125
2503.503	187.45833
2505.899	155.79167
2508.294	181.125
2510.687	164.45833
2513.079	167.45833
2515.469	159.125
2517.858	161.125
2520.245	179.79167
2522.63	164.79167
2525.014	164.45833
2527.396	158.45833
2529.776	157.79167
2532.156	167.45833
2534.533	157.125
2536.909	152.79167
2539.283	148.45833
2541.656	164.79167
2544.027	172.45833
2546.397	166.125
2548.765	163.79167
2551.131	163.79167
2553.496	174.125
2555.86	171.79167
2558.221	173.125
2560.582	162.125
2562.94	156.125
2565.298	164.125
2567.653	182.45833
2570.007	157.79167
2572.36	173.45833
2574.711	157.79167
2577.06	170.79167
2579.408	171.45833
2581.754	162.125
2584.099	166.125
2586.442	163.79167
2588.784	179.125
2591.124	168.79167
2593.463	167.79167
2595.8	170.125
2598.135	158.125
2600.469	164.45833
2602.802	178.125
2605.133	181.79167
2607.462	166.79167
2609.79	155.45833
2612.116	178.79167
2614.441	167.45833
2616.764	173.125
2619.086	173.79167
2621.406	166.45833
2623.725	184.125
2626.042	167.79167
2628.358	166.125
2630.672	170.125
2632.985	182.79167
2635.296	171.79167
2637.606	169.79167
2639.914	169.125
2642.22	170.45833
2644.525	171.79167
2646.829	171.45833
2649.131	183.45833
2651.432	176.125
2653.731	171.79167
2656.028	186.45833
2658.324	183.45833
2660.619	166.45833
2662.912	189.45833
2665.204	161.79167
2667.494	180.125
2669.782	169.125
2672.07	187.45833
2674.355	188.79167
2676.639	176.45833
2678.922	175.45833
2681.203	182.125
2683.483	172.125
2685.761	165.79167
2688.038	187.45833
2690.313	189.79167
2692.587	180.125
2694.859	179.79167
2697.13	179.45833
2699.399	182.45833
2701.667	191.125
2703.933	188.79167
2706.198	195.79167
2708.461	190.125
2710.723	191.79167
2712.984	190.125
2715.243	192.79167
2717.5	188.45833
2719.757	196.125
2722.011	192.125
2724.264	203.125
2726.516	205.45833
2728.766	181.79167
2731.015	191.125
2733.262	195.79167
2735.508	193.79167
2737.753	196.45833
2739.996	186.79167
2742.237	181.45833
2744.477	204.45833
2746.716	206.45833
2748.953	203.125
2751.189	201.79167
2753.423	197.79167
2755.656	184.125
2757.887	186.45833
2760.117	184.79167
2762.346	187.125
2764.573	177.79167
2766.798	183.79167
2769.022	179.125
2771.245	183.45833
2773.467	191.79167
2775.686	181.79167
2777.905	196.125
2780.122	192.45833
2782.337	196.125
2784.552	194.45833
2786.764	192.79167
2788.976	184.79167
2791.186	200.125
2793.394	194.125
2795.601	206.79167
2797.807	210.45833
2800.011	204.79167
2802.214	209.79167
2804.415	197.79167
2806.615	203.79167
2808.814	205.125
2811.011	212.45833
2813.206	208.125
2815.401	222.45833
2817.594	219.125
2819.785	225.125
2821.975	206.79167
2824.164	214.79167
2826.351	210.125
2828.537	226.45833
2830.722	222.45833
2832.905	224.79167
2835.086	222.79167
2837.267	246.45833
2839.445	239.79167
2841.623	231.45833
2843.799	242.45833
2845.974	250.45833
2848.147	252.125
2850.319	255.79167
2852.489	265.125
2854.659	263.45833
2856.826	267.45833
2858.993	289.125
2861.158	263.79167
2863.321	272.125
2865.483	289.125
2867.644	290.45833
2869.804	288.79167
2871.962	274.125
2874.118	282.79167
2876.274	278.79167
2878.428	278.125
2880.58	282.45833
2882.731	273.45833
2884.881	280.125
2887.03	285.45833
2889.177	281.125
2891.322	289.125
2893.467	269.45833
2895.61	279.45833
2897.751	290.45833
2899.892	284.45833
2902.03	282.125
2904.168	283.79167
2906.304	277.125
2908.439	311.125
2910.572	273.79167
2912.704	291.45833
2914.835	297.125
2916.965	299.125
2919.093	312.125
2921.219	275.79167
2923.345	312.79167
2925.469	294.45833
2927.591	296.45833
2929.712	274.125
2931.832	295.45833
2933.951	279.45833
2936.068	280.79167
2938.184	271.125
2940.299	272.79167
2942.412	265.45833
2944.524	251.79167
2946.634	263.125
2948.744	238.79167
2950.851	278.79167
2952.958	247.125
2955.063	259.125
2957.167	241.125
2959.269	237.125
2961.371	276.125
2963.471	239.45833
2965.569	261.79167
2967.666	231.45833
2969.762	231.79167
2971.857	229.79167
2973.95	220.45833
2976.042	233.125
2978.133	224.125
2980.222	228.79167
2982.31	209.79167
2984.396	205.45833
2986.482	203.79167
2988.566	214.125
2990.648	211.79167
2992.73	207.45833
2994.81	196.125
2996.889	217.45833
2998.966	207.79167
3001.042	220.125
3003.117	208.125
3005.191	216.45833
3007.263	216.125
3009.334	213.45833
3011.403	209.79167
3013.472	204.125
3015.539	217.45833
3017.604	222.45833
3019.669	190.125
3021.732	206.45833
3023.794	203.125
3025.854	194.79167
3027.914	189.45833
3029.971	196.125
3032.028	203.45833
3034.083	207.45833
3036.137	202.125
3038.19	185.79167
3040.242	170.79167
3042.292	169.79167
3044.341	180.125
3046.388	193.125
3048.435	175.45833
3050.48	194.45833
3052.524	177.45833
3054.566	165.45833
3056.607	179.125
3058.647	173.125
3060.686	167.79167
3062.723	149.125
3064.759	158.79167
3066.794	-0.875
3068.828	0.79167
3070.86	1.45833
