-0.839	145.125
3.438	161.125
7.711	68.79167
11.981	42.45833
16.247	30.45833
20.509	36.45833
24.768	31.45833
29.024	43.125
33.276	30.79167
37.524	42.45833
41.769	31.45833
46.01	28.79167
50.247	42.45833
54.481	50.125
58.712	50.125
62.939	36.125
67.162	54.79167
71.382	45.45833
75.599	34.45833
79.812	44.45833
84.021	62.125
88.227	42.79167
92.429	53.125
96.628	38.45833
100.823	50.79167
105.015	51.79167
109.204	47.79167
113.388	59.79167
117.57	42.79167
121.748	60.125
125.922	51.125
130.093	65.79167
134.261	65.125
138.425	52.45833
142.585	85.125
146.742	66.125
150.896	79.79167
155.046	78.79167
159.193	111.45833
163.336	163.45833
167.476	285.45833
171.613	499.79167
175.746	817.125
179.875	1204.125
184.002	1540.45833
188.124	1810.125
192.244	1910.79167
196.36	1910.79167
200.472	1900.79167
204.581	1884.125
208.687	1829.125
212.79	1811.79167
216.889	1861.79167
220.984	1863.45833
225.077	1849.125
229.165	1875.79167
233.251	1885.125
237.333	1877.125
241.412	1860.125
245.487	1858.79167
249.559	1833.45833
253.628	1814.79167
257.694	1811.45833
261.756	1795.79167
265.814	1752.45833
269.87	1710.125
273.922	1669.125
277.97	1652.45833
282.016	1648.79167
286.058	1633.45833
290.097	1674.45833
294.132	1686.125
298.164	1668.79167
302.193	1617.125
306.219	1508.45833
310.241	1404.79167
314.26	1312.45833
318.276	1257.45833
322.288	1221.45833
326.297	1166.45833
330.303	1133.45833
334.305	1117.79167
338.305	1104.79167
342.301	1102.79167
346.294	1096.45833
350.283	1089.79167
354.269	1089.45833
358.252	1066.125
362.232	1083.125
366.209	1083.45833
370.182	1059.125
374.152	1051.125
378.119	1085.45833
382.083	1056.79167
386.043	1080.125
390	1060.125
393.954	1078.79167
397.905	1048.45833
401.852	1074.125
405.797	1061.79167
409.738	1064.45833
413.676	1069.79167
417.61	1083.125
421.542	1054.125
425.47	1061.45833
429.396	1036.45833
433.318	1046.79167
437.236	1032.45833
441.152	1060.45833
445.065	1020.125
448.974	1026.125
452.88	1006.45833
456.783	1004.45833
460.683	1020.79167
464.58	1010.125
468.473	1019.125
472.364	1020.125
476.251	1004.79167
480.135	1029.125
484.016	1040.79167
487.894	1038.45833
491.769	1046.125
495.641	1038.125
499.509	1037.45833
503.375	1034.45833
507.237	1029.45833
511.096	1033.79167
514.952	1047.125
518.805	1039.45833
522.655	1039.79167
526.502	1028.79167
530.346	1040.45833
534.187	1035.79167
538.024	1029.79167
541.859	1027.79167
545.69	1055.45833
549.519	1023.79167
553.344	1035.45833
557.166	1028.79167
560.985	1002.79167
564.802	1018.79167
568.615	1003.45833
572.425	975.45833
576.232	981.125
580.036	968.125
583.836	978.45833
587.634	983.125
591.429	974.125
595.221	1018.45833
599.01	1014.45833
602.796	1009.125
606.578	1009.125
610.358	1018.79167
614.135	998.125
617.909	999.79167
621.679	997.125
625.447	997.79167
629.212	988.45833
632.973	994.79167
636.732	985.79167
640.488	997.45833
644.241	975.45833
647.991	966.45833
651.737	1010.79167
655.481	964.125
659.222	979.79167
662.96	969.45833
666.695	978.79167
670.427	1000.45833
674.156	986.45833
677.882	988.45833
681.605	983.79167
685.325	968.125
689.043	992.125
692.757	968.79167
696.468	971.79167
700.177	971.125
703.882	967.79167
707.585	948.45833
711.284	949.79167
714.981	947.45833
718.675	946.125
722.366	969.125
726.054	944.45833
729.739	950.45833
733.421	947.45833
737.1	941.125
740.777	957.79167
744.45	959.45833
748.121	967.125
751.789	1001.79167
755.453	983.45833
759.115	980.79167
762.774	985.45833
766.431	976.45833
770.084	979.45833
773.734	987.45833
777.382	1006.125
781.027	1010.79167
784.669	1001.45833
788.308	998.79167
791.944	1017.79167
795.577	1027.125
799.208	1026.45833
802.835	1026.45833
806.46	1035.79167
810.082	1031.125
813.701	1040.45833
817.317	1042.79167
820.931	1039.79167
824.542	1050.45833
828.149	1039.125
831.754	1018.79167
835.357	1015.125
838.956	1031.125
842.553	1019.79167
846.146	998.45833
849.737	986.79167
853.326	1013.79167
856.911	987.45833
860.493	1028.125
864.073	1011.45833
867.65	1035.125
871.225	1037.45833
874.796	1036.45833
878.365	1019.45833
881.931	1032.125
885.494	1052.45833
889.054	1052.45833
892.612	1032.125
896.166	1034.79167
899.719	1013.79167
903.268	1003.125
906.814	1000.125
910.358	986.125
913.899	972.125
917.438	978.79167
920.973	961.45833
924.506	973.125
928.036	989.45833
931.564	1003.79167
935.088	1008.125
938.61	1004.125
942.129	1006.125
945.646	1027.79167
949.16	1034.79167
952.671	1057.79167
956.179	1064.125
959.685	1049.125
963.188	1050.45833
966.688	1036.45833
970.185	1009.45833
973.68	991.45833
977.173	987.79167
980.662	974.125
984.149	985.79167
987.633	954.79167
991.114	986.45833
994.593	997.125
998.069	1014.79167
1001.542	1052.125
1005.013	1020.125
1008.481	962.125
1011.947	957.79167
1015.409	948.125
1018.869	946.79167
1022.327	949.45833
1025.782	936.45833
1029.234	937.45833
1032.683	917.125
1036.13	908.125
1039.574	868.125
1043.016	849.79167
1046.455	838.79167
1049.891	827.45833
1053.325	837.125
1056.756	835.79167
1060.184	834.125
1063.61	827.125
1067.033	845.125
1070.454	825.45833
1073.872	858.45833
1077.287	837.45833
1080.7	839.125
1084.11	828.125
1087.517	845.45833
1090.922	842.45833
1094.325	810.79167
1097.724	801.45833
1101.122	809.79167
1104.516	811.125
1107.908	793.45833
1111.298	808.45833
1114.684	819.79167
1118.069	830.45833
1121.45	848.125
1124.83	826.45833
1128.206	832.79167
1131.58	833.125
1134.951	869.45833
1138.32	865.125
1141.687	909.45833
1145.05	925.125
1148.412	919.79167
1151.77	921.125
1155.126	907.45833
1158.48	903.125
1161.831	916.45833
1165.18	921.45833
1168.525	926.79167
1171.869	935.79167
1175.21	931.79167
1178.548	947.79167
1181.884	956.125
1185.217	956.79167
1188.548	987.125
1191.877	1007.45833
1195.202	1033.79167
1198.526	1053.125
1201.846	1046.45833
1205.165	1069.79167
1208.48	1051.79167
1211.794	1069.125
1215.104	1067.79167
1218.413	1057.79167
1221.719	1065.125
1225.022	1041.45833
1228.323	1031.45833
1231.621	1025.45833
1234.917	1016.125
1238.21	1038.45833
1241.501	1022.79167
1244.79	1004.125
1248.076	990.45833
1251.359	1006.125
1254.64	1060.45833
1257.919	1033.125
1261.195	1045.45833
1264.468	1062.79167
1267.74	1059.45833
1271.008	1068.45833
1274.275	1070.79167
1277.538	1055.79167
1280.8	1056.79167
1284.059	1054.125
1287.315	1078.45833
1290.569	1063.79167
1293.821	1096.125
1297.07	1095.45833
1300.317	1092.125
1303.562	1093.45833
1306.803	1090.79167
1310.043	1084.125
1313.28	1075.45833
1316.515	1061.79167
1319.747	1063.79167
1322.977	1053.79167
1326.204	1040.125
1329.429	1034.45833
1332.652	1038.79167
1335.872	1042.125
1339.09	1008.45833
1342.306	1015.79167
1345.519	1009.79167
1348.729	999.45833
1351.938	1005.79167
1355.144	985.45833
1358.347	969.45833
1361.548	984.45833
1364.747	986.79167
1367.944	959.125
1371.138	971.79167
1374.329	957.125
1377.518	980.45833
1380.705	969.125
1383.89	973.45833
1387.072	931.45833
1390.252	912.125
1393.429	884.45833
1396.605	868.45833
1399.777	832.79167
1402.948	844.79167
1406.116	822.125
1409.282	832.79167
1412.445	829.79167
1415.606	828.45833
1418.765	845.79167
1421.921	854.79167
1425.075	858.45833
1428.227	893.125
1431.376	919.125
1434.524	957.79167
1437.668	977.79167
1440.811	969.125
1443.951	977.45833
1447.089	990.45833
1450.224	994.45833
1453.357	972.125
1456.488	980.125
1459.617	955.45833
1462.743	950.125
1465.867	918.125
1468.989	907.45833
1472.108	902.125
1475.225	880.125
1478.34	871.79167
1481.453	862.125
1484.563	860.45833
1487.671	874.79167
1490.776	881.79167
1493.88	888.45833
1496.981	911.125
1500.08	900.125
1503.176	916.125
1506.271	929.125
1509.363	945.79167
1512.452	946.45833
1515.54	954.45833
1518.625	954.125
1521.708	992.125
1524.789	1024.45833
1527.867	1050.45833
1530.944	1096.45833
1534.018	1136.125
1537.089	1189.125
1540.159	1195.125
1543.226	1200.45833
1546.291	1183.79167
1549.354	1165.125
1552.415	1140.45833
1555.473	1127.79167
1558.529	1096.45833
1561.583	1087.45833
1564.634	1077.45833
1567.684	1065.79167
1570.731	1077.125
1573.776	1074.125
1576.819	1075.79167
1579.859	1078.45833
1582.898	1113.79167
1585.934	1121.79167
1588.968	1109.45833
1591.999	1092.125
1595.029	1101.45833
1598.056	1124.125
1601.081	1134.45833
1604.104	1130.79167
1607.125	1104.79167
1610.144	1082.79167
1613.16	1061.79167
1616.174	1032.45833
1619.186	1020.125
1622.196	995.79167
1625.203	978.79167
1628.209	967.79167
1631.212	945.125
1634.213	947.45833
1637.212	959.45833
1640.209	961.125
1643.203	920.125
1646.196	892.45833
1649.186	864.79167
1652.174	856.45833
1655.16	822.79167
1658.144	822.79167
1661.125	777.79167
1664.105	752.45833
1667.082	738.45833
1670.057	691.45833
1673.03	659.79167
1676.001	622.79167
1678.97	582.79167
1681.937	556.125
1684.901	530.45833
1687.863	519.125
1690.824	488.125
1693.782	495.79167
1696.738	462.125
1699.692	460.79167
1702.643	449.125
1705.593	451.79167
1708.54	443.125
1711.486	459.79167
1714.429	424.79167
1717.37	441.125
1720.309	419.45833
1723.246	423.125
1726.181	416.125
1729.113	406.125
1732.044	411.125
1734.972	401.79167
1737.899	420.45833
1740.823	417.45833
1743.745	428.79167
1746.665	390.125
1749.583	388.45833
1752.499	385.45833
1755.413	391.125
1758.325	367.45833
1761.235	385.125
1764.142	364.45833
1767.048	359.79167
1769.951	369.79167
1772.852	362.45833
1775.752	374.79167
1778.649	365.79167
1781.544	377.125
1784.437	350.45833
1787.328	360.45833
1790.217	358.79167
1793.104	336.79167
1795.989	344.79167
1798.872	338.125
1801.753	348.45833
1804.631	342.125
1807.508	343.45833
1810.383	345.125
1813.255	339.45833
1816.126	344.45833
1818.994	338.125
1821.861	333.125
1824.725	345.45833
1827.587	333.45833
1830.448	335.125
1833.306	325.45833
1836.162	337.79167
1839.017	323.79167
1841.869	324.125
1844.719	326.79167
1847.567	309.79167
1850.414	305.45833
1853.258	314.79167
1856.1	327.125
1858.94	337.125
1861.778	320.45833
1864.614	312.125
1867.448	322.79167
1870.28	296.125
1873.111	326.45833
1875.939	312.45833
1878.765	327.45833
1881.589	309.125
1884.411	310.45833
1887.231	324.79167
1890.049	313.125
1892.865	318.45833
1895.68	305.45833
1898.492	310.79167
1901.302	307.79167
1904.11	301.125
1906.916	302.45833
1909.721	304.79167
1912.523	314.79167
1915.323	286.45833
1918.122	295.45833
1920.918	307.125
1923.712	298.125
1926.505	296.79167
1929.295	284.125
1932.084	297.125
1934.87	294.45833
1937.655	292.125
1940.438	293.79167
1943.218	284.79167
1945.997	300.125
1948.774	302.125
1951.549	293.79167
1954.322	283.79167
1957.093	292.125
1959.862	285.79167
1962.629	292.45833
1965.394	291.45833
1968.157	268.79167
1970.918	293.79167
1973.678	268.125
1976.435	283.79167
1979.19	276.79167
1981.944	264.45833
1984.696	271.79167
1987.445	276.79167
1990.193	274.79167
1992.939	290.45833
1995.683	276.79167
1998.425	256.79167
2001.165	292.125
2003.903	266.125
2006.639	272.125
2009.374	276.45833
2012.106	278.45833
2014.837	245.125
2017.566	278.79167
2020.292	264.45833
2023.017	263.45833
2025.74	259.125
2028.461	260.45833
2031.18	265.125
2033.898	254.45833
2036.613	260.79167
2039.327	265.125
2042.038	258.125
2044.748	259.79167
2047.456	264.45833
2050.162	250.45833
2052.866	250.45833
2055.568	270.125
2058.268	250.79167
2060.967	262.79167
2063.663	248.45833
2066.358	246.45833
2069.051	243.45833
2071.742	256.45833
2074.431	253.79167
2077.118	251.125
2079.804	243.79167
2082.487	248.125
2085.169	258.79167
2087.849	278.125
2090.527	242.45833
2093.203	250.45833
2095.877	256.79167
2098.55	256.45833
2101.22	264.45833
2103.889	269.45833
2106.556	254.125
2109.221	276.45833
2111.884	266.125
2114.546	290.45833
2117.205	295.125
2119.863	335.125
2122.519	332.45833
2125.173	347.125
2127.825	389.45833
2130.475	389.45833
2133.124	369.45833
2135.771	357.79167
2138.416	360.79167
2141.059	324.125
2143.7	325.125
2146.339	292.79167
2148.977	265.45833
2151.613	287.125
2154.247	267.45833
2156.879	265.79167
2159.51	253.125
2162.138	251.79167
2164.765	252.125
2167.39	234.125
2170.013	257.45833
2172.634	251.125
2175.254	234.125
2177.872	279.125
2180.488	231.45833
2183.102	230.45833
2185.714	234.79167
2188.325	220.45833
2190.934	233.45833
2193.541	234.45833
2196.146	228.125
2198.75	214.45833
2201.351	215.45833
2203.951	205.79167
2206.549	227.125
2209.146	212.79167
2211.74	209.45833
2214.333	220.45833
2216.924	201.79167
2219.514	211.79167
2222.101	207.79167
2224.687	220.79167
2227.271	197.79167
2229.853	203.45833
2232.433	188.79167
2235.012	211.45833
2237.589	205.79167
2240.164	221.125
2242.738	197.45833
2245.309	191.79167
2247.879	216.45833
2250.448	210.45833
2253.014	191.45833
2255.579	182.45833
2258.142	199.125
2260.703	194.45833
2263.262	187.125
2265.82	187.125
2268.376	199.45833
2270.93	192.45833
2273.483	181.125
2276.033	195.45833
2278.583	183.79167
2281.13	181.125
2283.675	172.79167
2286.219	183.125
2288.761	194.79167
2291.302	189.45833
2293.841	194.125
2296.377	175.79167
2298.913	188.45833
2301.446	195.45833
2303.978	182.79167
2306.508	186.45833
2309.037	185.125
2311.563	184.125
2314.088	184.125
2316.612	170.45833
2319.133	185.125
2321.653	191.79167
2324.171	173.45833
2326.688	185.79167
2329.202	184.79167
2331.715	185.79167
2334.227	181.45833
2336.736	179.79167
2339.244	173.125
2341.751	159.45833
2344.255	180.125
2346.758	178.125
2349.259	165.125
2351.759	178.79167
2354.257	170.45833
2356.753	162.45833
2359.247	165.125
2361.74	170.79167
2364.231	171.45833
2366.721	183.125
2369.209	163.79167
2371.695	164.45833
2374.179	160.45833
2376.662	151.125
2379.143	177.45833
2381.622	166.79167
2384.1	174.79167
2386.576	163.45833
2389.051	181.45833
2391.524	174.79167
2393.995	168.125
2396.464	160.79167
2398.932	160.125
2401.398	166.79167
2403.863	162.125
2406.325	159.79167
2408.787	165.125
2411.246	164.125
2413.704	162.125
2416.16	157.45833
2418.615	155.125
2421.068	163.125
2423.519	155.125
2425.969	152.45833
2428.417	169.45833
2430.863	179.125
2433.308	169.45833
2435.751	164.125
2438.193	159.79167
2440.633	164.125
2443.071	171.125
2445.508	153.79167
2447.943	154.45833
2450.376	154.125
2452.808	163.79167
2455.238	152.79167
2457.667	180.45833
2460.093	152.45833
2462.519	144.79167
2464.942	151.45833
2467.365	157.125
2469.785	158.45833
2472.204	154.79167
2474.621	148.79167
2477.037	169.125
2479.451	135.79167
2481.863	139.79167
2484.274	141.79167
2486.683	150.125
2489.091	162.79167
2491.497	153.125
2493.901	156.79167
2496.304	145.79167
2498.705	153.125
2501.105	143.79167
2503.503	173.45833
2505.899	139.125
2508.294	165.79167
2510.687	142.79167
2513.079	145.79167
2515.469	137.79167
2517.858	144.125
2520.245	161.125
2522.63	144.79167
2525.014	144.79167
2527.396	140.45833
2529.776	141.45833
2532.156	144.125
2534.533	132.45833
2536.909	135.79167
2539.283	124.125
2541.656	140.45833
2544.027	154.125
2546.397	145.79167
2548.765	143.45833
2551.131	146.79167
2553.496	142.125
2555.86	140.79167
2558.221	147.125
2560.582	130.125
2562.94	129.79167
2565.298	141.79167
2567.653	152.79167
2570.007	128.79167
2572.36	147.125
2574.711	133.125
2577.06	148.79167
2579.408	137.79167
2581.754	136.45833
2584.099	133.79167
2586.442	138.79167
2588.784	143.125
2591.124	136.79167
2593.463	134.79167
2595.8	142.45833
2598.135	124.125
2600.469	126.125
2602.802	141.79167
2605.133	149.45833
2607.462	131.79167
2609.79	125.125
2612.116	136.125
2614.441	128.125
2616.764	143.125
2619.086	139.79167
2621.406	130.125
2623.725	148.125
2626.042	131.79167
2628.358	132.79167
2630.672	138.45833
2632.985	144.125
2635.296	131.79167
2637.606	139.125
2639.914	130.79167
2642.22	129.45833
2644.525	137.45833
2646.829	134.45833
2649.131	149.45833
2651.432	140.45833
2653.731	126.45833
2656.028	138.79167
2658.324	135.125
2660.619	123.79167
2662.912	141.79167
2665.204	122.79167
2667.494	138.79167
2669.782	128.125
2672.07	143.45833
2674.355	145.125
2676.639	142.125
2678.922	129.125
2681.203	136.79167
2683.483	127.45833
2685.761	122.79167
2688.038	145.79167
2690.313	149.79167
2692.587	137.125
2694.859	129.125
2697.13	133.79167
2699.399	142.45833
2701.667	141.125
2703.933	140.45833
2706.198	152.79167
2708.461	149.125
2710.723	147.45833
2712.984	140.45833
2715.243	152.45833
2717.5	137.79167
2719.757	147.125
2722.011	140.79167
2724.264	148.125
2726.516	154.125
2728.766	137.79167
2731.015	140.45833
2733.262	140.45833
2735.508	139.79167
2737.753	147.79167
2739.996	132.45833
2742.237	130.45833
2744.477	146.79167
2746.716	152.45833
2748.953	148.45833
2751.189	150.45833
2753.423	141.45833
2755.656	130.45833
2757.887	128.125
2760.117	132.45833
2762.346	122.45833
2764.573	119.45833
2766.798	126.79167
2769.022	129.45833
2771.245	126.125
2773.467	130.125
2775.686	128.79167
2777.905	142.45833
2780.122	133.125
2782.337	138.125
2784.552	129.45833
2786.764	130.45833
2788.976	132.125
2791.186	139.79167
2793.394	134.79167
2795.601	140.45833
2797.807	146.45833
2800.011	146.125
2802.214	149.125
2804.415	146.79167
2806.615	148.125
2808.814	146.125
2811.011	154.45833
2813.206	151.125
2815.401	159.125
2817.594	160.79167
2819.785	160.125
2821.975	148.125
2824.164	156.125
2826.351	154.79167
2828.537	173.45833
2830.722	161.45833
2832.905	163.79167
2835.086	160.79167
2837.267	187.79167
2839.445	185.45833
2841.623	186.79167
2843.799	193.79167
2845.974	195.45833
2848.147	207.79167
2850.319	217.125
2852.489	220.125
2854.659	216.45833
2856.826	222.125
2858.993	241.79167
2861.158	218.79167
2863.321	221.125
2865.483	234.45833
2867.644	236.125
2869.804	229.79167
2871.962	232.79167
2874.118	237.45833
2876.274	232.79167
2878.428	230.79167
2880.58	231.45833
2882.731	217.125
2884.881	230.125
2887.03	233.79167
2889.177	230.45833
2891.322	235.45833
2893.467	227.45833
2895.61	227.45833
2897.751	239.125
2899.892	232.45833
2902.03	232.79167
2904.168	227.79167
2906.304	232.45833
2908.439	254.79167
2910.572	231.45833
2912.704	239.45833
2914.835	238.79167
2916.965	250.125
2919.093	254.79167
2921.219	226.125
2923.345	262.79167
2925.469	237.79167
2927.591	236.125
2929.712	215.79167
2931.832	233.45833
2933.951	222.45833
2936.068	215.45833
2938.184	217.79167
2940.299	205.79167
2942.412	205.125
2944.524	182.79167
2946.634	200.125
2948.744	171.79167
2950.851	211.45833
2952.958	171.79167
2955.063	185.79167
2957.167	171.79167
2959.269	157.45833
2961.371	191.45833
2963.471	162.125
2965.569	179.125
2967.666	147.125
2969.762	154.45833
2971.857	142.45833
2973.95	140.45833
2976.042	146.79167
2978.133	136.45833
2980.222	138.79167
2982.31	131.125
2984.396	112.125
2986.482	121.79167
2988.566	127.125
2990.648	127.45833
2992.73	123.79167
2994.81	115.125
2996.889	127.125
2998.966	121.79167
3001.042	127.45833
3003.117	118.45833
3005.191	122.79167
3007.263	124.125
3009.334	116.45833
3011.403	127.125
3013.472	117.79167
3015.539	124.45833
3017.604	137.125
3019.669	104.79167
3021.732	113.45833
3023.794	112.79167
3025.854	106.45833
3027.914	104.125
3029.971	102.79167
3032.028	106.45833
3034.083	111.45833
3036.137	116.125
3038.19	96.79167
3040.242	94.125
3042.292	96.79167
3044.341	99.45833
3046.388	115.79167
3048.435	92.45833
3050.48	110.79167
3052.524	104.125
3054.566	83.125
3056.607	97.79167
3058.647	92.79167
3060.686	80.45833
3062.723	79.79167
3064.759	82.45833
3066.794	0.45833
3068.828	1.79167
3070.86	3.45833
