-0.839	139.75
3.438	159.08333
7.711	67.75
11.981	43.41667
16.247	29.41667
20.509	36.75
24.768	30.75
29.024	42.41667
33.276	30.41667
37.524	41.75
41.769	28.75
46.01	26.08333
50.247	45.75
54.481	49.08333
58.712	52.75
62.939	37.08333
67.162	54.41667
71.382	44.08333
75.599	38.41667
79.812	44.08333
84.021	61.41667
88.227	41.41667
92.429	51.08333
96.628	38.75
100.823	50.75
105.015	55.75
109.204	47.41667
113.388	59.08333
117.57	43.41667
121.748	57.08333
125.922	51.41667
130.093	68.08333
134.261	66.08333
138.425	49.41667
142.585	86.41667
146.742	65.41667
150.896	80.08333
155.046	77.08333
159.193	111.41667
163.336	168.08333
167.476	281.75
171.613	515.75
175.746	830.41667
179.875	1212.08333
184.002	1593.75
188.124	1868.08333
192.244	1961.75
196.36	1959.08333
200.472	1958.75
204.581	1915.75
208.687	1877.08333
212.79	1865.75
216.889	1904.75
220.984	1919.08333
225.077	1918.41667
229.165	1948.41667
233.251	1936.08333
237.333	1938.41667
241.412	1902.41667
245.487	1909.08333
249.559	1862.08333
253.628	1890.75
257.694	1856.41667
261.756	1846.08333
265.814	1796.08333
269.87	1759.75
273.922	1725.41667
277.97	1702.75
282.016	1703.41667
286.058	1689.41667
290.097	1733.41667
294.132	1742.41667
298.164	1737.75
302.193	1662.75
306.219	1562.75
310.241	1477.41667
314.26	1383.41667
318.276	1291.75
322.288	1266.08333
326.297	1225.75
330.303	1197.41667
334.305	1175.75
338.305	1185.41667
342.301	1162.08333
346.294	1145.41667
350.283	1143.41667
354.269	1147.08333
358.252	1139.08333
362.232	1133.41667
366.209	1129.41667
370.182	1134.08333
374.152	1122.41667
378.119	1140.75
382.083	1123.08333
386.043	1144.41667
390	1120.08333
393.954	1136.41667
397.905	1129.08333
401.852	1151.08333
405.797	1114.41667
409.738	1120.41667
413.676	1124.75
417.61	1140.41667
421.542	1127.41667
425.47	1102.41667
429.396	1108.08333
433.318	1084.41667
437.236	1095.41667
441.152	1127.75
445.065	1081.08333
448.974	1081.75
452.88	1055.08333
456.783	1075.41667
460.683	1072.41667
464.58	1079.75
468.473	1077.41667
472.364	1079.75
476.251	1074.41667
480.135	1093.75
484.016	1093.08333
487.894	1103.75
491.769	1105.75
495.641	1093.75
499.509	1100.75
503.375	1099.41667
507.237	1099.41667
511.096	1092.41667
514.952	1090.75
518.805	1088.08333
522.655	1093.08333
526.502	1101.08333
530.346	1102.08333
534.187	1098.75
538.024	1088.75
541.859	1090.41667
545.69	1127.41667
549.519	1105.75
553.344	1096.41667
557.166	1062.41667
560.985	1079.41667
564.802	1062.08333
568.615	1057.75
572.425	1035.08333
576.232	1025.08333
580.036	1041.08333
583.836	1049.08333
587.634	1048.41667
591.429	1053.41667
595.221	1069.41667
599.01	1063.75
602.796	1063.75
606.578	1077.41667
610.358	1082.41667
614.135	1064.41667
617.909	1069.75
621.679	1061.75
625.447	1050.08333
629.212	1061.41667
632.973	1055.75
636.732	1053.41667
640.488	1050.08333
644.241	1040.41667
647.991	1031.41667
651.737	1052.41667
655.481	1019.08333
659.222	1040.08333
662.96	1036.41667
666.695	1037.08333
670.427	1041.75
674.156	1051.75
677.882	1047.41667
681.605	1055.41667
685.325	1034.08333
689.043	1053.41667
692.757	1025.41667
696.468	1035.41667
700.177	1033.75
703.882	1021.75
707.585	1009.41667
711.284	1019.08333
714.981	1006.08333
718.675	1016.08333
722.366	1028.75
726.054	1001.75
729.739	1007.41667
733.421	1012.75
737.1	1007.75
740.777	1030.08333
744.45	1005.08333
748.121	1014.75
751.789	1056.41667
755.453	1029.75
759.115	1051.41667
762.774	1040.08333
766.431	1038.75
770.084	1045.75
773.734	1056.41667
777.382	1055.75
781.027	1062.41667
784.669	1045.08333
788.308	1051.75
791.944	1072.41667
795.577	1081.41667
799.208	1086.75
802.835	1092.75
806.46	1097.08333
810.082	1079.75
813.701	1087.41667
817.317	1099.75
820.931	1100.75
824.542	1102.75
828.149	1087.41667
831.754	1070.75
835.357	1070.08333
838.956	1095.41667
842.553	1079.75
846.146	1070.75
849.737	1041.08333
853.326	1061.41667
856.911	1048.08333
860.493	1056.41667
864.073	1050.08333
867.65	1085.75
871.225	1075.75
874.796	1082.08333
878.365	1074.41667
881.931	1089.75
885.494	1105.41667
889.054	1085.75
892.612	1085.08333
896.166	1074.08333
899.719	1056.75
903.268	1033.08333
906.814	1049.08333
910.358	1039.41667
913.899	1007.41667
917.438	1034.08333
920.973	1010.08333
924.506	1020.41667
928.036	1040.08333
931.564	1047.75
935.088	1069.41667
938.61	1057.41667
942.129	1060.75
945.646	1083.75
949.16	1101.08333
952.671	1103.41667
956.179	1113.75
959.685	1093.08333
963.188	1110.75
966.688	1093.08333
970.185	1056.08333
973.68	1046.08333
977.173	1038.75
980.662	1032.75
984.149	1035.08333
987.633	1010.75
991.114	1025.75
994.593	1029.41667
998.069	1067.08333
1001.542	1079.41667
1005.013	1069.08333
1008.481	1007.75
1011.947	995.41667
1015.409	990.08333
1018.869	1005.08333
1022.327	995.41667
1025.782	988.08333
1029.234	961.75
1032.683	959.41667
1036.13	944.75
1039.574	916.75
1043.016	889.08333
1046.455	885.75
1049.891	875.75
1053.325	870.75
1056.756	866.75
1060.184	870.75
1063.61	860.08333
1067.033	887.75
1070.454	877.08333
1073.872	897.75
1077.287	891.08333
1080.7	864.08333
1084.11	872.75
1087.517	870.08333
1090.922	871.41667
1094.325	861.08333
1097.724	852.41667
1101.122	846.08333
1104.516	841.41667
1107.908	824.08333
1111.298	842.41667
1114.684	844.75
1118.069	844.41667
1121.45	876.08333
1124.83	860.41667
1128.206	866.75
1131.58	878.75
1134.951	899.41667
1138.32	906.41667
1141.687	951.75
1145.05	960.08333
1148.412	961.41667
1151.77	948.75
1155.126	961.41667
1158.48	938.75
1161.831	945.75
1165.18	945.08333
1168.525	958.41667
1171.869	971.08333
1175.21	963.75
1178.548	982.41667
1181.884	997.41667
1185.217	983.08333
1188.548	1008.41667
1191.877	1025.41667
1195.202	1076.08333
1198.526	1106.41667
1201.846	1086.41667
1205.165	1106.41667
1208.48	1101.41667
1211.794	1089.41667
1215.104	1092.75
1218.413	1073.08333
1221.719	1077.75
1225.022	1067.08333
1228.323	1062.08333
1231.621	1076.08333
1234.917	1046.08333
1238.21	1073.75
1241.501	1051.08333
1244.79	1028.41667
1248.076	1014.08333
1251.359	1032.75
1254.64	1093.75
1257.919	1062.08333
1261.195	1081.75
1264.468	1092.41667
1267.74	1099.08333
1271.008	1100.75
1274.275	1104.41667
1277.538	1102.75
1280.8	1094.08333
1284.059	1098.41667
1287.315	1115.75
1290.569	1101.41667
1293.821	1128.41667
1297.07	1129.75
1300.317	1119.75
1303.562	1128.75
1306.803	1114.41667
1310.043	1098.75
1313.28	1083.75
1316.515	1097.08333
1319.747	1096.75
1322.977	1078.08333
1326.204	1086.41667
1329.429	1056.41667
1332.652	1059.41667
1335.872	1056.75
1339.09	1052.08333
1342.306	1043.41667
1345.519	1029.75
1348.729	1026.08333
1351.938	1034.75
1355.144	1022.41667
1358.347	1009.41667
1361.548	1020.08333
1364.747	1020.08333
1367.944	980.41667
1371.138	993.41667
1374.329	1014.08333
1377.518	1000.75
1380.705	992.41667
1383.89	1004.08333
1387.072	966.41667
1390.252	960.08333
1393.429	905.41667
1396.605	905.41667
1399.777	865.41667
1402.948	874.08333
1406.116	854.08333
1409.282	861.75
1412.445	856.08333
1415.606	882.75
1418.765	875.41667
1421.921	884.75
1425.075	891.08333
1428.227	919.08333
1431.376	950.08333
1434.524	985.75
1437.668	986.08333
1440.811	993.08333
1443.951	1016.75
1447.089	1030.41667
1450.224	1001.41667
1453.357	998.41667
1456.488	988.75
1459.617	987.75
1462.743	982.08333
1465.867	940.08333
1468.989	948.08333
1472.108	931.75
1475.225	910.41667
1478.34	876.75
1481.453	883.41667
1484.563	873.08333
1487.671	895.41667
1490.776	916.41667
1493.88	906.75
1496.981	938.75
1500.08	930.08333
1503.176	962.41667
1506.271	953.41667
1509.363	970.75
1512.452	956.41667
1515.54	976.41667
1518.625	970.08333
1521.708	1012.41667
1524.789	1050.08333
1527.867	1078.75
1530.944	1121.41667
1534.018	1155.08333
1537.089	1208.41667
1540.159	1223.08333
1543.226	1220.41667
1546.291	1203.08333
1549.354	1185.75
1552.415	1164.08333
1555.473	1136.41667
1558.529	1116.75
1561.583	1109.41667
1564.634	1093.08333
1567.684	1103.75
1570.731	1093.75
1573.776	1098.08333
1576.819	1111.75
1579.859	1123.08333
1582.898	1124.75
1585.934	1136.41667
1588.968	1148.08333
1591.999	1121.08333
1595.029	1124.41667
1598.056	1149.08333
1601.081	1164.41667
1604.104	1150.41667
1607.125	1135.75
1610.144	1111.75
1613.16	1088.41667
1616.174	1062.75
1619.186	1058.08333
1622.196	1015.41667
1625.203	994.75
1628.209	989.41667
1631.212	972.75
1634.213	981.41667
1637.212	977.75
1640.209	974.08333
1643.203	961.75
1646.196	918.75
1649.186	892.75
1652.174	874.75
1655.16	851.08333
1658.144	847.41667
1661.125	820.75
1664.105	777.75
1667.082	747.41667
1670.057	704.75
1673.03	674.41667
1676.001	637.41667
1678.97	595.08333
1681.937	577.75
1684.901	560.08333
1687.863	541.41667
1690.824	507.41667
1693.782	514.75
1696.738	476.08333
1699.692	479.41667
1702.643	462.75
1705.593	466.08333
1708.54	464.08333
1711.486	464.41667
1714.429	435.08333
1717.37	451.75
1720.309	437.08333
1723.246	442.08333
1726.181	434.08333
1729.113	426.75
1732.044	424.08333
1734.972	424.41667
1737.899	437.08333
1740.823	440.75
1743.745	453.41667
1746.665	411.41667
1749.583	408.08333
1752.499	402.41667
1755.413	404.41667
1758.325	388.75
1761.235	392.41667
1764.142	379.41667
1767.048	370.75
1769.951	379.08333
1772.852	384.41667
1775.752	383.08333
1778.649	382.41667
1781.544	390.41667
1784.437	371.75
1787.328	379.75
1790.217	372.08333
1793.104	358.08333
1795.989	357.08333
1798.872	354.75
1801.753	370.75
1804.631	370.75
1807.508	369.41667
1810.383	364.75
1813.255	358.41667
1816.126	356.75
1818.994	354.08333
1821.861	344.08333
1824.725	353.08333
1827.587	355.41667
1830.448	343.08333
1833.306	341.75
1836.162	352.08333
1839.017	342.41667
1841.869	341.08333
1844.719	348.41667
1847.567	321.08333
1850.414	325.75
1853.258	324.41667
1856.1	345.08333
1858.94	343.08333
1861.778	332.75
1864.614	319.75
1867.448	332.08333
1870.28	313.41667
1873.111	335.41667
1875.939	324.75
1878.765	340.41667
1881.589	322.41667
1884.411	328.08333
1887.231	334.41667
1890.049	321.75
1892.865	338.41667
1895.68	324.08333
1898.492	319.08333
1901.302	319.41667
1904.11	317.75
1906.916	320.75
1909.721	319.75
1912.523	324.08333
1915.323	303.41667
1918.122	312.08333
1920.918	334.08333
1923.712	303.08333
1926.505	313.75
1929.295	291.08333
1932.084	310.41667
1934.87	300.75
1937.655	306.41667
1940.438	297.75
1943.218	300.08333
1945.997	303.75
1948.774	311.75
1951.549	311.41667
1954.322	301.75
1957.093	304.75
1959.862	295.75
1962.629	293.75
1965.394	296.08333
1968.157	286.41667
1970.918	305.41667
1973.678	287.41667
1976.435	300.75
1979.19	292.08333
1981.944	282.08333
1984.696	284.08333
1987.445	279.41667
1990.193	292.75
1992.939	298.41667
1995.683	286.75
1998.425	271.08333
2001.165	301.41667
2003.903	270.08333
2006.639	286.08333
2009.374	280.41667
2012.106	284.41667
2014.837	263.41667
2017.566	290.08333
2020.292	278.75
2023.017	280.08333
2025.74	267.75
2028.461	272.41667
2031.18	273.41667
2033.898	269.41667
2036.613	274.75
2039.327	279.08333
2042.038	268.41667
2044.748	271.08333
2047.456	277.08333
2050.162	259.75
2052.866	257.75
2055.568	271.08333
2058.268	269.08333
2060.967	278.75
2063.663	252.08333
2066.358	256.08333
2069.051	250.08333
2071.742	262.41667
2074.431	273.08333
2077.118	262.08333
2079.804	248.08333
2082.487	258.75
2085.169	263.75
2087.849	274.41667
2090.527	255.08333
2093.203	257.08333
2095.877	264.75
2098.55	261.75
2101.22	272.41667
2103.889	268.08333
2106.556	257.75
2109.221	276.08333
2111.884	277.08333
2114.546	299.08333
2117.205	309.75
2119.863	340.08333
2122.519	338.41667
2125.173	372.08333
2127.825	400.41667
2130.475	396.75
2133.124	377.41667
2135.771	358.41667
2138.416	373.08333
2141.059	339.75
2143.7	332.75
2146.339	304.08333
2148.977	273.75
2151.613	284.75
2154.247	276.75
2156.879	274.08333
2159.51	257.08333
2162.138	261.08333
2164.765	255.41667
2167.39	248.08333
2170.013	265.41667
2172.634	259.08333
2175.254	253.41667
2177.872	280.41667
2180.488	244.08333
2183.102	242.41667
2185.714	242.41667
2188.325	233.41667
2190.934	239.75
2193.541	243.41667
2196.146	238.41667
2198.75	222.08333
2201.351	225.08333
2203.951	211.08333
2206.549	235.08333
2209.146	225.08333
2211.74	219.08333
2214.333	226.75
2216.924	211.41667
2219.514	249.75
2222.101	227.41667
2224.687	230.75
2227.271	207.41667
2229.853	215.08333
2232.433	196.75
2235.012	215.75
2237.589	203.75
2240.164	227.75
2242.738	208.08333
2245.309	197.41667
2247.879	216.41667
2250.448	214.08333
2253.014	202.08333
2255.579	195.75
2258.142	199.08333
2260.703	198.41667
2263.262	197.08333
2265.82	191.75
2268.376	209.08333
2270.93	191.75
2273.483	187.41667
2276.033	197.75
2278.583	194.08333
2281.13	191.75
2283.675	187.75
2286.219	190.41667
2288.761	197.08333
2291.302	202.08333
2293.841	209.08333
2296.377	180.41667
2298.913	197.08333
2301.446	201.41667
2303.978	194.08333
2306.508	187.75
2309.037	188.75
2311.563	183.41667
2314.088	186.75
2316.612	173.75
2319.133	185.08333
2321.653	190.41667
2324.171	184.08333
2326.688	193.75
2329.202	188.41667
2331.715	189.08333
2334.227	183.08333
2336.736	183.08333
2339.244	179.75
2341.751	172.08333
2344.255	185.08333
2346.758	186.08333
2349.259	170.41667
2351.759	189.08333
2354.257	174.08333
2356.753	167.41667
2359.247	174.08333
2361.74	184.75
2364.231	174.41667
2366.721	182.75
2369.209	168.08333
2371.695	173.08333
2374.179	167.75
2376.662	155.41667
2379.143	179.75
2381.622	173.41667
2384.1	178.75
2386.576	172.08333
2389.051	185.41667
2391.524	184.75
2393.995	178.75
2396.464	170.08333
2398.932	169.08333
2401.398	173.75
2403.863	165.41667
2406.325	163.41667
2408.787	170.75
2411.246	171.75
2413.704	169.08333
2416.16	157.75
2418.615	159.41667
2421.068	171.08333
2423.519	164.08333
2425.969	157.41667
2428.417	174.08333
2430.863	188.41667
2433.308	174.75
2435.751	169.75
2438.193	162.41667
2440.633	164.75
2443.071	170.41667
2445.508	153.08333
2447.943	162.41667
2450.376	160.08333
2452.808	165.08333
2455.238	148.41667
2457.667	185.41667
2460.093	154.75
2462.519	150.41667
2464.942	150.08333
2467.365	161.75
2469.785	163.08333
2472.204	150.41667
2474.621	150.41667
2477.037	167.75
2479.451	142.41667
2481.863	142.75
2484.274	147.75
2486.683	151.41667
2489.091	162.75
2491.497	159.75
2493.901	161.08333
2496.304	151.75
2498.705	158.08333
2501.105	154.75
2503.503	169.41667
2505.899	146.08333
2508.294	168.41667
2510.687	150.75
2513.079	140.75
2515.469	144.75
2517.858	145.08333
2520.245	162.41667
2522.63	148.08333
2525.014	140.08333
2527.396	146.41667
2529.776	149.75
2532.156	150.41667
2534.533	133.75
2536.909	139.41667
2539.283	127.75
2541.656	142.75
2544.027	155.08333
2546.397	151.75
2548.765	144.75
2551.131	147.41667
2553.496	150.08333
2555.86	149.75
2558.221	154.41667
2560.582	141.08333
2562.94	131.08333
2565.298	147.08333
2567.653	148.08333
2570.007	133.08333
2572.36	149.75
2574.711	133.41667
2577.06	156.41667
2579.408	142.41667
2581.754	140.08333
2584.099	144.08333
2586.442	139.75
2588.784	148.41667
2591.124	144.41667
2593.463	137.41667
2595.8	142.75
2598.135	131.08333
2600.469	129.75
2602.802	145.08333
2605.133	150.75
2607.462	130.75
2609.79	126.08333
2612.116	147.41667
2614.441	134.75
2616.764	142.75
2619.086	137.08333
2621.406	135.08333
2623.725	147.75
2626.042	140.41667
2628.358	138.41667
2630.672	140.08333
2632.985	149.08333
2635.296	141.75
2637.606	130.75
2639.914	128.41667
2642.22	126.41667
2644.525	138.41667
2646.829	137.08333
2649.131	153.41667
2651.432	143.08333
2653.731	132.08333
2656.028	146.75
2658.324	142.75
2660.619	129.41667
2662.912	148.41667
2665.204	131.75
2667.494	140.41667
2669.782	130.41667
2672.07	148.08333
2674.355	155.08333
2676.639	144.08333
2678.922	137.75
2681.203	143.41667
2683.483	132.41667
2685.761	122.75
2688.038	145.08333
2690.313	150.41667
2692.587	139.75
2694.859	133.41667
2697.13	135.08333
2699.399	143.41667
2701.667	144.41667
2703.933	144.41667
2706.198	147.75
2708.461	145.41667
2710.723	147.08333
2712.984	139.41667
2715.243	148.41667
2717.5	139.75
2719.757	147.41667
2722.011	139.75
2724.264	152.75
2726.516	161.41667
2728.766	133.08333
2731.015	144.75
2733.262	142.75
2735.508	140.08333
2737.753	147.75
2739.996	130.75
2742.237	131.08333
2744.477	144.08333
2746.716	150.41667
2748.953	152.08333
2751.189	150.41667
2753.423	145.08333
2755.656	133.41667
2757.887	135.08333
2760.117	135.41667
2762.346	132.41667
2764.573	123.75
2766.798	131.41667
2769.022	135.41667
2771.245	133.75
2773.467	138.41667
2775.686	126.08333
2777.905	144.41667
2780.122	136.08333
2782.337	138.41667
2784.552	131.08333
2786.764	130.08333
2788.976	132.41667
2791.186	141.08333
2793.394	136.41667
2795.601	144.08333
2797.807	149.41667
2800.011	145.08333
2802.214	146.41667
2804.415	146.08333
2806.615	142.08333
2808.814	151.08333
2811.011	155.75
2813.206	154.08333
2815.401	161.08333
2817.594	156.41667
2819.785	169.08333
2821.975	147.08333
2824.164	161.75
2826.351	158.08333
2828.537	170.41667
2830.722	171.75
2832.905	163.41667
2835.086	169.08333
2837.267	196.41667
2839.445	180.41667
2841.623	182.08333
2843.799	187.75
2845.974	201.08333
2848.147	206.08333
2850.319	206.75
2852.489	223.41667
2854.659	223.41667
2856.826	221.75
2858.993	241.08333
2861.158	219.08333
2863.321	234.75
2865.483	240.08333
2867.644	235.08333
2869.804	238.41667
2871.962	230.75
2874.118	233.75
2876.274	235.41667
2878.428	223.75
2880.58	247.08333
2882.731	225.41667
2884.881	227.75
2887.03	232.08333
2889.177	232.41667
2891.322	238.08333
2893.467	227.08333
2895.61	229.41667
2897.751	248.08333
2899.892	232.75
2902.03	239.75
2904.168	235.08333
2906.304	240.08333
2908.439	250.41667
2910.572	232.08333
2912.704	244.75
2914.835	250.08333
2916.965	238.75
2919.093	254.08333
2921.219	229.41667
2923.345	256.41667
2925.469	236.41667
2927.591	231.75
2929.712	218.41667
2931.832	235.41667
2933.951	226.08333
2936.068	221.75
2938.184	214.75
2940.299	207.41667
2942.412	205.41667
2944.524	188.75
2946.634	200.08333
2948.744	170.41667
2950.851	214.75
2952.958	175.75
2955.063	184.75
2957.167	173.08333
2959.269	162.75
2961.371	192.08333
2963.471	161.75
2965.569	180.41667
2967.666	158.41667
2969.762	151.41667
2971.857	145.75
2973.95	140.41667
2976.042	155.08333
2978.133	138.41667
2980.222	141.41667
2982.31	129.75
2984.396	117.41667
2986.482	124.41667
2988.566	129.08333
2990.648	127.75
2992.73	127.41667
2994.81	112.75
2996.889	131.08333
2998.966	124.41667
3001.042	137.08333
3003.117	121.41667
3005.191	125.41667
3007.263	128.08333
3009.334	126.08333
3011.403	126.08333
3013.472	119.41667
3015.539	128.75
3017.604	133.75
3019.669	107.08333
3021.732	111.08333
3023.794	118.41667
3025.854	103.41667
3027.914	100.08333
3029.971	103.41667
3032.028	106.08333
3034.083	113.75
3036.137	109.41667
3038.19	98.41667
3040.242	92.41667
3042.292	92.75
3044.341	103.08333
3046.388	111.08333
3048.435	89.41667
3050.48	112.41667
3052.524	100.75
3054.566	87.08333
3056.607	104.41667
3058.647	94.41667
3060.686	86.75
3062.723	81.08333
3064.759	79.08333
3066.794	0.41667
3068.828	0.75
3070.86	3.75
