-0.839	145.45833
3.438	160.45833
7.711	66.125
11.981	44.125
16.247	32.45833
20.509	39.79167
24.768	34.45833
29.024	40.125
33.276	32.125
37.524	40.79167
41.769	28.45833
46.01	24.79167
50.247	43.125
54.481	51.125
58.712	54.125
62.939	38.125
67.162	55.45833
71.382	47.45833
75.599	37.45833
79.812	43.79167
84.021	61.125
88.227	41.125
92.429	50.125
96.628	41.125
100.823	50.79167
105.015	52.125
109.204	47.79167
113.388	59.45833
117.57	43.79167
121.748	59.79167
125.922	50.79167
130.093	66.79167
134.261	59.45833
138.425	49.45833
142.585	86.79167
146.742	62.125
150.896	79.125
155.046	78.125
159.193	113.125
163.336	163.125
167.476	283.79167
171.613	503.125
175.746	826.79167
179.875	1186.45833
184.002	1532.125
188.124	1816.79167
192.244	1906.45833
196.36	1895.79167
200.472	1889.45833
204.581	1848.79167
208.687	1788.125
212.79	1790.79167
216.889	1795.45833
220.984	1824.125
225.077	1828.125
229.165	1828.79167
233.251	1831.125
237.333	1846.45833
241.412	1820.79167
245.487	1832.45833
249.559	1809.79167
253.628	1818.45833
257.694	1800.45833
261.756	1840.125
265.814	1777.45833
269.87	1687.125
273.922	1635.45833
277.97	1617.45833
282.016	1633.125
286.058	1611.79167
290.097	1643.79167
294.132	1676.45833
298.164	1648.79167
302.193	1594.79167
306.219	1489.79167
310.241	1409.45833
314.26	1312.45833
318.276	1251.45833
322.288	1222.125
326.297	1169.125
330.303	1133.125
334.305	1119.79167
338.305	1110.79167
342.301	1108.45833
346.294	1103.45833
350.283	1083.125
354.269	1081.79167
358.252	1076.125
362.232	1080.45833
366.209	1069.45833
370.182	1071.45833
374.152	1059.125
378.119	1087.125
382.083	1059.125
386.043	1077.125
390	1074.45833
393.954	1126.79167
397.905	1155.125
401.852	1170.125
405.797	1120.45833
409.738	1245.79167
413.676	1391.125
417.61	1507.45833
421.542	1218.79167
425.47	1077.125
429.396	1040.79167
433.318	1041.45833
437.236	1031.45833
441.152	1073.125
445.065	1030.125
448.974	1032.79167
452.88	1028.79167
456.783	1008.125
460.683	1015.79167
464.58	1012.125
468.473	1032.125
472.364	1026.79167
476.251	1017.125
480.135	1023.45833
484.016	1047.79167
487.894	1056.125
491.769	1039.45833
495.641	1050.125
499.509	1054.125
503.375	1067.79167
507.237	1049.125
511.096	1042.45833
514.952	1027.45833
518.805	1054.79167
522.655	1048.79167
526.502	1038.45833
530.346	1055.79167
534.187	1052.79167
538.024	1050.79167
541.859	1036.45833
545.69	1052.45833
549.519	1059.45833
553.344	1037.125
557.166	1019.79167
560.985	1033.125
564.802	1021.45833
568.615	1015.45833
572.425	986.125
576.232	987.79167
580.036	991.45833
583.836	1001.45833
587.634	1000.45833
591.429	991.45833
595.221	1011.45833
599.01	1018.79167
602.796	1008.125
606.578	1033.125
610.358	1024.45833
614.135	1012.125
617.909	1018.45833
621.679	1011.125
625.447	995.45833
629.212	1008.125
632.973	1029.125
636.732	1036.45833
640.488	1052.125
644.241	990.79167
647.991	995.45833
651.737	1017.79167
655.481	975.79167
659.222	980.45833
662.96	983.125
666.695	991.45833
670.427	989.79167
674.156	1002.79167
677.882	1010.125
681.605	993.79167
685.325	978.79167
689.043	1006.45833
692.757	967.125
696.468	979.45833
700.177	986.45833
703.882	959.45833
707.585	964.79167
711.284	969.79167
714.981	954.45833
718.675	954.79167
722.366	976.45833
726.054	956.79167
729.739	960.45833
733.421	974.125
737.1	950.45833
740.777	979.125
744.45	958.125
748.121	969.79167
751.789	1007.125
755.453	960.79167
759.115	985.79167
762.774	986.125
766.431	994.79167
770.084	1000.79167
773.734	989.45833
777.382	1006.45833
781.027	1008.125
784.669	1009.125
788.308	1006.79167
791.944	1028.45833
795.577	1031.79167
799.208	1026.125
802.835	1035.45833
806.46	1044.125
810.082	1035.79167
813.701	1022.125
817.317	1058.45833
820.931	1058.125
824.542	1047.45833
828.149	1031.79167
831.754	1020.79167
835.357	1017.45833
838.956	1045.125
842.553	1087.79167
846.146	1100.125
849.737	1021.125
853.326	1014.45833
856.911	1003.79167
860.493	1023.79167
864.073	1086.125
867.65	1219.125
871.225	1199.125
874.796	1040.45833
878.365	1021.79167
881.931	1036.45833
885.494	1038.125
889.054	1027.125
892.612	1036.45833
896.166	1025.79167
899.719	1009.45833
903.268	989.125
906.814	996.125
910.358	983.125
913.899	967.45833
917.438	968.45833
920.973	954.45833
924.506	973.45833
928.036	991.79167
931.564	1008.45833
935.088	1015.45833
938.61	1011.79167
942.129	1003.125
945.646	1035.79167
949.16	1035.45833
952.671	1049.125
956.179	1059.79167
959.685	1034.79167
963.188	1065.125
966.688	1039.125
970.185	996.79167
973.68	989.79167
977.173	980.125
980.662	960.125
984.149	963.125
987.633	957.125
991.114	967.79167
994.593	989.79167
998.069	990.79167
1001.542	1049.125
1005.013	1056.45833
1008.481	956.125
1011.947	937.45833
1015.409	927.45833
1018.869	942.125
1022.327	950.79167
1025.782	935.79167
1029.234	924.45833
1032.683	911.45833
1036.13	891.125
1039.574	876.79167
1043.016	848.125
1046.455	840.45833
1049.891	811.45833
1053.325	836.125
1056.756	822.79167
1060.184	829.79167
1063.61	816.79167
1067.033	826.45833
1070.454	817.45833
1073.872	853.79167
1077.287	833.125
1080.7	835.79167
1084.11	820.79167
1087.517	826.125
1090.922	830.45833
1094.325	807.45833
1097.724	805.125
1101.122	810.79167
1104.516	801.125
1107.908	786.79167
1111.298	789.79167
1114.684	804.79167
1118.069	811.125
1121.45	826.125
1124.83	810.79167
1128.206	821.125
1131.58	834.125
1134.951	859.125
1138.32	871.45833
1141.687	895.125
1145.05	912.125
1148.412	910.79167
1151.77	900.79167
1155.126	909.45833
1158.48	888.125
1161.831	910.125
1165.18	900.125
1168.525	912.125
1171.869	924.45833
1175.21	922.45833
1178.548	933.45833
1181.884	949.125
1185.217	944.79167
1188.548	977.79167
1191.877	988.125
1195.202	1024.79167
1198.526	1048.79167
1201.846	1043.45833
1205.165	1056.79167
1208.48	1054.125
1211.794	1028.79167
1215.104	1045.79167
1218.413	1041.79167
1221.719	1044.125
1225.022	1034.125
1228.323	1007.79167
1231.621	1018.125
1234.917	1001.125
1238.21	1013.125
1241.501	1000.79167
1244.79	989.79167
1248.076	976.45833
1251.359	992.45833
1254.64	1034.45833
1257.919	1006.79167
1261.195	1021.125
1264.468	1056.45833
1267.74	1073.125
1271.008	1052.125
1274.275	1050.79167
1277.538	1045.79167
1280.8	1038.79167
1284.059	1023.125
1287.315	1054.79167
1290.569	1050.125
1293.821	1047.125
1297.07	1061.79167
1300.317	1073.45833
1303.562	1059.79167
1306.803	1052.45833
1310.043	1058.79167
1313.28	1053.45833
1316.515	1037.125
1319.747	1044.45833
1322.977	1033.79167
1326.204	1016.45833
1329.429	1005.125
1332.652	1019.45833
1335.872	1011.79167
1339.09	993.125
1342.306	998.45833
1345.519	977.125
1348.729	977.45833
1351.938	985.125
1355.144	956.45833
1358.347	944.45833
1361.548	964.79167
1364.747	968.79167
1367.944	927.79167
1371.138	950.125
1374.329	936.45833
1377.518	936.79167
1380.705	941.45833
1383.89	944.45833
1387.072	921.79167
1390.252	897.125
1393.429	858.125
1396.605	848.45833
1399.777	822.45833
1402.948	820.45833
1406.116	802.125
1409.282	808.125
1412.445	793.45833
1415.606	817.79167
1418.765	818.79167
1421.921	834.125
1425.075	845.79167
1428.227	858.79167
1431.376	889.125
1434.524	926.45833
1437.668	944.45833
1440.811	938.79167
1443.951	948.125
1447.089	971.79167
1450.224	955.125
1453.357	946.125
1456.488	950.45833
1459.617	949.45833
1462.743	926.125
1465.867	891.79167
1468.989	891.125
1472.108	878.125
1475.225	860.79167
1478.34	848.125
1481.453	844.125
1484.563	833.125
1487.671	851.79167
1490.776	855.79167
1493.88	861.45833
1496.981	885.79167
1500.08	898.79167
1503.176	897.45833
1506.271	891.45833
1509.363	913.79167
1512.452	909.45833
1515.54	932.45833
1518.625	928.79167
1521.708	980.79167
1524.789	989.125
1527.867	1015.79167
1530.944	1060.125
1534.018	1094.125
1537.089	1146.125
1540.159	1161.79167
1543.226	1162.45833
1546.291	1138.45833
1549.354	1113.79167
1552.415	1106.45833
1555.473	1069.125
1558.529	1080.79167
1561.583	1053.125
1564.634	1037.125
1567.684	1035.45833
1570.731	1027.125
1573.776	1041.125
1576.819	1050.45833
1579.859	1061.45833
1582.898	1078.79167
1585.934	1090.125
1588.968	1102.125
1591.999	1067.79167
1595.029	1086.79167
1598.056	1109.45833
1601.081	1112.45833
1604.104	1122.125
1607.125	1104.125
1610.144	1071.79167
1613.16	1032.79167
1616.174	1019.125
1619.186	1002.45833
1622.196	977.45833
1625.203	954.45833
1628.209	946.125
1631.212	943.125
1634.213	938.45833
1637.212	946.45833
1640.209	944.79167
1643.203	930.125
1646.196	890.79167
1649.186	840.125
1652.174	840.45833
1655.16	807.79167
1658.144	796.45833
1661.125	763.125
1664.105	737.45833
1667.082	708.45833
1670.057	668.45833
1673.03	635.45833
1676.001	608.45833
1678.97	578.125
1681.937	546.125
1684.901	519.125
1687.863	514.125
1690.824	477.45833
1693.782	491.125
1696.738	457.45833
1699.692	451.125
1702.643	437.79167
1705.593	442.45833
1708.54	439.125
1711.486	446.79167
1714.429	418.45833
1717.37	433.45833
1720.309	412.125
1723.246	426.125
1726.181	402.125
1729.113	406.79167
1732.044	414.45833
1734.972	403.125
1737.899	418.125
1740.823	418.79167
1743.745	434.45833
1746.665	383.79167
1749.583	386.125
1752.499	385.45833
1755.413	384.125
1758.325	370.45833
1761.235	377.79167
1764.142	360.125
1767.048	361.79167
1769.951	372.125
1772.852	370.79167
1775.752	454.45833
1778.649	517.45833
1781.544	428.125
1784.437	360.125
1787.328	361.79167
1790.217	355.45833
1793.104	336.125
1795.989	342.79167
1798.872	335.125
1801.753	343.79167
1804.631	342.79167
1807.508	348.79167
1810.383	342.45833
1813.255	333.79167
1816.126	341.125
1818.994	339.125
1821.861	332.79167
1824.725	331.45833
1827.587	335.79167
1830.448	329.45833
1833.306	325.79167
1836.162	332.45833
1839.017	325.79167
1841.869	324.45833
1844.719	330.45833
1847.567	309.125
1850.414	307.79167
1853.258	301.125
1856.1	325.79167
1858.94	320.79167
1861.778	317.79167
1864.614	298.45833
1867.448	324.125
1870.28	296.125
1873.111	324.125
1875.939	318.45833
1878.765	325.45833
1881.589	307.79167
1884.411	310.45833
1887.231	322.45833
1890.049	312.125
1892.865	317.45833
1895.68	318.45833
1898.492	335.79167
1901.302	316.45833
1904.11	302.125
1906.916	298.79167
1909.721	301.79167
1912.523	306.45833
1915.323	292.125
1918.122	290.125
1920.918	305.125
1923.712	288.79167
1926.505	292.125
1929.295	279.125
1932.084	296.79167
1934.87	294.45833
1937.655	293.45833
1940.438	277.125
1943.218	288.45833
1945.997	284.45833
1948.774	295.79167
1951.549	295.45833
1954.322	286.125
1957.093	279.125
1959.862	281.45833
1962.629	274.45833
1965.394	276.45833
1968.157	270.125
1970.918	282.79167
1973.678	271.125
1976.435	288.45833
1979.19	273.45833
1981.944	268.79167
1984.696	272.45833
1987.445	264.79167
1990.193	275.79167
1992.939	283.125
1995.683	272.79167
1998.425	250.125
2001.165	286.79167
2003.903	256.45833
2006.639	268.45833
2009.374	275.125
2012.106	266.125
2014.837	249.45833
2017.566	272.45833
2020.292	260.45833
2023.017	258.125
2025.74	251.125
2028.461	251.125
2031.18	261.125
2033.898	251.79167
2036.613	261.125
2039.327	263.125
2042.038	245.45833
2044.748	257.125
2047.456	264.79167
2050.162	238.45833
2052.866	252.125
2055.568	260.79167
2058.268	249.45833
2060.967	258.45833
2063.663	244.45833
2066.358	247.45833
2069.051	239.125
2071.742	244.45833
2074.431	258.45833
2077.118	238.79167
2079.804	235.125
2082.487	240.79167
2085.169	258.79167
2087.849	265.79167
2090.527	241.45833
2093.203	248.125
2095.877	247.45833
2098.55	249.125
2101.22	259.125
2103.889	256.45833
2106.556	243.79167
2109.221	261.45833
2111.884	251.45833
2114.546	278.79167
2117.205	290.125
2119.863	316.79167
2122.519	307.45833
2125.173	325.79167
2127.825	368.79167
2130.475	366.125
2133.124	339.79167
2135.771	322.125
2138.416	335.125
2141.059	301.79167
2143.7	293.79167
2146.339	280.79167
2148.977	251.125
2151.613	265.79167
2154.247	257.125
2156.879	256.45833
2159.51	243.45833
2162.138	239.125
2164.765	237.45833
2167.39	223.79167
2170.013	254.79167
2172.634	242.45833
2175.254	231.45833
2177.872	268.79167
2180.488	220.125
2183.102	228.125
2185.714	224.79167
2188.325	216.79167
2190.934	228.79167
2193.541	226.125
2196.146	225.125
2198.75	210.45833
2201.351	215.45833
2203.951	200.45833
2206.549	223.125
2209.146	205.79167
2211.74	209.125
2214.333	212.45833
2216.924	203.79167
2219.514	203.125
2222.101	207.125
2224.687	219.125
2227.271	194.79167
2229.853	199.79167
2232.433	186.79167
2235.012	209.45833
2237.589	201.45833
2240.164	215.79167
2242.738	198.45833
2245.309	192.79167
2247.879	206.79167
2250.448	201.45833
2253.014	187.79167
2255.579	185.79167
2258.142	196.125
2260.703	188.125
2263.262	184.79167
2265.82	180.79167
2268.376	195.79167
2270.93	184.79167
2273.483	178.125
2276.033	191.45833
2278.583	183.79167
2281.13	186.45833
2283.675	172.79167
2286.219	173.79167
2288.761	192.79167
2291.302	192.45833
2293.841	194.79167
2296.377	168.79167
2298.913	187.125
2301.446	194.125
2303.978	180.45833
2306.508	178.45833
2309.037	180.45833
2311.563	181.125
2314.088	173.79167
2316.612	167.125
2319.133	181.45833
2321.653	184.125
2324.171	169.79167
2326.688	186.45833
2329.202	178.125
2331.715	177.79167
2334.227	173.125
2336.736	176.79167
2339.244	173.45833
2341.751	160.125
2344.255	173.125
2346.758	169.45833
2349.259	165.79167
2351.759	172.125
2354.257	162.125
2356.753	163.45833
2359.247	165.45833
2361.74	172.125
2364.231	168.45833
2366.721	178.45833
2369.209	163.45833
2371.695	162.79167
2374.179	157.79167
2376.662	155.45833
2379.143	175.45833
2381.622	170.79167
2384.1	183.45833
2386.576	172.79167
2389.051	184.125
2391.524	176.125
2393.995	169.45833
2396.464	161.125
2398.932	153.125
2401.398	164.45833
2403.863	156.79167
2406.325	154.125
2408.787	158.45833
2411.246	156.79167
2413.704	158.125
2416.16	153.79167
2418.615	154.45833
2421.068	163.125
2423.519	155.79167
2425.969	146.79167
2428.417	167.45833
2430.863	171.79167
2433.308	157.125
2435.751	162.79167
2438.193	160.79167
2440.633	156.79167
2443.071	160.45833
2445.508	152.125
2447.943	158.125
2450.376	150.45833
2452.808	162.45833
2455.238	147.125
2457.667	181.45833
2460.093	148.79167
2462.519	143.45833
2464.942	147.79167
2467.365	154.125
2469.785	153.79167
2472.204	145.45833
2474.621	148.45833
2477.037	170.45833
2479.451	142.45833
2481.863	139.125
2484.274	142.79167
2486.683	149.79167
2489.091	160.79167
2491.497	146.45833
2493.901	152.125
2496.304	146.79167
2498.705	156.79167
2501.105	149.45833
2503.503	169.79167
2505.899	142.125
2508.294	154.125
2510.687	145.125
2513.079	142.45833
2515.469	143.125
2517.858	142.45833
2520.245	157.79167
2522.63	141.45833
2525.014	134.125
2527.396	136.45833
2529.776	137.45833
2532.156	147.79167
2534.533	129.79167
2536.909	127.125
2539.283	125.45833
2541.656	139.45833
2544.027	149.45833
2546.397	144.79167
2548.765	134.125
2551.131	143.79167
2553.496	144.79167
2555.86	141.79167
2558.221	146.45833
2560.582	133.79167
2562.94	126.45833
2565.298	138.45833
2567.653	145.45833
2570.007	127.45833
2572.36	144.79167
2574.711	130.45833
2577.06	148.79167
2579.408	137.45833
2581.754	129.79167
2584.099	130.125
2586.442	136.125
2588.784	140.125
2591.124	135.125
2593.463	134.45833
2595.8	136.45833
2598.135	121.45833
2600.469	123.79167
2602.802	137.79167
2605.133	142.45833
2607.462	127.45833
2609.79	119.125
2612.116	138.125
2614.441	127.79167
2616.764	131.79167
2619.086	130.125
2621.406	129.125
2623.725	138.79167
2626.042	129.125
2628.358	122.79167
2630.672	132.125
2632.985	135.45833
2635.296	128.45833
2637.606	129.45833
2639.914	124.45833
2642.22	128.79167
2644.525	132.79167
2646.829	133.45833
2649.131	143.79167
2651.432	140.45833
2653.731	124.125
2656.028	139.45833
2658.324	132.79167
2660.619	118.79167
2662.912	132.125
2665.204	117.45833
2667.494	137.125
2669.782	123.45833
2672.07	141.125
2674.355	137.45833
2676.639	133.125
2678.922	124.125
2681.203	134.125
2683.483	119.45833
2685.761	117.125
2688.038	139.125
2690.313	147.125
2692.587	123.125
2694.859	121.79167
2697.13	127.45833
2699.399	133.45833
2701.667	132.45833
2703.933	130.45833
2706.198	143.45833
2708.461	140.45833
2710.723	138.79167
2712.984	136.125
2715.243	140.125
2717.5	128.125
2719.757	143.79167
2722.011	134.79167
2724.264	134.79167
2726.516	151.125
2728.766	122.79167
2731.015	135.125
2733.262	136.45833
2735.508	130.79167
2737.753	138.79167
2739.996	122.79167
2742.237	131.79167
2744.477	145.45833
2746.716	140.45833
2748.953	141.79167
2751.189	144.79167
2753.423	138.125
2755.656	123.79167
2757.887	117.79167
2760.117	127.79167
2762.346	125.125
2764.573	114.45833
2766.798	122.125
2769.022	124.125
2771.245	120.125
2773.467	125.125
2775.686	120.125
2777.905	133.79167
2780.122	128.79167
2782.337	131.79167
2784.552	127.45833
2786.764	130.125
2788.976	115.79167
2791.186	130.79167
2793.394	125.45833
2795.601	132.45833
2797.807	141.79167
2800.011	133.79167
2802.214	146.45833
2804.415	136.45833
2806.615	142.79167
2808.814	132.45833
2811.011	145.125
2813.206	139.125
2815.401	147.45833
2817.594	154.79167
2819.785	148.45833
2821.975	140.125
2824.164	146.125
2826.351	144.45833
2828.537	159.125
2830.722	159.125
2832.905	157.79167
2835.086	164.125
2837.267	181.45833
2839.445	174.79167
2841.623	175.45833
2843.799	176.79167
2845.974	190.79167
2848.147	187.79167
2850.319	208.79167
2852.489	212.45833
2854.659	216.79167
2856.826	212.45833
2858.993	236.79167
2861.158	214.45833
2863.321	219.79167
2865.483	242.125
2867.644	235.125
2869.804	235.45833
2871.962	234.125
2874.118	258.79167
2876.274	337.125
2878.428	323.125
2880.58	284.79167
2882.731	249.45833
2884.881	253.125
2887.03	251.45833
2889.177	232.125
2891.322	242.45833
2893.467	228.79167
2895.61	227.79167
2897.751	236.45833
2899.892	224.79167
2902.03	228.79167
2904.168	229.45833
2906.304	224.125
2908.439	245.125
2910.572	224.79167
2912.704	234.45833
2914.835	231.125
2916.965	232.45833
2919.093	246.79167
2921.219	214.79167
2923.345	247.79167
2925.469	227.45833
2927.591	225.125
2929.712	203.79167
2931.832	225.79167
2933.951	216.79167
2936.068	207.125
2938.184	208.125
2940.299	199.79167
2942.412	197.79167
2944.524	180.45833
2946.634	187.125
2948.744	169.125
2950.851	201.125
2952.958	167.79167
2955.063	176.45833
2957.167	166.45833
2959.269	155.79167
2961.371	181.125
2963.471	152.125
2965.569	174.125
2967.666	145.79167
2969.762	139.45833
2971.857	142.45833
2973.95	135.45833
2976.042	139.79167
2978.133	134.125
2980.222	130.125
2982.31	121.79167
2984.396	111.45833
2986.482	120.45833
2988.566	125.125
2990.648	122.79167
2992.73	115.45833
2994.81	107.45833
2996.889	123.79167
2998.966	119.125
3001.042	130.45833
3003.117	113.79167
3005.191	116.45833
3007.263	121.79167
3009.334	116.79167
3011.403	123.45833
3013.472	110.45833
3015.539	125.79167
3017.604	131.45833
3019.669	100.79167
3021.732	109.125
3023.794	112.79167
3025.854	99.45833
3027.914	94.45833
3029.971	99.79167
3032.028	102.79167
3034.083	108.45833
3036.137	105.125
3038.19	91.45833
3040.242	86.45833
3042.292	88.125
3044.341	93.45833
3046.388	108.45833
3048.435	88.79167
3050.48	107.45833
3052.524	93.125
3054.566	77.125
3056.607	93.125
3058.647	89.45833
3060.686	76.125
3062.723	70.45833
3064.759	73.79167
3066.794	2.45833
3068.828	0.45833
3070.86	0.45833
