-0.839	146.70833
3.438	169.04167
7.711	69.04167
11.981	46.04167
16.247	36.375
20.509	40.70833
24.768	36.04167
29.024	46.375
33.276	31.04167
37.524	45.04167
41.769	30.04167
46.01	29.04167
50.247	43.375
54.481	55.70833
58.712	56.375
62.939	36.375
67.162	52.70833
71.382	47.70833
75.599	39.375
79.812	42.375
84.021	66.70833
88.227	44.04167
92.429	52.375
96.628	36.375
100.823	54.70833
105.015	52.04167
109.204	46.04167
113.388	58.375
117.57	46.04167
121.748	60.70833
125.922	46.70833
130.093	67.04167
134.261	66.04167
138.425	61.375
142.585	85.70833
146.742	70.70833
150.896	86.375
155.046	78.375
159.193	122.70833
163.336	181.70833
167.476	305.375
171.613	548.04167
175.746	885.70833
179.875	1312.375
184.002	1714.70833
188.124	2014.70833
192.244	2123.70833
196.36	2152.70833
200.472	2117.70833
204.581	2075.04167
208.687	2044.375
212.79	2057.375
216.889	2071.375
220.984	2073.04167
225.077	2090.04167
229.165	2083.04167
233.251	2089.70833
237.333	2108.04167
241.412	2096.04167
245.487	2094.70833
249.559	2087.375
253.628	2074.375
257.694	2065.04167
261.756	2107.70833
265.814	2033.04167
269.87	1961.04167
273.922	1900.04167
277.97	1880.375
282.016	1878.70833
286.058	1863.04167
290.097	1899.70833
294.132	1917.70833
298.164	1946.70833
302.193	1855.375
306.219	1760.70833
310.241	1655.04167
314.26	1554.04167
318.276	1492.04167
322.288	1453.70833
326.297	1408.04167
330.303	1380.375
334.305	1367.04167
338.305	1362.375
342.301	1345.04167
346.294	1338.04167
350.283	1333.375
354.269	1338.70833
358.252	1314.375
362.232	1335.70833
366.209	1326.375
370.182	1311.70833
374.152	1305.375
378.119	1311.70833
382.083	1311.70833
386.043	1339.70833
390	1324.70833
393.954	1388.04167
397.905	1414.04167
401.852	1425.70833
405.797	1376.375
409.738	1515.375
413.676	1654.70833
417.61	1759.04167
421.542	1474.70833
425.47	1328.70833
429.396	1295.375
433.318	1298.375
437.236	1299.04167
441.152	1322.375
445.065	1276.04167
448.974	1291.70833
452.88	1279.70833
456.783	1263.70833
460.683	1259.375
464.58	1279.04167
468.473	1271.375
472.364	1279.70833
476.251	1271.70833
480.135	1287.70833
484.016	1311.70833
487.894	1317.04167
491.769	1331.375
495.641	1306.375
499.509	1320.04167
503.375	1315.04167
507.237	1308.70833
511.096	1294.70833
514.952	1292.04167
518.805	1291.375
522.655	1282.04167
526.502	1296.70833
530.346	1312.04167
534.187	1309.375
538.024	1305.70833
541.859	1292.70833
545.69	1309.375
549.519	1304.375
553.344	1292.375
557.166	1268.70833
560.985	1267.04167
564.802	1262.04167
568.615	1254.70833
572.425	1227.375
576.232	1232.04167
580.036	1233.375
583.836	1240.04167
587.634	1241.04167
591.429	1241.375
595.221	1274.70833
599.01	1266.04167
602.796	1262.375
606.578	1268.04167
610.358	1273.04167
614.135	1267.375
617.909	1274.70833
621.679	1248.375
625.447	1250.375
629.212	1251.04167
632.973	1270.375
636.732	1288.375
640.488	1300.375
644.241	1240.04167
647.991	1221.70833
651.737	1260.04167
655.481	1212.375
659.222	1230.04167
662.96	1229.70833
666.695	1233.04167
670.427	1254.04167
674.156	1245.04167
677.882	1239.375
681.605	1229.70833
685.325	1211.04167
689.043	1240.70833
692.757	1209.04167
696.468	1224.375
700.177	1215.375
703.882	1198.375
707.585	1200.04167
711.284	1198.375
714.981	1188.70833
718.675	1191.70833
722.366	1196.70833
726.054	1177.04167
729.739	1185.04167
733.421	1177.04167
737.1	1176.04167
740.777	1200.04167
744.45	1187.70833
748.121	1197.04167
751.789	1229.375
755.453	1206.04167
759.115	1211.70833
762.774	1207.375
766.431	1207.375
770.084	1220.375
773.734	1199.375
777.382	1244.70833
781.027	1235.04167
784.669	1222.70833
788.308	1231.375
791.944	1241.04167
795.577	1259.04167
799.208	1248.04167
802.835	1243.70833
806.46	1257.70833
810.082	1254.70833
813.701	1257.04167
817.317	1268.04167
820.931	1279.04167
824.542	1284.70833
828.149	1242.04167
831.754	1237.04167
835.357	1236.04167
838.956	1250.70833
842.553	1298.70833
846.146	1315.375
849.737	1235.375
853.326	1201.375
856.911	1188.70833
860.493	1213.375
864.073	1285.375
867.65	1426.04167
871.225	1403.70833
874.796	1239.70833
878.365	1220.70833
881.931	1232.375
885.494	1230.04167
889.054	1235.70833
892.612	1240.04167
896.166	1226.04167
899.719	1202.70833
903.268	1183.70833
906.814	1182.04167
910.358	1194.04167
913.899	1161.70833
917.438	1165.375
920.973	1139.70833
924.506	1143.375
928.036	1192.375
931.564	1193.70833
935.088	1208.70833
938.61	1188.70833
942.129	1193.04167
945.646	1207.375
949.16	1219.04167
952.671	1241.375
956.179	1253.04167
959.685	1213.375
963.188	1238.70833
966.688	1233.04167
970.185	1186.70833
973.68	1177.04167
977.173	1160.70833
980.662	1144.375
984.149	1157.70833
987.633	1140.04167
991.114	1150.375
994.593	1163.70833
998.069	1188.70833
1001.542	1228.70833
1005.013	1243.04167
1008.481	1144.375
1011.947	1109.70833
1015.409	1111.375
1018.869	1118.375
1022.327	1132.04167
1025.782	1102.70833
1029.234	1095.375
1032.683	1091.375
1036.13	1052.70833
1039.574	1022.70833
1043.016	996.04167
1046.455	993.375
1049.891	986.375
1053.325	996.70833
1056.756	992.04167
1060.184	1001.375
1063.61	985.04167
1067.033	990.04167
1070.454	986.70833
1073.872	1010.375
1077.287	984.04167
1080.7	995.04167
1084.11	982.70833
1087.517	991.70833
1090.922	971.70833
1094.325	949.70833
1097.724	957.70833
1101.122	947.04167
1104.516	952.70833
1107.908	938.04167
1111.298	946.375
1114.684	952.70833
1118.069	955.04167
1121.45	986.04167
1124.83	960.04167
1128.206	973.70833
1131.58	979.375
1134.951	999.70833
1138.32	1005.375
1141.687	1053.375
1145.05	1066.04167
1148.412	1054.70833
1151.77	1056.70833
1155.126	1055.04167
1158.48	1038.04167
1161.831	1039.04167
1165.18	1040.375
1168.525	1060.70833
1171.869	1068.04167
1175.21	1062.70833
1178.548	1086.375
1181.884	1075.70833
1185.217	1091.375
1188.548	1131.70833
1191.877	1119.70833
1195.202	1185.04167
1198.526	1197.04167
1201.846	1191.70833
1205.165	1216.04167
1208.48	1195.70833
1211.794	1181.375
1215.104	1190.375
1218.413	1184.04167
1221.719	1190.70833
1225.022	1154.04167
1228.323	1144.70833
1231.621	1157.04167
1234.917	1146.70833
1238.21	1156.04167
1241.501	1138.70833
1244.79	1124.375
1248.076	1109.375
1251.359	1157.375
1254.64	1174.04167
1257.919	1145.375
1261.195	1167.375
1264.468	1195.375
1267.74	1228.70833
1271.008	1197.70833
1274.275	1195.375
1277.538	1195.70833
1280.8	1182.70833
1284.059	1182.70833
1287.315	1192.375
1290.569	1196.375
1293.821	1189.375
1297.07	1199.375
1300.317	1194.375
1303.562	1201.70833
1306.803	1193.375
1310.043	1189.04167
1313.28	1169.375
1316.515	1178.70833
1319.747	1184.04167
1322.977	1169.375
1326.204	1172.04167
1329.429	1153.70833
1332.652	1159.70833
1335.872	1175.04167
1339.09	1129.375
1342.306	1131.70833
1345.519	1128.04167
1348.729	1113.70833
1351.938	1130.375
1355.144	1112.04167
1358.347	1087.375
1361.548	1104.04167
1364.747	1094.375
1367.944	1053.70833
1371.138	1070.04167
1374.329	1063.70833
1377.518	1065.70833
1380.705	1077.04167
1383.89	1083.04167
1387.072	1039.70833
1390.252	1028.375
1393.429	989.375
1396.605	962.375
1399.777	932.375
1402.948	942.375
1406.116	928.70833
1409.282	920.375
1412.445	912.04167
1415.606	925.375
1418.765	931.70833
1421.921	963.375
1425.075	961.375
1428.227	973.04167
1431.376	1006.70833
1434.524	1051.375
1437.668	1062.04167
1440.811	1072.375
1443.951	1087.70833
1447.089	1081.04167
1450.224	1089.375
1453.357	1072.70833
1456.488	1067.375
1459.617	1048.375
1462.743	1039.375
1465.867	1018.70833
1468.989	1009.70833
1472.108	994.70833
1475.225	984.70833
1478.34	954.70833
1481.453	955.70833
1484.563	948.375
1487.671	961.70833
1490.776	977.70833
1493.88	987.04167
1496.981	1006.04167
1500.08	998.70833
1503.176	1003.04167
1506.271	1019.70833
1509.363	1029.70833
1512.452	1040.04167
1515.54	1035.70833
1518.625	1042.70833
1521.708	1078.04167
1524.789	1116.04167
1527.867	1133.70833
1530.944	1191.04167
1534.018	1217.04167
1537.089	1264.04167
1540.159	1287.375
1543.226	1284.375
1546.291	1252.70833
1549.354	1232.375
1552.415	1213.04167
1555.473	1192.375
1558.529	1173.04167
1561.583	1154.04167
1564.634	1149.04167
1567.684	1148.04167
1570.731	1144.70833
1573.776	1158.70833
1576.819	1167.04167
1579.859	1164.04167
1582.898	1193.70833
1585.934	1201.04167
1588.968	1209.04167
1591.999	1186.375
1595.029	1179.375
1598.056	1200.70833
1601.081	1229.375
1604.104	1227.04167
1607.125	1203.04167
1610.144	1188.375
1613.16	1156.70833
1616.174	1127.04167
1619.186	1116.04167
1622.196	1086.04167
1625.203	1062.70833
1628.209	1052.04167
1631.212	1057.70833
1634.213	1056.70833
1637.212	1062.70833
1640.209	1065.70833
1643.203	1043.04167
1646.196	1006.04167
1649.186	962.375
1652.174	954.04167
1655.16	919.04167
1658.144	912.04167
1661.125	863.04167
1664.105	827.04167
1667.082	809.04167
1670.057	746.70833
1673.03	718.04167
1676.001	694.375
1678.97	647.375
1681.937	621.70833
1684.901	596.375
1687.863	586.70833
1690.824	551.375
1693.782	560.375
1696.738	529.375
1699.692	524.70833
1702.643	516.375
1705.593	503.70833
1708.54	506.70833
1711.486	519.375
1714.429	493.375
1717.37	497.04167
1720.309	490.375
1723.246	495.375
1726.181	466.04167
1729.113	469.70833
1732.044	479.375
1734.972	470.70833
1737.899	477.04167
1740.823	480.375
1743.745	500.70833
1746.665	453.04167
1749.583	452.04167
1752.499	453.04167
1755.413	449.70833
1758.325	437.04167
1761.235	435.70833
1764.142	428.375
1767.048	429.04167
1769.951	427.70833
1772.852	433.375
1775.752	521.70833
1778.649	600.70833
1781.544	489.375
1784.437	429.375
1787.328	428.04167
1790.217	421.375
1793.104	389.375
1795.989	412.04167
1798.872	393.375
1801.753	418.04167
1804.631	409.04167
1807.508	406.04167
1810.383	404.04167
1813.255	393.375
1816.126	397.04167
1818.994	401.375
1821.861	391.375
1824.725	397.375
1827.587	387.70833
1830.448	384.375
1833.306	377.04167
1836.162	388.04167
1839.017	384.04167
1841.869	383.70833
1844.719	379.70833
1847.567	366.04167
1850.414	363.375
1853.258	357.70833
1856.1	372.375
1858.94	380.70833
1861.778	367.375
1864.614	369.70833
1867.448	372.70833
1870.28	348.70833
1873.111	381.375
1875.939	366.375
1878.765	374.375
1881.589	362.375
1884.411	373.04167
1887.231	366.04167
1890.049	366.375
1892.865	370.375
1895.68	357.04167
1898.492	394.375
1901.302	368.375
1904.11	363.70833
1906.916	353.04167
1909.721	351.04167
1912.523	356.375
1915.323	341.70833
1918.122	336.70833
1920.918	360.04167
1923.712	332.375
1926.505	345.375
1929.295	332.04167
1932.084	349.375
1934.87	347.70833
1937.655	334.70833
1940.438	340.04167
1943.218	333.375
1945.997	342.70833
1948.774	353.70833
1951.549	345.70833
1954.322	331.375
1957.093	339.375
1959.862	330.375
1962.629	323.375
1965.394	326.70833
1968.157	320.375
1970.918	335.70833
1973.678	324.70833
1976.435	331.375
1979.19	320.04167
1981.944	308.375
1984.696	321.04167
1987.445	308.375
1990.193	313.375
1992.939	327.375
1995.683	313.375
1998.425	302.375
2001.165	327.04167
2003.903	294.70833
2006.639	315.04167
2009.374	311.70833
2012.106	315.375
2014.837	286.70833
2017.566	311.70833
2020.292	308.04167
2023.017	301.70833
2025.74	298.70833
2028.461	295.375
2031.18	309.04167
2033.898	292.70833
2036.613	300.04167
2039.327	300.70833
2042.038	294.375
2044.748	295.04167
2047.456	302.375
2050.162	291.04167
2052.866	287.70833
2055.568	302.70833
2058.268	292.70833
2060.967	293.70833
2063.663	277.375
2066.358	282.70833
2069.051	272.04167
2071.742	288.375
2074.431	290.70833
2077.118	285.375
2079.804	269.04167
2082.487	284.70833
2085.169	300.70833
2087.849	312.04167
2090.527	283.04167
2093.203	282.70833
2095.877	286.70833
2098.55	282.375
2101.22	294.375
2103.889	298.04167
2106.556	284.04167
2109.221	305.04167
2111.884	298.375
2114.546	318.375
2117.205	328.70833
2119.863	351.04167
2122.519	343.70833
2125.173	371.70833
2127.825	399.04167
2130.475	402.375
2133.124	387.70833
2135.771	366.375
2138.416	372.04167
2141.059	340.375
2143.7	340.70833
2146.339	321.70833
2148.977	288.04167
2151.613	309.375
2154.247	296.375
2156.879	284.04167
2159.51	274.04167
2162.138	280.04167
2164.765	273.375
2167.39	264.375
2170.013	284.70833
2172.634	277.70833
2175.254	261.04167
2177.872	302.375
2180.488	256.04167
2183.102	262.70833
2185.714	261.70833
2188.325	249.70833
2190.934	257.70833
2193.541	264.04167
2196.146	258.04167
2198.75	245.375
2201.351	242.70833
2203.951	224.375
2206.549	251.70833
2209.146	239.375
2211.74	237.375
2214.333	252.04167
2216.924	228.70833
2219.514	241.04167
2222.101	231.04167
2224.687	248.375
2227.271	225.70833
2229.853	231.04167
2232.433	216.04167
2235.012	237.375
2237.589	230.70833
2240.164	245.04167
2242.738	225.04167
2245.309	221.70833
2247.879	237.04167
2250.448	236.70833
2253.014	215.70833
2255.579	212.04167
2258.142	215.70833
2260.703	222.04167
2263.262	212.04167
2265.82	205.04167
2268.376	224.70833
2270.93	216.04167
2273.483	208.04167
2276.033	215.70833
2278.583	199.70833
2281.13	212.04167
2283.675	202.04167
2286.219	206.70833
2288.761	213.04167
2291.302	207.70833
2293.841	221.70833
2296.377	207.70833
2298.913	210.04167
2301.446	216.04167
2303.978	208.04167
2306.508	209.04167
2309.037	206.375
2311.563	208.70833
2314.088	202.70833
2316.612	192.70833
2319.133	204.70833
2321.653	204.70833
2324.171	192.375
2326.688	209.375
2329.202	194.70833
2331.715	205.70833
2334.227	197.70833
2336.736	193.375
2339.244	193.70833
2341.751	188.70833
2344.255	199.70833
2346.758	198.70833
2349.259	188.70833
2351.759	192.70833
2354.257	186.70833
2356.753	186.375
2359.247	180.375
2361.74	190.70833
2364.231	191.375
2366.721	194.70833
2369.209	181.375
2371.695	186.04167
2374.179	179.375
2376.662	173.70833
2379.143	199.70833
2381.622	185.375
2384.1	204.70833
2386.576	193.70833
2389.051	198.70833
2391.524	196.375
2393.995	188.04167
2396.464	178.70833
2398.932	183.70833
2401.398	183.04167
2403.863	173.375
2406.325	178.04167
2408.787	183.375
2411.246	179.04167
2413.704	179.375
2416.16	179.04167
2418.615	173.04167
2421.068	182.04167
2423.519	175.70833
2425.969	172.70833
2428.417	188.375
2430.863	197.70833
2433.308	183.04167
2435.751	175.375
2438.193	176.375
2440.633	177.70833
2443.071	178.70833
2445.508	169.70833
2447.943	174.375
2450.376	166.70833
2452.808	183.375
2455.238	164.375
2457.667	190.375
2460.093	165.04167
2462.519	156.375
2464.942	168.375
2467.365	176.375
2469.785	171.375
2472.204	159.375
2474.621	165.375
2477.037	183.375
2479.451	156.04167
2481.863	159.70833
2484.274	158.70833
2486.683	166.70833
2489.091	180.70833
2491.497	170.375
2493.901	169.375
2496.304	163.04167
2498.705	170.04167
2501.105	166.70833
2503.503	184.375
2505.899	153.375
2508.294	174.04167
2510.687	158.70833
2513.079	162.70833
2515.469	157.04167
2517.858	155.04167
2520.245	172.70833
2522.63	161.70833
2525.014	155.70833
2527.396	149.375
2529.776	158.70833
2532.156	161.70833
2534.533	155.70833
2536.909	142.375
2539.283	136.375
2541.656	144.375
2544.027	164.70833
2546.397	158.375
2548.765	153.375
2551.131	153.70833
2553.496	160.04167
2555.86	159.04167
2558.221	156.04167
2560.582	147.04167
2562.94	142.375
2565.298	149.04167
2567.653	162.70833
2570.007	143.04167
2572.36	161.70833
2574.711	139.70833
2577.06	161.04167
2579.408	152.70833
2581.754	148.04167
2584.099	150.70833
2586.442	151.70833
2588.784	155.70833
2591.124	145.04167
2593.463	150.70833
2595.8	155.375
2598.135	136.04167
2600.469	137.04167
2602.802	152.04167
2605.133	155.375
2607.462	140.70833
2609.79	128.04167
2612.116	149.70833
2614.441	146.375
2616.764	148.04167
2619.086	144.04167
2621.406	140.04167
2623.725	155.375
2626.042	139.04167
2628.358	134.70833
2630.672	148.04167
2632.985	148.375
2635.296	144.04167
2637.606	141.375
2639.914	135.04167
2642.22	137.70833
2644.525	140.04167
2646.829	138.375
2649.131	157.04167
2651.432	146.375
2653.731	140.70833
2656.028	153.04167
2658.324	146.70833
2660.619	128.375
2662.912	141.70833
2665.204	132.70833
2667.494	147.375
2669.782	130.70833
2672.07	150.375
2674.355	156.04167
2676.639	150.375
2678.922	138.70833
2681.203	145.70833
2683.483	134.70833
2685.761	135.70833
2688.038	149.70833
2690.313	151.70833
2692.587	139.70833
2694.859	142.04167
2697.13	140.04167
2699.399	146.70833
2701.667	145.70833
2703.933	146.04167
2706.198	154.70833
2708.461	149.04167
2710.723	151.04167
2712.984	144.375
2715.243	153.375
2717.5	145.04167
2719.757	156.375
2722.011	147.04167
2724.264	149.70833
2726.516	161.375
2728.766	139.04167
2731.015	139.04167
2733.262	147.04167
2735.508	139.70833
2737.753	151.375
2739.996	134.70833
2742.237	138.375
2744.477	149.70833
2746.716	156.375
2748.953	151.04167
2751.189	155.04167
2753.423	139.04167
2755.656	136.70833
2757.887	129.375
2760.117	134.04167
2762.346	134.70833
2764.573	125.70833
2766.798	133.375
2769.022	135.70833
2771.245	132.70833
2773.467	134.70833
2775.686	136.70833
2777.905	144.70833
2780.122	137.04167
2782.337	145.04167
2784.552	133.70833
2786.764	135.04167
2788.976	133.375
2791.186	141.70833
2793.394	136.04167
2795.601	150.04167
2797.807	152.375
2800.011	148.375
2802.214	156.04167
2804.415	148.375
2806.615	146.70833
2808.814	147.375
2811.011	153.70833
2813.206	151.70833
2815.401	165.70833
2817.594	159.375
2819.785	167.70833
2821.975	152.04167
2824.164	160.375
2826.351	155.04167
2828.537	167.70833
2830.722	168.375
2832.905	170.04167
2835.086	171.375
2837.267	190.70833
2839.445	184.375
2841.623	185.375
2843.799	193.375
2845.974	201.70833
2848.147	204.70833
2850.319	212.04167
2852.489	223.70833
2854.659	217.70833
2856.826	228.70833
2858.993	248.04167
2861.158	218.70833
2863.321	232.70833
2865.483	247.70833
2867.644	249.375
2869.804	249.04167
2871.962	245.70833
2874.118	272.04167
2876.274	345.04167
2878.428	328.375
2880.58	292.04167
2882.731	267.04167
2884.881	260.70833
2887.03	268.375
2889.177	256.375
2891.322	260.375
2893.467	234.375
2895.61	237.375
2897.751	250.04167
2899.892	234.70833
2902.03	242.04167
2904.168	245.04167
2906.304	238.70833
2908.439	260.04167
2910.572	234.04167
2912.704	244.04167
2914.835	247.70833
2916.965	245.375
2919.093	258.375
2921.219	230.375
2923.345	257.04167
2925.469	238.375
2927.591	235.04167
2929.712	221.70833
2931.832	231.375
2933.951	229.375
2936.068	220.04167
2938.184	215.70833
2940.299	212.375
2942.412	205.04167
2944.524	194.70833
2946.634	201.70833
2948.744	174.70833
2950.851	214.70833
2952.958	172.375
2955.063	182.375
2957.167	177.70833
2959.269	162.04167
2961.371	186.70833
2963.471	161.70833
2965.569	177.04167
2967.666	149.04167
2969.762	153.70833
2971.857	147.375
2973.95	145.04167
2976.042	148.70833
2978.133	142.04167
2980.222	138.375
2982.31	132.375
2984.396	114.04167
2986.482	127.04167
2988.566	127.70833
2990.648	126.375
2992.73	125.04167
2994.81	112.04167
2996.889	126.04167
2998.966	119.70833
3001.042	132.375
3003.117	120.375
3005.191	122.04167
3007.263	132.04167
3009.334	120.04167
3011.403	122.04167
3013.472	110.70833
3015.539	130.70833
3017.604	134.375
3019.669	106.04167
3021.732	115.70833
3023.794	111.04167
3025.854	104.70833
3027.914	104.70833
3029.971	105.375
3032.028	106.70833
3034.083	115.375
3036.137	115.04167
3038.19	95.375
3040.242	93.375
3042.292	92.04167
3044.341	100.375
3046.388	114.70833
3048.435	91.04167
3050.48	110.70833
3052.524	100.70833
3054.566	83.375
3056.607	96.375
3058.647	95.375
3060.686	87.04167
3062.723	74.375
3064.759	78.70833
3066.794	2.04167
3068.828	0.375
3070.86	3.04167
