-0.839	133.75
3.438	157.41667
7.711	66.08333
11.981	43.41667
16.247	34.08333
20.509	39.41667
24.768	39.08333
29.024	41.75
33.276	31.75
37.524	43.75
41.769	32.75
46.01	26.08333
50.247	41.41667
54.481	45.41667
58.712	52.75
62.939	38.41667
67.162	54.41667
71.382	46.41667
75.599	38.41667
79.812	44.41667
84.021	63.41667
88.227	43.08333
92.429	53.08333
96.628	40.41667
100.823	49.75
105.015	55.08333
109.204	47.41667
113.388	59.08333
117.57	46.08333
121.748	61.08333
125.922	48.75
130.093	66.08333
134.261	62.41667
138.425	57.08333
142.585	87.75
146.742	68.75
150.896	80.41667
155.046	81.75
159.193	115.75
163.336	166.75
167.476	291.75
171.613	536.08333
175.746	873.41667
179.875	1298.08333
184.002	1696.75
188.124	2016.41667
192.244	2135.08333
196.36	2142.08333
200.472	2170.08333
204.581	2145.41667
208.687	2083.41667
212.79	2104.41667
216.889	2109.75
220.984	2139.41667
225.077	2194.75
229.165	2191.75
233.251	2207.08333
237.333	2213.41667
241.412	2195.75
245.487	2212.08333
249.559	2169.75
253.628	2155.75
257.694	2125.75
261.756	2131.75
265.814	2094.41667
269.87	2048.75
273.922	1993.41667
277.97	1980.75
282.016	1944.08333
286.058	1895.08333
290.097	1904.08333
294.132	1917.75
298.164	1924.08333
302.193	1860.08333
306.219	1788.41667
310.241	1704.08333
314.26	1603.08333
318.276	1546.08333
322.288	1500.08333
326.297	1456.41667
330.303	1437.41667
334.305	1404.75
338.305	1418.41667
342.301	1413.75
346.294	1405.75
350.283	1393.75
354.269	1398.08333
358.252	1395.41667
362.232	1396.41667
366.209	1382.08333
370.182	1375.08333
374.152	1380.75
378.119	1396.41667
382.083	1378.08333
386.043	1394.75
390	1374.41667
393.954	1399.08333
397.905	1406.75
401.852	1407.41667
405.797	1377.75
409.738	1380.75
413.676	1387.08333
417.61	1402.08333
421.542	1367.75
425.47	1366.75
429.396	1342.41667
433.318	1331.75
437.236	1340.08333
441.152	1373.75
445.065	1333.08333
448.974	1330.08333
452.88	1307.08333
456.783	1306.75
460.683	1318.75
464.58	1321.41667
468.473	1333.41667
472.364	1333.41667
476.251	1328.41667
480.135	1340.75
484.016	1346.41667
487.894	1347.41667
491.769	1344.08333
495.641	1350.75
499.509	1361.75
503.375	1356.41667
507.237	1333.75
511.096	1321.41667
514.952	1350.08333
518.805	1374.41667
522.655	1355.41667
526.502	1338.75
530.346	1335.75
534.187	1330.41667
538.024	1328.08333
541.859	1310.08333
545.69	1339.75
549.519	1321.41667
553.344	1309.41667
557.166	1289.41667
560.985	1290.75
564.802	1287.75
568.615	1272.41667
572.425	1250.41667
576.232	1251.08333
580.036	1254.08333
583.836	1268.75
587.634	1260.41667
591.429	1258.75
595.221	1295.75
599.01	1275.75
602.796	1279.75
606.578	1287.75
610.358	1296.08333
614.135	1284.08333
617.909	1287.75
621.679	1267.08333
625.447	1266.75
629.212	1261.08333
632.973	1260.08333
636.732	1263.41667
640.488	1268.75
644.241	1249.75
647.991	1247.75
651.737	1266.41667
655.481	1241.41667
659.222	1247.75
662.96	1268.08333
666.695	1263.75
670.427	1268.41667
674.156	1276.75
677.882	1260.75
681.605	1245.75
685.325	1246.08333
689.043	1262.41667
692.757	1236.75
696.468	1230.08333
700.177	1227.75
703.882	1204.08333
707.585	1207.08333
711.284	1205.41667
714.981	1201.08333
718.675	1191.41667
722.366	1217.08333
726.054	1187.41667
729.739	1199.41667
733.421	1191.08333
737.1	1184.75
740.777	1185.08333
744.45	1200.75
748.121	1198.75
751.789	1231.75
755.453	1207.75
759.115	1228.41667
762.774	1207.41667
766.431	1216.41667
770.084	1224.41667
773.734	1201.75
777.382	1233.75
781.027	1230.41667
784.669	1207.75
788.308	1206.75
791.944	1229.41667
795.577	1222.08333
799.208	1233.41667
802.835	1250.08333
806.46	1247.08333
810.082	1250.75
813.701	1256.08333
817.317	1275.75
820.931	1258.75
824.542	1278.08333
828.149	1241.75
831.754	1217.75
835.357	1209.41667
838.956	1227.41667
842.553	1221.75
846.146	1193.41667
849.737	1157.41667
853.326	1171.41667
856.911	1180.41667
860.493	1204.08333
864.073	1179.75
867.65	1200.08333
871.225	1226.08333
874.796	1199.75
878.365	1195.75
881.931	1216.75
885.494	1220.41667
889.054	1201.08333
892.612	1218.75
896.166	1180.41667
899.719	1175.41667
903.268	1154.75
906.814	1165.08333
910.358	1153.75
913.899	1140.08333
917.438	1154.75
920.973	1120.08333
924.506	1144.41667
928.036	1162.75
931.564	1188.75
935.088	1203.41667
938.61	1163.75
942.129	1157.08333
945.646	1188.75
949.16	1190.08333
952.671	1210.41667
956.179	1228.41667
959.685	1211.75
963.188	1252.08333
966.688	1244.08333
970.185	1200.41667
973.68	1148.75
977.173	1152.75
980.662	1133.08333
984.149	1136.75
987.633	1125.75
991.114	1154.08333
994.593	1161.75
998.069	1170.41667
1001.542	1209.41667
1005.013	1199.41667
1008.481	1118.41667
1011.947	1111.41667
1015.409	1106.75
1018.869	1107.08333
1022.327	1094.08333
1025.782	1084.75
1029.234	1089.41667
1032.683	1070.41667
1036.13	1055.75
1039.574	1019.75
1043.016	993.08333
1046.455	991.41667
1049.891	979.75
1053.325	986.75
1056.756	981.75
1060.184	964.41667
1063.61	971.08333
1067.033	973.75
1070.454	977.08333
1073.872	987.41667
1077.287	959.75
1080.7	983.08333
1084.11	965.75
1087.517	978.75
1090.922	952.75
1094.325	947.75
1097.724	940.08333
1101.122	931.75
1104.516	928.41667
1107.908	924.08333
1111.298	941.41667
1114.684	931.08333
1118.069	943.75
1121.45	974.08333
1124.83	946.41667
1128.206	948.75
1131.58	957.41667
1134.951	978.41667
1138.32	983.75
1141.687	1019.41667
1145.05	1039.41667
1148.412	1049.41667
1151.77	1029.41667
1155.126	1026.75
1158.48	1016.75
1161.831	1029.75
1165.18	1015.75
1168.525	1031.08333
1171.869	1040.75
1175.21	1031.08333
1178.548	1042.75
1181.884	1062.41667
1185.217	1067.75
1188.548	1078.08333
1191.877	1079.08333
1195.202	1119.08333
1198.526	1145.75
1201.846	1142.75
1205.165	1142.75
1208.48	1146.41667
1211.794	1145.41667
1215.104	1158.75
1218.413	1132.75
1221.719	1124.75
1225.022	1111.41667
1228.323	1096.75
1231.621	1087.41667
1234.917	1104.08333
1238.21	1118.08333
1241.501	1099.41667
1244.79	1082.08333
1248.076	1074.75
1251.359	1098.08333
1254.64	1130.08333
1257.919	1115.75
1261.195	1114.75
1264.468	1126.75
1267.74	1141.41667
1271.008	1140.41667
1274.275	1135.41667
1277.538	1148.75
1280.8	1145.08333
1284.059	1134.41667
1287.315	1145.41667
1290.569	1133.08333
1293.821	1140.08333
1297.07	1138.08333
1300.317	1157.08333
1303.562	1141.08333
1306.803	1152.41667
1310.043	1139.75
1313.28	1141.41667
1316.515	1129.75
1319.747	1137.75
1322.977	1124.75
1326.204	1122.75
1329.429	1118.41667
1332.652	1136.41667
1335.872	1127.41667
1339.09	1121.75
1342.306	1119.41667
1345.519	1123.75
1348.729	1110.08333
1351.938	1113.41667
1355.144	1089.75
1358.347	1077.08333
1361.548	1087.08333
1364.747	1077.41667
1367.944	1060.08333
1371.138	1082.41667
1374.329	1046.75
1377.518	1056.41667
1380.705	1054.08333
1383.89	1059.41667
1387.072	1030.08333
1390.252	1006.41667
1393.429	968.41667
1396.605	974.75
1399.777	928.08333
1402.948	910.08333
1406.116	898.08333
1409.282	909.41667
1412.445	909.08333
1415.606	903.75
1418.765	916.08333
1421.921	926.75
1425.075	910.75
1428.227	952.08333
1431.376	982.75
1434.524	1025.08333
1437.668	1025.08333
1440.811	1034.75
1443.951	1032.08333
1447.089	1032.75
1450.224	1049.08333
1453.357	1042.41667
1456.488	1033.08333
1459.617	1020.08333
1462.743	1006.75
1465.867	990.41667
1468.989	989.08333
1472.108	970.41667
1475.225	953.41667
1478.34	956.41667
1481.453	941.41667
1484.563	951.08333
1487.671	944.75
1490.776	954.08333
1493.88	961.08333
1496.981	983.41667
1500.08	1005.75
1503.176	978.08333
1506.271	989.08333
1509.363	1008.75
1512.452	1012.08333
1515.54	1001.08333
1518.625	1018.08333
1521.708	1060.41667
1524.789	1092.08333
1527.867	1091.41667
1530.944	1150.08333
1534.018	1183.08333
1537.089	1227.08333
1540.159	1201.41667
1543.226	1216.08333
1546.291	1187.08333
1549.354	1162.75
1552.415	1134.75
1555.473	1112.75
1558.529	1100.75
1561.583	1089.41667
1564.634	1093.75
1567.684	1096.08333
1570.731	1081.75
1573.776	1109.41667
1576.819	1106.75
1579.859	1129.75
1582.898	1142.08333
1585.934	1153.08333
1588.968	1151.75
1591.999	1137.75
1595.029	1135.75
1598.056	1148.41667
1601.081	1166.75
1604.104	1145.41667
1607.125	1147.41667
1610.144	1127.75
1613.16	1114.08333
1616.174	1101.41667
1619.186	1090.08333
1622.196	1077.75
1625.203	1044.75
1628.209	1063.08333
1631.212	1048.75
1634.213	1059.75
1637.212	1077.75
1640.209	1075.41667
1643.203	1060.41667
1646.196	1025.41667
1649.186	988.75
1652.174	947.08333
1655.16	913.08333
1658.144	921.75
1661.125	863.75
1664.105	822.41667
1667.082	801.41667
1670.057	749.41667
1673.03	721.75
1676.001	681.75
1678.97	648.41667
1681.937	617.08333
1684.901	603.08333
1687.863	584.75
1690.824	560.08333
1693.782	561.41667
1696.738	523.41667
1699.692	539.75
1702.643	524.08333
1705.593	516.75
1708.54	516.41667
1711.486	528.41667
1714.429	501.08333
1717.37	510.41667
1720.309	491.75
1723.246	506.41667
1726.181	482.75
1729.113	488.08333
1732.044	492.41667
1734.972	475.41667
1737.899	490.41667
1740.823	495.41667
1743.745	508.41667
1746.665	466.41667
1749.583	470.75
1752.499	458.41667
1755.413	455.41667
1758.325	438.41667
1761.235	450.41667
1764.142	433.75
1767.048	440.41667
1769.951	437.41667
1772.852	434.75
1775.752	445.08333
1778.649	438.41667
1781.544	450.08333
1784.437	422.08333
1787.328	437.75
1790.217	428.75
1793.104	407.41667
1795.989	410.08333
1798.872	416.75
1801.753	430.75
1804.631	413.08333
1807.508	417.41667
1810.383	410.41667
1813.255	415.75
1816.126	408.41667
1818.994	407.41667
1821.861	397.75
1824.725	409.75
1827.587	410.75
1830.448	395.08333
1833.306	398.75
1836.162	401.41667
1839.017	390.75
1841.869	396.41667
1844.719	393.41667
1847.567	378.41667
1850.414	374.75
1853.258	371.41667
1856.1	384.41667
1858.94	400.41667
1861.778	380.75
1864.614	363.41667
1867.448	386.75
1870.28	369.41667
1873.111	394.75
1875.939	381.08333
1878.765	391.41667
1881.589	373.41667
1884.411	378.41667
1887.231	380.75
1890.049	366.41667
1892.865	390.41667
1895.68	366.08333
1898.492	368.08333
1901.302	366.75
1904.11	373.75
1906.916	371.41667
1909.721	356.41667
1912.523	371.41667
1915.323	357.41667
1918.122	351.75
1920.918	360.08333
1923.712	349.08333
1926.505	354.08333
1929.295	339.08333
1932.084	362.75
1934.87	352.08333
1937.655	345.75
1940.438	341.41667
1943.218	347.75
1945.997	354.41667
1948.774	352.75
1951.549	342.75
1954.322	341.41667
1957.093	343.41667
1959.862	339.08333
1962.629	337.41667
1965.394	336.41667
1968.157	324.75
1970.918	348.08333
1973.678	331.08333
1976.435	339.41667
1979.19	334.75
1981.944	324.08333
1984.696	333.75
1987.445	318.08333
1990.193	326.41667
1992.939	341.08333
1995.683	326.08333
1998.425	312.75
2001.165	338.08333
2003.903	312.75
2006.639	322.75
2009.374	326.08333
2012.106	324.08333
2014.837	292.75
2017.566	324.08333
2020.292	313.08333
2023.017	305.08333
2025.74	308.08333
2028.461	306.08333
2031.18	312.75
2033.898	308.41667
2036.613	301.41667
2039.327	309.41667
2042.038	309.08333
2044.748	303.75
2047.456	315.08333
2050.162	290.08333
2052.866	303.75
2055.568	308.41667
2058.268	297.41667
2060.967	309.75
2063.663	287.41667
2066.358	291.41667
2069.051	290.41667
2071.742	291.75
2074.431	305.08333
2077.118	287.75
2079.804	273.41667
2082.487	283.75
2085.169	302.08333
2087.849	321.08333
2090.527	282.75
2093.203	290.75
2095.877	288.08333
2098.55	286.08333
2101.22	295.41667
2103.889	300.41667
2106.556	285.75
2109.221	300.75
2111.884	290.41667
2114.546	317.75
2117.205	310.08333
2119.863	333.41667
2122.519	329.41667
2125.173	344.08333
2127.825	374.41667
2130.475	375.41667
2133.124	363.08333
2135.771	348.08333
2138.416	360.75
2141.059	335.41667
2143.7	335.41667
2146.339	313.75
2148.977	291.08333
2151.613	302.75
2154.247	301.41667
2156.879	290.75
2159.51	282.75
2162.138	284.75
2164.765	274.41667
2167.39	266.08333
2170.013	293.75
2172.634	284.08333
2175.254	271.08333
2177.872	312.41667
2180.488	266.08333
2183.102	273.41667
2185.714	271.75
2188.325	255.75
2190.934	270.75
2193.541	264.08333
2196.146	262.75
2198.75	252.41667
2201.351	243.75
2203.951	239.08333
2206.549	256.75
2209.146	247.08333
2211.74	242.75
2214.333	250.41667
2216.924	233.41667
2219.514	247.75
2222.101	250.41667
2224.687	252.41667
2227.271	230.08333
2229.853	239.75
2232.433	225.41667
2235.012	253.08333
2237.589	246.41667
2240.164	260.75
2242.738	233.41667
2245.309	231.08333
2247.879	245.41667
2250.448	249.41667
2253.014	223.08333
2255.579	219.41667
2258.142	224.75
2260.703	225.08333
2263.262	222.75
2265.82	217.75
2268.376	231.75
2270.93	225.75
2273.483	211.08333
2276.033	224.41667
2278.583	216.08333
2281.13	215.41667
2283.675	204.75
2286.219	214.41667
2288.761	222.08333
2291.302	212.41667
2293.841	233.75
2296.377	209.08333
2298.913	215.41667
2301.446	229.08333
2303.978	219.08333
2306.508	218.41667
2309.037	215.41667
2311.563	213.08333
2314.088	217.08333
2316.612	202.08333
2319.133	212.41667
2321.653	215.41667
2324.171	203.08333
2326.688	215.08333
2329.202	210.41667
2331.715	214.41667
2334.227	210.08333
2336.736	207.08333
2339.244	199.08333
2341.751	192.75
2344.255	209.41667
2346.758	208.75
2349.259	196.41667
2351.759	206.08333
2354.257	191.08333
2356.753	193.75
2359.247	192.41667
2361.74	198.75
2364.231	195.08333
2366.721	209.08333
2369.209	198.75
2371.695	195.75
2374.179	189.08333
2376.662	184.75
2379.143	203.41667
2381.622	196.08333
2384.1	196.75
2386.576	190.75
2389.051	203.75
2391.524	207.08333
2393.995	201.75
2396.464	190.08333
2398.932	187.75
2401.398	199.41667
2403.863	188.08333
2406.325	191.75
2408.787	193.41667
2411.246	186.41667
2413.704	192.41667
2416.16	186.75
2418.615	185.75
2421.068	188.75
2423.519	187.08333
2425.969	176.75
2428.417	198.75
2430.863	207.08333
2433.308	194.08333
2435.751	190.75
2438.193	190.08333
2440.633	189.41667
2443.071	195.75
2445.508	181.41667
2447.943	180.08333
2450.376	180.41667
2452.808	190.41667
2455.238	176.08333
2457.667	209.08333
2460.093	175.75
2462.519	172.41667
2464.942	174.41667
2467.365	187.41667
2469.785	185.08333
2472.204	174.08333
2474.621	179.08333
2477.037	192.75
2479.451	171.08333
2481.863	167.75
2484.274	171.41667
2486.683	178.08333
2489.091	188.41667
2491.497	181.08333
2493.901	177.75
2496.304	168.41667
2498.705	184.41667
2501.105	176.41667
2503.503	192.75
2505.899	166.75
2508.294	191.08333
2510.687	171.08333
2513.079	171.75
2515.469	166.41667
2517.858	173.75
2520.245	183.41667
2522.63	170.08333
2525.014	167.08333
2527.396	163.75
2529.776	170.41667
2532.156	179.41667
2534.533	160.75
2536.909	164.41667
2539.283	152.41667
2541.656	167.75
2544.027	188.41667
2546.397	170.08333
2548.765	169.75
2551.131	167.08333
2553.496	173.41667
2555.86	174.75
2558.221	177.08333
2560.582	163.08333
2562.94	158.41667
2565.298	168.08333
2567.653	178.41667
2570.007	154.41667
2572.36	171.41667
2574.711	157.75
2577.06	179.75
2579.408	166.08333
2581.754	158.08333
2584.099	161.08333
2586.442	161.75
2588.784	168.75
2591.124	161.41667
2593.463	160.08333
2595.8	167.08333
2598.135	149.75
2600.469	156.08333
2602.802	177.08333
2605.133	171.75
2607.462	158.75
2609.79	154.08333
2612.116	173.41667
2614.441	161.41667
2616.764	162.41667
2619.086	168.41667
2621.406	152.75
2623.725	167.08333
2626.042	160.41667
2628.358	155.75
2630.672	156.41667
2632.985	175.08333
2635.296	163.75
2637.606	164.08333
2639.914	157.08333
2642.22	154.08333
2644.525	161.41667
2646.829	158.08333
2649.131	172.08333
2651.432	171.75
2653.731	159.75
2656.028	172.08333
2658.324	164.41667
2660.619	152.41667
2662.912	168.41667
2665.204	147.08333
2667.494	165.41667
2669.782	156.08333
2672.07	171.08333
2674.355	173.41667
2676.639	168.75
2678.922	155.08333
2681.203	166.41667
2683.483	156.75
2685.761	151.41667
2688.038	167.41667
2690.313	162.41667
2692.587	159.08333
2694.859	159.08333
2697.13	159.41667
2699.399	164.75
2701.667	168.08333
2703.933	163.75
2706.198	169.08333
2708.461	172.41667
2710.723	166.41667
2712.984	173.08333
2715.243	175.75
2717.5	166.75
2719.757	171.75
2722.011	157.75
2724.264	173.75
2726.516	178.75
2728.766	156.75
2731.015	163.41667
2733.262	163.41667
2735.508	162.41667
2737.753	174.41667
2739.996	154.08333
2742.237	157.41667
2744.477	169.75
2746.716	178.08333
2748.953	175.08333
2751.189	176.41667
2753.423	168.75
2755.656	161.41667
2757.887	158.75
2760.117	156.75
2762.346	157.08333
2764.573	150.75
2766.798	151.08333
2769.022	155.75
2771.245	148.75
2773.467	155.08333
2775.686	153.08333
2777.905	160.41667
2780.122	154.08333
2782.337	165.08333
2784.552	154.41667
2786.764	163.08333
2788.976	157.41667
2791.186	155.75
2793.394	161.08333
2795.601	166.08333
2797.807	171.75
2800.011	160.75
2802.214	171.08333
2804.415	169.41667
2806.615	164.08333
2808.814	172.41667
2811.011	171.41667
2813.206	167.75
2815.401	169.75
2817.594	175.75
2819.785	178.75
2821.975	161.08333
2824.164	169.41667
2826.351	165.08333
2828.537	188.41667
2830.722	182.08333
2832.905	178.08333
2835.086	183.41667
2837.267	203.08333
2839.445	199.41667
2841.623	198.41667
2843.799	202.75
2845.974	204.41667
2848.147	216.41667
2850.319	227.08333
2852.489	232.41667
2854.659	233.75
2856.826	241.08333
2858.993	254.41667
2861.158	230.41667
2863.321	239.08333
2865.483	257.08333
2867.644	246.75
2869.804	243.41667
2871.962	242.75
2874.118	247.08333
2876.274	250.08333
2878.428	246.75
2880.58	244.75
2882.731	231.41667
2884.881	246.41667
2887.03	248.08333
2889.177	242.75
2891.322	255.75
2893.467	243.08333
2895.61	238.41667
2897.751	259.75
2899.892	249.75
2902.03	250.41667
2904.168	244.08333
2906.304	249.08333
2908.439	271.41667
2910.572	250.41667
2912.704	256.41667
2914.835	259.75
2916.965	255.75
2919.093	278.41667
2921.219	242.75
2923.345	274.75
2925.469	257.41667
2927.591	260.41667
2929.712	238.08333
2931.832	252.75
2933.951	243.41667
2936.068	236.08333
2938.184	235.08333
2940.299	229.75
2942.412	226.08333
2944.524	214.08333
2946.634	218.75
2948.744	199.08333
2950.851	237.08333
2952.958	206.41667
2955.063	209.75
2957.167	202.08333
2959.269	186.41667
2961.371	222.08333
2963.471	190.08333
2965.569	210.08333
2967.666	177.08333
2969.762	186.08333
2971.857	178.08333
2973.95	170.08333
2976.042	184.75
2978.133	173.75
2980.222	172.08333
2982.31	158.75
2984.396	146.41667
2986.482	155.75
2988.566	156.75
2990.648	154.08333
2992.73	162.08333
2994.81	141.75
2996.889	159.08333
2998.966	153.75
3001.042	162.41667
3003.117	146.41667
3005.191	161.41667
3007.263	160.75
3009.334	149.08333
3011.403	154.08333
3013.472	146.75
3015.539	163.08333
3017.604	170.41667
3019.669	143.08333
3021.732	145.41667
3023.794	146.08333
3025.854	130.41667
3027.914	133.08333
3029.971	136.41667
3032.028	141.41667
3034.083	142.08333
3036.137	140.08333
3038.19	134.08333
3040.242	121.08333
3042.292	122.41667
3044.341	129.41667
3046.388	144.08333
3048.435	124.75
3050.48	139.75
3052.524	128.41667
3054.566	111.41667
3056.607	129.75
3058.647	121.41667
3060.686	110.75
3062.723	105.08333
3064.759	110.75
3066.794	0.41667
3068.828	1.08333
3070.86	1.41667
