-0.839	127.70833
3.438	145.04167
7.711	62.04167
11.981	41.375
16.247	31.375
20.509	39.70833
24.768	33.70833
29.024	45.04167
33.276	32.04167
37.524	42.04167
41.769	31.70833
46.01	28.375
50.247	45.04167
54.481	51.04167
58.712	51.70833
62.939	34.70833
67.162	55.04167
71.382	47.04167
75.599	37.04167
79.812	43.04167
84.021	60.70833
88.227	42.70833
92.429	53.70833
96.628	37.375
100.823	54.70833
105.015	54.70833
109.204	46.375
113.388	57.375
117.57	47.04167
121.748	58.04167
125.922	47.70833
130.093	63.04167
134.261	66.04167
138.425	57.04167
142.585	82.70833
146.742	63.04167
150.896	82.04167
155.046	74.70833
159.193	110.04167
163.336	154.70833
167.476	265.70833
171.613	481.375
175.746	766.04167
179.875	1128.375
184.002	1475.375
188.124	1763.04167
192.244	1837.375
196.36	1854.70833
200.472	1867.04167
204.581	1867.70833
208.687	1806.70833
212.79	1809.04167
216.889	1833.375
220.984	1873.04167
225.077	1876.04167
229.165	1891.04167
233.251	1914.70833
237.333	1916.04167
241.412	1905.70833
245.487	1899.70833
249.559	1883.375
253.628	1882.375
257.694	1837.04167
261.756	1856.70833
265.814	1821.375
269.87	1770.70833
273.922	1706.70833
277.97	1688.375
282.016	1672.375
286.058	1602.375
290.097	1654.375
294.132	1658.04167
298.164	1652.375
302.193	1605.04167
306.219	1525.375
310.241	1418.04167
314.26	1341.375
318.276	1271.70833
322.288	1230.70833
326.297	1199.04167
330.303	1168.70833
334.305	1157.04167
338.305	1139.375
342.301	1127.375
346.294	1124.70833
350.283	1130.04167
354.269	1128.70833
358.252	1102.70833
362.232	1117.04167
366.209	1114.70833
370.182	1116.375
374.152	1092.375
378.119	1112.04167
382.083	1094.04167
386.043	1118.04167
390	1109.04167
393.954	1105.04167
397.905	1103.70833
401.852	1130.04167
405.797	1106.04167
409.738	1102.70833
413.676	1117.70833
417.61	1132.70833
421.542	1111.04167
425.47	1070.375
429.396	1071.375
433.318	1066.04167
437.236	1058.375
441.152	1102.375
445.065	1042.70833
448.974	1055.70833
452.88	1045.70833
456.783	1040.375
460.683	1035.70833
464.58	1053.70833
468.473	1062.375
472.364	1042.04167
476.251	1039.375
480.135	1052.375
484.016	1055.04167
487.894	1059.375
491.769	1070.04167
495.641	1057.04167
499.509	1062.70833
503.375	1065.04167
507.237	1057.70833
511.096	1044.375
514.952	1055.70833
518.805	1062.375
522.655	1055.70833
526.502	1036.375
530.346	1063.375
534.187	1052.70833
538.024	1050.70833
541.859	1021.375
545.69	1060.70833
549.519	1053.70833
553.344	1032.70833
557.166	1020.70833
560.985	1021.375
564.802	1025.70833
568.615	1008.375
572.425	984.375
576.232	981.375
580.036	975.70833
583.836	999.04167
587.634	1002.04167
591.429	993.04167
595.221	1023.70833
599.01	1013.04167
602.796	1003.70833
606.578	1015.04167
610.358	1017.70833
614.135	1011.375
617.909	1019.70833
621.679	1007.04167
625.447	999.70833
629.212	1001.04167
632.973	999.375
636.732	999.375
640.488	1003.04167
644.241	973.70833
647.991	989.375
651.737	1014.70833
655.481	983.04167
659.222	1000.70833
662.96	994.70833
666.695	1005.375
670.427	989.375
674.156	1003.70833
677.882	993.375
681.605	989.375
685.325	981.04167
689.043	1004.70833
692.757	985.375
696.468	985.375
700.177	982.70833
703.882	971.70833
707.585	953.375
711.284	959.375
714.981	960.04167
718.675	939.04167
722.366	966.04167
726.054	937.375
729.739	950.04167
733.421	953.375
737.1	940.375
740.777	945.70833
744.45	954.375
748.121	957.375
751.789	990.375
755.453	972.04167
759.115	972.375
762.774	963.04167
766.431	972.375
770.084	976.375
773.734	984.70833
777.382	996.70833
781.027	994.04167
784.669	989.375
788.308	985.375
791.944	1007.375
795.577	1000.70833
799.208	1009.375
802.835	1010.04167
806.46	1030.04167
810.082	1031.375
813.701	1019.70833
817.317	1054.375
820.931	1038.04167
824.542	1028.70833
828.149	1017.70833
831.754	999.70833
835.357	991.04167
838.956	1010.04167
842.553	994.375
846.146	987.70833
849.737	962.375
853.326	970.375
856.911	954.70833
860.493	984.04167
864.073	981.70833
867.65	1011.70833
871.225	1009.375
874.796	999.04167
878.365	986.70833
881.931	1013.70833
885.494	1012.04167
889.054	997.70833
892.612	1002.70833
896.166	970.04167
899.719	987.70833
903.268	956.04167
906.814	969.375
910.358	952.70833
913.899	957.375
917.438	965.70833
920.973	928.04167
924.506	943.70833
928.036	974.70833
931.564	979.375
935.088	991.04167
938.61	973.04167
942.129	981.04167
945.646	991.375
949.16	996.70833
952.671	1011.04167
956.179	1034.04167
959.685	1032.04167
963.188	1047.04167
966.688	1038.70833
970.185	998.70833
973.68	973.375
977.173	958.375
980.662	951.70833
984.149	963.04167
987.633	941.375
991.114	967.70833
994.593	965.70833
998.069	977.04167
1001.542	1022.70833
1005.013	1002.70833
1008.481	941.70833
1011.947	940.70833
1015.409	919.375
1018.869	925.04167
1022.327	919.375
1025.782	921.70833
1029.234	903.375
1032.683	897.70833
1036.13	879.04167
1039.574	842.04167
1043.016	826.70833
1046.455	828.70833
1049.891	809.70833
1053.325	820.70833
1056.756	810.375
1060.184	808.04167
1063.61	793.04167
1067.033	819.70833
1070.454	805.04167
1073.872	831.375
1077.287	803.375
1080.7	810.04167
1084.11	815.375
1087.517	809.70833
1090.922	810.70833
1094.325	783.375
1097.724	779.375
1101.122	772.70833
1104.516	776.04167
1107.908	763.375
1111.298	773.70833
1114.684	792.375
1118.069	780.04167
1121.45	811.70833
1124.83	778.04167
1128.206	796.70833
1131.58	800.70833
1134.951	818.04167
1138.32	830.375
1141.687	857.375
1145.05	877.04167
1148.412	879.375
1151.77	876.70833
1155.126	884.375
1158.48	864.04167
1161.831	857.70833
1165.18	880.70833
1168.525	888.04167
1171.869	880.04167
1175.21	883.375
1178.548	904.70833
1181.884	895.70833
1185.217	908.375
1188.548	936.375
1191.877	949.04167
1195.202	985.375
1198.526	982.375
1201.846	991.375
1205.165	1001.375
1208.48	1000.375
1211.794	991.70833
1215.104	992.375
1218.413	981.70833
1221.719	974.70833
1225.022	967.04167
1228.323	948.70833
1231.621	955.375
1234.917	951.04167
1238.21	960.04167
1241.501	948.375
1244.79	951.04167
1248.076	925.375
1251.359	944.375
1254.64	987.04167
1257.919	964.375
1261.195	974.70833
1264.468	989.04167
1267.74	996.70833
1271.008	1000.04167
1274.275	997.70833
1277.538	996.375
1280.8	995.04167
1284.059	987.04167
1287.315	1000.375
1290.569	1009.04167
1293.821	1001.04167
1297.07	1016.04167
1300.317	1017.04167
1303.562	1019.04167
1306.803	1004.70833
1310.043	1017.375
1313.28	992.04167
1316.515	988.70833
1319.747	1002.375
1322.977	990.375
1326.204	994.70833
1329.429	968.375
1332.652	989.375
1335.872	995.375
1339.09	965.375
1342.306	962.04167
1345.519	960.04167
1348.729	948.70833
1351.938	962.04167
1355.144	943.70833
1358.347	928.04167
1361.548	944.04167
1364.747	938.70833
1367.944	925.70833
1371.138	935.04167
1374.329	913.70833
1377.518	905.70833
1380.705	915.04167
1383.89	913.375
1387.072	881.375
1390.252	871.375
1393.429	840.375
1396.605	818.375
1399.777	786.70833
1402.948	784.70833
1406.116	779.70833
1409.282	784.70833
1412.445	778.70833
1415.606	784.70833
1418.765	777.375
1421.921	800.04167
1425.075	808.375
1428.227	827.375
1431.376	853.70833
1434.524	879.70833
1437.668	917.04167
1440.811	909.70833
1443.951	905.70833
1447.089	922.70833
1450.224	912.375
1453.357	911.04167
1456.488	911.70833
1459.617	885.04167
1462.743	889.375
1465.867	857.375
1468.989	868.70833
1472.108	842.04167
1475.225	845.04167
1478.34	850.04167
1481.453	818.04167
1484.563	815.70833
1487.671	829.70833
1490.776	846.04167
1493.88	846.70833
1496.981	862.04167
1500.08	862.375
1503.176	876.70833
1506.271	865.04167
1509.363	902.375
1512.452	895.70833
1515.54	895.375
1518.625	918.04167
1521.708	933.70833
1524.789	964.04167
1527.867	987.70833
1530.944	1038.70833
1534.018	1056.04167
1537.089	1099.375
1540.159	1117.04167
1543.226	1113.70833
1546.291	1082.04167
1549.354	1051.375
1552.415	1033.04167
1555.473	1028.375
1558.529	1011.70833
1561.583	1000.04167
1564.634	1002.70833
1567.684	986.04167
1570.731	999.04167
1573.776	1011.04167
1576.819	1019.375
1579.859	1026.375
1582.898	1049.375
1585.934	1058.375
1588.968	1057.04167
1591.999	1035.70833
1595.029	1037.04167
1598.056	1053.375
1601.081	1060.375
1604.104	1062.04167
1607.125	1043.70833
1610.144	1026.70833
1613.16	993.70833
1616.174	984.04167
1619.186	977.70833
1622.196	959.04167
1625.203	925.04167
1628.209	936.375
1631.212	934.04167
1634.213	942.375
1637.212	952.70833
1640.209	963.70833
1643.203	928.70833
1646.196	888.70833
1649.186	858.375
1652.174	842.04167
1655.16	815.70833
1658.144	807.375
1661.125	771.375
1664.105	731.375
1667.082	698.70833
1670.057	650.375
1673.03	624.375
1676.001	600.70833
1678.97	559.375
1681.937	532.70833
1684.901	503.04167
1687.863	503.70833
1690.824	467.70833
1693.782	490.04167
1696.738	454.375
1699.692	446.70833
1702.643	430.70833
1705.593	437.70833
1708.54	427.04167
1711.486	435.70833
1714.429	415.04167
1717.37	434.04167
1720.309	409.04167
1723.246	420.70833
1726.181	401.375
1729.113	403.375
1732.044	404.375
1734.972	402.04167
1737.899	404.375
1740.823	414.70833
1743.745	425.70833
1746.665	388.375
1749.583	377.70833
1752.499	389.375
1755.413	376.70833
1758.325	368.70833
1761.235	378.375
1764.142	350.04167
1767.048	358.375
1769.951	364.70833
1772.852	359.04167
1775.752	379.375
1778.649	368.70833
1781.544	379.70833
1784.437	349.70833
1787.328	357.04167
1790.217	351.375
1793.104	329.375
1795.989	340.375
1798.872	336.04167
1801.753	346.375
1804.631	343.70833
1807.508	349.70833
1810.383	333.70833
1813.255	342.04167
1816.126	337.375
1818.994	336.04167
1821.861	336.04167
1824.725	332.375
1827.587	339.04167
1830.448	324.375
1833.306	322.04167
1836.162	336.04167
1839.017	326.375
1841.869	319.375
1844.719	320.04167
1847.567	311.375
1850.414	303.70833
1853.258	306.70833
1856.1	325.70833
1858.94	330.70833
1861.778	317.70833
1864.614	309.375
1867.448	315.70833
1870.28	299.70833
1873.111	326.70833
1875.939	306.375
1878.765	329.70833
1881.589	300.04167
1884.411	311.04167
1887.231	322.04167
1890.049	312.04167
1892.865	327.375
1895.68	305.70833
1898.492	310.04167
1901.302	300.70833
1904.11	302.375
1906.916	302.04167
1909.721	299.375
1912.523	313.375
1915.323	287.04167
1918.122	286.04167
1920.918	308.70833
1923.712	288.70833
1926.505	307.04167
1929.295	277.04167
1932.084	299.375
1934.87	301.375
1937.655	287.70833
1940.438	278.70833
1943.218	285.375
1945.997	294.375
1948.774	297.375
1951.549	295.375
1954.322	283.04167
1957.093	287.70833
1959.862	281.70833
1962.629	280.375
1965.394	281.70833
1968.157	269.375
1970.918	296.375
1973.678	273.375
1976.435	288.375
1979.19	274.375
1981.944	261.04167
1984.696	270.70833
1987.445	261.04167
1990.193	274.70833
1992.939	278.70833
1995.683	282.04167
1998.425	252.04167
2001.165	291.375
2003.903	258.375
2006.639	265.70833
2009.374	273.375
2012.106	273.04167
2014.837	249.375
2017.566	272.375
2020.292	266.04167
2023.017	260.70833
2025.74	255.04167
2028.461	252.04167
2031.18	263.375
2033.898	253.04167
2036.613	255.04167
2039.327	267.375
2042.038	251.70833
2044.748	256.375
2047.456	263.04167
2050.162	251.70833
2052.866	254.375
2055.568	265.04167
2058.268	246.375
2060.967	258.375
2063.663	232.04167
2066.358	245.375
2069.051	245.70833
2071.742	248.70833
2074.431	257.375
2077.118	247.04167
2079.804	236.70833
2082.487	240.04167
2085.169	253.04167
2087.849	265.70833
2090.527	239.70833
2093.203	247.04167
2095.877	245.70833
2098.55	243.375
2101.22	256.375
2103.889	251.04167
2106.556	249.04167
2109.221	262.375
2111.884	251.70833
2114.546	271.04167
2117.205	282.04167
2119.863	301.70833
2122.519	293.04167
2125.173	311.375
2127.825	343.375
2130.475	343.04167
2133.124	329.04167
2135.771	317.04167
2138.416	333.375
2141.059	298.375
2143.7	309.70833
2146.339	284.375
2148.977	258.04167
2151.613	265.375
2154.247	264.04167
2156.879	253.375
2159.51	243.04167
2162.138	247.375
2164.765	243.375
2167.39	237.70833
2170.013	258.375
2172.634	247.04167
2175.254	229.70833
2177.872	274.375
2180.488	220.04167
2183.102	231.04167
2185.714	228.04167
2188.325	222.70833
2190.934	229.375
2193.541	232.04167
2196.146	224.04167
2198.75	220.04167
2201.351	219.375
2203.951	201.70833
2206.549	221.375
2209.146	220.70833
2211.74	208.375
2214.333	217.04167
2216.924	201.04167
2219.514	203.70833
2222.101	204.70833
2224.687	218.04167
2227.271	200.70833
2229.853	203.375
2232.433	187.70833
2235.012	209.375
2237.589	207.375
2240.164	218.375
2242.738	199.04167
2245.309	195.70833
2247.879	207.375
2250.448	208.375
2253.014	191.375
2255.579	173.70833
2258.142	194.70833
2260.703	193.04167
2263.262	184.04167
2265.82	183.375
2268.376	199.70833
2270.93	182.70833
2273.483	180.375
2276.033	194.375
2278.583	182.70833
2281.13	185.70833
2283.675	170.70833
2286.219	175.375
2288.761	188.04167
2291.302	196.04167
2293.841	197.70833
2296.377	175.04167
2298.913	183.04167
2301.446	194.04167
2303.978	182.70833
2306.508	181.04167
2309.037	180.04167
2311.563	180.04167
2314.088	184.04167
2316.612	165.70833
2319.133	184.04167
2321.653	187.375
2324.171	174.70833
2326.688	183.04167
2329.202	175.04167
2331.715	179.375
2334.227	178.375
2336.736	179.70833
2339.244	169.70833
2341.751	157.04167
2344.255	175.04167
2346.758	174.04167
2349.259	163.375
2351.759	170.70833
2354.257	169.04167
2356.753	160.70833
2359.247	163.375
2361.74	170.04167
2364.231	170.375
2366.721	177.04167
2369.209	161.70833
2371.695	167.70833
2374.179	160.04167
2376.662	153.375
2379.143	175.70833
2381.622	159.375
2384.1	168.70833
2386.576	157.04167
2389.051	173.70833
2391.524	171.70833
2393.995	171.70833
2396.464	160.04167
2398.932	156.70833
2401.398	166.04167
2403.863	152.375
2406.325	156.04167
2408.787	165.04167
2411.246	164.375
2413.704	159.375
2416.16	157.375
2418.615	156.375
2421.068	154.375
2423.519	159.375
2425.969	152.70833
2428.417	168.04167
2430.863	182.375
2433.308	165.375
2435.751	158.375
2438.193	158.375
2440.633	163.04167
2443.071	165.04167
2445.508	151.375
2447.943	153.04167
2450.376	149.70833
2452.808	154.04167
2455.238	144.04167
2457.667	183.375
2460.093	144.375
2462.519	141.70833
2464.942	145.70833
2467.365	153.04167
2469.785	159.04167
2472.204	144.70833
2474.621	150.375
2477.037	163.04167
2479.451	143.04167
2481.863	142.04167
2484.274	141.70833
2486.683	153.375
2489.091	156.04167
2491.497	150.375
2493.901	152.04167
2496.304	145.04167
2498.705	155.70833
2501.105	150.04167
2503.503	166.04167
2505.899	143.375
2508.294	162.04167
2510.687	140.04167
2513.079	143.04167
2515.469	142.70833
2517.858	135.04167
2520.245	157.70833
2522.63	143.375
2525.014	141.04167
2527.396	134.375
2529.776	140.04167
2532.156	146.375
2534.533	135.04167
2536.909	133.04167
2539.283	123.04167
2541.656	133.375
2544.027	150.04167
2546.397	144.70833
2548.765	140.375
2551.131	141.70833
2553.496	142.375
2555.86	145.375
2558.221	148.04167
2560.582	140.04167
2562.94	123.04167
2565.298	139.04167
2567.653	151.04167
2570.007	128.375
2572.36	142.375
2574.711	128.04167
2577.06	148.04167
2579.408	140.70833
2581.754	134.70833
2584.099	136.04167
2586.442	130.04167
2588.784	143.04167
2591.124	136.04167
2593.463	128.70833
2595.8	141.375
2598.135	124.375
2600.469	125.70833
2602.802	136.04167
2605.133	140.04167
2607.462	120.375
2609.79	118.04167
2612.116	140.70833
2614.441	135.375
2616.764	131.04167
2619.086	127.375
2621.406	122.375
2623.725	143.70833
2626.042	131.375
2628.358	121.04167
2630.672	134.04167
2632.985	139.375
2635.296	132.70833
2637.606	130.375
2639.914	127.70833
2642.22	130.375
2644.525	133.04167
2646.829	132.70833
2649.131	141.70833
2651.432	139.04167
2653.731	128.04167
2656.028	141.375
2658.324	135.375
2660.619	121.375
2662.912	138.70833
2665.204	115.70833
2667.494	134.375
2669.782	124.375
2672.07	138.70833
2674.355	137.70833
2676.639	133.70833
2678.922	124.70833
2681.203	136.375
2683.483	122.04167
2685.761	116.70833
2688.038	141.70833
2690.313	146.70833
2692.587	135.70833
2694.859	124.70833
2697.13	133.375
2699.399	130.375
2701.667	135.375
2703.933	131.70833
2706.198	146.70833
2708.461	142.70833
2710.723	135.04167
2712.984	138.70833
2715.243	137.70833
2717.5	134.70833
2719.757	142.375
2722.011	133.04167
2724.264	142.70833
2726.516	152.375
2728.766	130.70833
2731.015	136.04167
2733.262	131.375
2735.508	127.375
2737.753	139.04167
2739.996	128.375
2742.237	129.04167
2744.477	139.04167
2746.716	145.375
2748.953	139.375
2751.189	142.70833
2753.423	135.04167
2755.656	127.375
2757.887	123.375
2760.117	130.375
2762.346	122.70833
2764.573	116.04167
2766.798	128.04167
2769.022	124.70833
2771.245	122.70833
2773.467	124.04167
2775.686	124.375
2777.905	138.04167
2780.122	127.375
2782.337	130.04167
2784.552	121.70833
2786.764	127.70833
2788.976	122.70833
2791.186	127.04167
2793.394	128.04167
2795.601	133.375
2797.807	140.375
2800.011	139.04167
2802.214	139.375
2804.415	134.70833
2806.615	135.375
2808.814	135.70833
2811.011	139.375
2813.206	137.375
2815.401	147.04167
2817.594	144.04167
2819.785	149.70833
2821.975	130.70833
2824.164	137.375
2826.351	141.375
2828.537	154.04167
2830.722	150.375
2832.905	144.70833
2835.086	153.04167
2837.267	172.04167
2839.445	161.70833
2841.623	166.375
2843.799	168.70833
2845.974	174.375
2848.147	178.70833
2850.319	192.04167
2852.489	196.70833
2854.659	206.04167
2856.826	201.70833
2858.993	220.70833
2861.158	195.04167
2863.321	206.375
2865.483	219.375
2867.644	215.04167
2869.804	209.375
2871.962	207.375
2874.118	210.70833
2876.274	219.70833
2878.428	214.70833
2880.58	213.375
2882.731	209.04167
2884.881	208.70833
2887.03	215.70833
2889.177	212.70833
2891.322	219.04167
2893.467	207.375
2895.61	202.375
2897.751	224.70833
2899.892	213.375
2902.03	215.04167
2904.168	212.70833
2906.304	215.70833
2908.439	233.375
2910.572	216.375
2912.704	225.375
2914.835	224.04167
2916.965	221.04167
2919.093	243.04167
2921.219	207.04167
2923.345	239.375
2925.469	224.375
2927.591	213.70833
2929.712	208.375
2931.832	215.375
2933.951	207.04167
2936.068	207.375
2938.184	201.70833
2940.299	197.70833
2942.412	187.375
2944.524	178.04167
2946.634	186.70833
2948.744	160.70833
2950.851	195.375
2952.958	157.70833
2955.063	169.04167
2957.167	158.04167
2959.269	147.04167
2961.371	174.375
2963.471	153.375
2965.569	169.04167
2967.666	141.04167
2969.762	145.375
2971.857	135.04167
2973.95	134.375
2976.042	141.04167
2978.133	137.04167
2980.222	135.04167
2982.31	121.70833
2984.396	107.04167
2986.482	120.375
2988.566	120.70833
2990.648	125.375
2992.73	120.375
2994.81	103.04167
2996.889	122.04167
2998.966	115.70833
3001.042	128.70833
3003.117	113.04167
3005.191	123.04167
3007.263	121.04167
3009.334	111.70833
3011.403	119.70833
3013.472	110.04167
3015.539	122.04167
3017.604	132.70833
3019.669	98.70833
3021.732	105.375
3023.794	110.04167
3025.854	98.70833
3027.914	98.70833
3029.971	96.375
3032.028	104.375
3034.083	112.70833
3036.137	111.70833
3038.19	89.375
3040.242	91.04167
3042.292	88.70833
3044.341	96.375
3046.388	110.70833
3048.435	84.70833
3050.48	109.375
3052.524	100.70833
3054.566	79.375
3056.607	93.04167
3058.647	87.70833
3060.686	79.375
3062.723	75.04167
3064.759	77.04167
3066.794	-0.625
3068.828	-1.29167
3070.86	6.04167
