-0.839	140.375
3.438	161.70833
7.711	65.04167
11.981	46.04167
16.247	30.70833
20.509	37.70833
24.768	36.375
29.024	43.375
33.276	30.04167
37.524	41.04167
41.769	29.375
46.01	25.70833
50.247	46.04167
54.481	50.70833
58.712	54.70833
62.939	39.375
67.162	52.70833
71.382	45.375
75.599	39.04167
79.812	49.04167
84.021	67.04167
88.227	42.04167
92.429	49.70833
96.628	37.375
100.823	53.375
105.015	52.375
109.204	47.70833
113.388	61.375
117.57	47.04167
121.748	65.375
125.922	52.375
130.093	70.04167
134.261	61.375
138.425	57.70833
142.585	85.375
146.742	64.375
150.896	83.375
155.046	82.70833
159.193	119.70833
163.336	176.70833
167.476	307.375
171.613	557.375
175.746	910.70833
179.875	1327.04167
184.002	1720.375
188.124	2035.04167
192.244	2175.70833
196.36	2193.70833
200.472	2167.04167
204.581	2173.375
208.687	2136.70833
212.79	2138.70833
216.889	2183.70833
220.984	2196.70833
225.077	2242.04167
229.165	2263.70833
233.251	2280.70833
237.333	2284.70833
241.412	2265.70833
245.487	2267.04167
249.559	2243.70833
253.628	2234.04167
257.694	2203.70833
261.756	2190.70833
265.814	2165.70833
269.87	2094.375
273.922	2024.04167
277.97	1978.04167
282.016	1935.70833
286.058	1894.375
290.097	1874.70833
294.132	1888.375
298.164	1890.04167
302.193	1838.70833
306.219	1739.04167
310.241	1642.70833
314.26	1537.375
318.276	1444.375
322.288	1393.375
326.297	1361.375
330.303	1334.375
334.305	1308.70833
338.305	1305.04167
342.301	1304.70833
346.294	1279.04167
350.283	1288.70833
354.269	1278.375
358.252	1274.375
362.232	1277.04167
366.209	1270.70833
370.182	1255.70833
374.152	1266.04167
378.119	1261.04167
382.083	1238.04167
386.043	1267.375
390	1260.04167
393.954	1271.04167
397.905	1269.04167
401.852	1275.70833
405.797	1257.04167
409.738	1273.375
413.676	1303.04167
417.61	1297.375
421.542	1252.04167
425.47	1224.04167
429.396	1193.375
433.318	1191.375
437.236	1211.375
441.152	1233.70833
445.065	1178.04167
448.974	1207.04167
452.88	1195.70833
456.783	1180.04167
460.683	1179.375
464.58	1186.70833
468.473	1192.04167
472.364	1188.04167
476.251	1172.04167
480.135	1184.70833
484.016	1189.375
487.894	1203.70833
491.769	1209.375
495.641	1207.70833
499.509	1201.375
503.375	1202.04167
507.237	1189.04167
511.096	1194.375
514.952	1206.04167
518.805	1196.70833
522.655	1205.04167
526.502	1189.70833
530.346	1207.04167
534.187	1192.70833
538.024	1185.70833
541.859	1180.70833
545.69	1204.70833
549.519	1186.375
553.344	1187.375
557.166	1169.375
560.985	1167.04167
564.802	1156.70833
568.615	1150.04167
572.425	1132.375
576.232	1118.04167
580.036	1124.04167
583.836	1128.04167
587.634	1136.375
591.429	1142.375
595.221	1159.70833
599.01	1153.04167
602.796	1136.04167
606.578	1158.70833
610.358	1155.375
614.135	1148.04167
617.909	1154.375
621.679	1151.04167
625.447	1130.375
629.212	1132.04167
632.973	1140.70833
636.732	1144.70833
640.488	1141.04167
644.241	1116.375
647.991	1111.04167
651.737	1145.70833
655.481	1118.04167
659.222	1121.375
662.96	1131.04167
666.695	1134.70833
670.427	1127.04167
674.156	1141.04167
677.882	1134.70833
681.605	1133.375
685.325	1119.04167
689.043	1123.04167
692.757	1105.04167
696.468	1121.375
700.177	1109.70833
703.882	1088.70833
707.585	1078.375
711.284	1093.04167
714.981	1070.04167
718.675	1091.375
722.366	1101.375
726.054	1074.70833
729.739	1069.70833
733.421	1080.375
737.1	1081.375
740.777	1092.70833
744.45	1087.04167
748.121	1080.04167
751.789	1128.375
755.453	1099.70833
759.115	1115.70833
762.774	1113.70833
766.431	1113.04167
770.084	1116.04167
773.734	1111.04167
777.382	1143.04167
781.027	1134.04167
784.669	1136.04167
788.308	1133.375
791.944	1151.70833
795.577	1156.04167
799.208	1146.375
802.835	1159.375
806.46	1167.70833
810.082	1173.375
813.701	1168.70833
817.317	1188.70833
820.931	1191.04167
824.542	1194.70833
828.149	1147.375
831.754	1149.375
835.357	1140.04167
838.956	1144.70833
842.553	1144.04167
846.146	1139.375
849.737	1121.70833
853.326	1117.70833
856.911	1110.375
860.493	1143.375
864.073	1144.04167
867.65	1182.70833
871.225	1171.70833
874.796	1148.70833
878.365	1140.70833
881.931	1165.04167
885.494	1160.70833
889.054	1156.04167
892.612	1155.04167
896.166	1149.04167
899.719	1139.70833
903.268	1103.70833
906.814	1113.70833
910.358	1113.04167
913.899	1085.375
917.438	1099.04167
920.973	1073.375
924.506	1099.04167
928.036	1117.04167
931.564	1128.04167
935.088	1158.70833
938.61	1124.375
942.129	1133.70833
945.646	1134.04167
949.16	1138.04167
952.671	1170.04167
956.179	1202.70833
959.685	1186.70833
963.188	1195.70833
966.688	1199.70833
970.185	1146.04167
973.68	1135.70833
977.173	1113.04167
980.662	1096.04167
984.149	1109.04167
987.633	1082.70833
991.114	1111.04167
994.593	1122.04167
998.069	1146.375
1001.542	1169.375
1005.013	1160.04167
1008.481	1108.70833
1011.947	1076.375
1015.409	1072.375
1018.869	1069.375
1022.327	1064.04167
1025.782	1050.375
1029.234	1046.04167
1032.683	1040.375
1036.13	1000.70833
1039.574	974.375
1043.016	949.70833
1046.455	958.04167
1049.891	941.375
1053.325	935.70833
1056.756	920.375
1060.184	936.70833
1063.61	938.375
1067.033	949.70833
1070.454	939.70833
1073.872	970.04167
1077.287	926.04167
1080.7	935.375
1084.11	941.375
1087.517	939.375
1090.922	924.04167
1094.325	909.70833
1097.724	912.375
1101.122	904.70833
1104.516	910.04167
1107.908	888.70833
1111.298	912.375
1114.684	925.375
1118.069	926.70833
1121.45	936.70833
1124.83	921.70833
1128.206	932.04167
1131.58	950.375
1134.951	965.04167
1138.32	967.70833
1141.687	1025.70833
1145.05	1035.70833
1148.412	1037.70833
1151.77	1027.375
1155.126	1036.375
1158.48	1014.375
1161.831	1027.375
1165.18	1019.70833
1168.525	1043.04167
1171.869	1050.375
1175.21	1047.375
1178.548	1069.70833
1181.884	1085.70833
1185.217	1080.375
1188.548	1093.375
1191.877	1125.70833
1195.202	1164.375
1198.526	1182.375
1201.846	1165.375
1205.165	1160.04167
1208.48	1165.04167
1211.794	1167.04167
1215.104	1175.375
1218.413	1146.70833
1221.719	1156.04167
1225.022	1117.70833
1228.323	1119.04167
1231.621	1120.375
1234.917	1119.70833
1238.21	1139.375
1241.501	1113.375
1244.79	1100.70833
1248.076	1105.70833
1251.359	1109.375
1254.64	1153.04167
1257.919	1130.375
1261.195	1154.70833
1264.468	1164.04167
1267.74	1185.70833
1271.008	1172.70833
1274.275	1195.04167
1277.538	1189.70833
1280.8	1183.04167
1284.059	1168.04167
1287.315	1188.04167
1290.569	1164.04167
1293.821	1173.70833
1297.07	1184.70833
1300.317	1185.375
1303.562	1186.04167
1306.803	1180.375
1310.043	1185.04167
1313.28	1163.375
1316.515	1160.70833
1319.747	1174.04167
1322.977	1148.04167
1326.204	1142.375
1329.429	1132.04167
1332.652	1150.70833
1335.872	1142.70833
1339.09	1126.70833
1342.306	1122.04167
1345.519	1106.70833
1348.729	1118.70833
1351.938	1111.70833
1355.144	1088.375
1358.347	1079.04167
1361.548	1094.04167
1364.747	1087.04167
1367.944	1071.04167
1371.138	1081.04167
1374.329	1085.375
1377.518	1065.04167
1380.705	1077.04167
1383.89	1081.04167
1387.072	1036.70833
1390.252	1015.70833
1393.429	996.70833
1396.605	967.70833
1399.777	933.70833
1402.948	926.70833
1406.116	910.04167
1409.282	916.04167
1412.445	908.375
1415.606	931.70833
1418.765	919.70833
1421.921	933.375
1425.075	945.70833
1428.227	960.375
1431.376	1003.375
1434.524	1037.04167
1437.668	1055.70833
1440.811	1061.04167
1443.951	1074.375
1447.089	1080.04167
1450.224	1078.04167
1453.357	1058.70833
1456.488	1066.70833
1459.617	1054.70833
1462.743	1044.04167
1465.867	1005.375
1468.989	1006.70833
1472.108	994.375
1475.225	982.70833
1478.34	975.375
1481.453	972.04167
1484.563	976.04167
1487.671	990.04167
1490.776	998.04167
1493.88	1013.375
1496.981	1028.375
1500.08	1031.04167
1503.176	1029.70833
1506.271	1045.70833
1509.363	1073.04167
1512.452	1059.70833
1515.54	1075.04167
1518.625	1087.70833
1521.708	1128.70833
1524.789	1160.375
1527.867	1186.375
1530.944	1249.375
1534.018	1277.70833
1537.089	1325.70833
1540.159	1316.04167
1543.226	1325.375
1546.291	1285.375
1549.354	1262.04167
1552.415	1231.375
1555.473	1209.04167
1558.529	1191.70833
1561.583	1191.70833
1564.634	1181.04167
1567.684	1190.04167
1570.731	1184.375
1573.776	1192.04167
1576.819	1221.375
1579.859	1222.375
1582.898	1242.375
1585.934	1254.70833
1588.968	1264.04167
1591.999	1238.04167
1595.029	1224.70833
1598.056	1253.04167
1601.081	1264.04167
1604.104	1248.375
1607.125	1237.70833
1610.144	1228.70833
1613.16	1188.04167
1616.174	1171.70833
1619.186	1148.04167
1622.196	1145.375
1625.203	1105.70833
1628.209	1105.375
1631.212	1090.04167
1634.213	1111.375
1637.212	1134.70833
1640.209	1121.04167
1643.203	1079.04167
1646.196	1049.70833
1649.186	1007.70833
1652.174	972.04167
1655.16	939.375
1658.144	925.04167
1661.125	882.375
1664.105	840.375
1667.082	825.70833
1670.057	759.04167
1673.03	737.375
1676.001	700.70833
1678.97	641.70833
1681.937	635.70833
1684.901	601.375
1687.863	586.04167
1690.824	545.375
1693.782	553.70833
1696.738	524.04167
1699.692	533.04167
1702.643	500.375
1705.593	509.70833
1708.54	502.375
1711.486	515.70833
1714.429	487.70833
1717.37	499.375
1720.309	485.70833
1723.246	484.70833
1726.181	469.04167
1729.113	473.375
1732.044	470.375
1734.972	465.70833
1737.899	478.70833
1740.823	479.70833
1743.745	493.375
1746.665	461.375
1749.583	452.04167
1752.499	450.375
1755.413	430.70833
1758.325	425.375
1761.235	435.375
1764.142	424.375
1767.048	418.04167
1769.951	418.70833
1772.852	414.70833
1775.752	437.375
1778.649	437.70833
1781.544	445.04167
1784.437	405.375
1787.328	420.04167
1790.217	410.04167
1793.104	389.70833
1795.989	403.04167
1798.872	391.375
1801.753	417.04167
1804.631	401.04167
1807.508	401.375
1810.383	397.04167
1813.255	393.375
1816.126	394.70833
1818.994	385.375
1821.861	384.04167
1824.725	393.375
1827.587	387.70833
1830.448	393.04167
1833.306	368.375
1836.162	383.375
1839.017	370.70833
1841.869	385.375
1844.719	375.375
1847.567	357.04167
1850.414	360.04167
1853.258	359.04167
1856.1	376.375
1858.94	377.375
1861.778	371.70833
1864.614	356.375
1867.448	367.375
1870.28	351.04167
1873.111	380.70833
1875.939	368.375
1878.765	371.70833
1881.589	356.70833
1884.411	365.375
1887.231	369.375
1890.049	356.375
1892.865	373.375
1895.68	352.04167
1898.492	370.70833
1901.302	355.70833
1904.11	354.375
1906.916	345.04167
1909.721	349.70833
1912.523	351.70833
1915.323	340.04167
1918.122	334.04167
1920.918	353.04167
1923.712	330.375
1926.505	350.70833
1929.295	332.375
1932.084	342.04167
1934.87	343.70833
1937.655	337.375
1940.438	324.375
1943.218	332.04167
1945.997	334.04167
1948.774	340.04167
1951.549	348.04167
1954.322	334.70833
1957.093	330.04167
1959.862	319.70833
1962.629	338.70833
1965.394	330.375
1968.157	315.375
1970.918	335.375
1973.678	320.375
1976.435	329.375
1979.19	318.04167
1981.944	314.375
1984.696	320.04167
1987.445	308.375
1990.193	319.70833
1992.939	326.70833
1995.683	324.70833
1998.425	295.70833
2001.165	338.04167
2003.903	303.04167
2006.639	302.04167
2009.374	321.375
2012.106	320.04167
2014.837	289.04167
2017.566	313.04167
2020.292	310.375
2023.017	303.70833
2025.74	296.375
2028.461	297.375
2031.18	308.375
2033.898	298.375
2036.613	295.04167
2039.327	304.04167
2042.038	289.70833
2044.748	299.375
2047.456	314.04167
2050.162	293.70833
2052.866	290.04167
2055.568	298.70833
2058.268	295.70833
2060.967	296.375
2063.663	282.04167
2066.358	280.70833
2069.051	279.70833
2071.742	281.375
2074.431	297.70833
2077.118	282.70833
2079.804	275.375
2082.487	285.375
2085.169	296.04167
2087.849	311.70833
2090.527	283.70833
2093.203	287.04167
2095.877	287.04167
2098.55	291.04167
2101.22	288.375
2103.889	299.04167
2106.556	288.70833
2109.221	304.04167
2111.884	284.70833
2114.546	314.04167
2117.205	309.70833
2119.863	348.70833
2122.519	344.04167
2125.173	366.70833
2127.825	400.375
2130.475	410.04167
2133.124	385.375
2135.771	367.04167
2138.416	379.70833
2141.059	353.04167
2143.7	354.70833
2146.339	322.70833
2148.977	301.70833
2151.613	315.04167
2154.247	313.375
2156.879	304.04167
2159.51	286.375
2162.138	288.70833
2164.765	284.04167
2167.39	272.375
2170.013	301.04167
2172.634	300.375
2175.254	277.70833
2177.872	319.04167
2180.488	273.04167
2183.102	271.375
2185.714	267.70833
2188.325	260.70833
2190.934	270.04167
2193.541	270.70833
2196.146	263.70833
2198.75	245.70833
2201.351	248.375
2203.951	240.375
2206.549	253.04167
2209.146	248.04167
2211.74	241.04167
2214.333	249.04167
2216.924	234.04167
2219.514	250.375
2222.101	238.70833
2224.687	260.375
2227.271	231.70833
2229.853	232.375
2232.433	223.375
2235.012	244.70833
2237.589	236.04167
2240.164	255.70833
2242.738	239.375
2245.309	227.375
2247.879	238.70833
2250.448	241.70833
2253.014	223.70833
2255.579	217.04167
2258.142	227.04167
2260.703	226.04167
2263.262	226.04167
2265.82	212.70833
2268.376	232.04167
2270.93	220.70833
2273.483	207.70833
2276.033	222.375
2278.583	215.375
2281.13	212.375
2283.675	208.375
2286.219	213.04167
2288.761	219.70833
2291.302	220.70833
2293.841	229.70833
2296.377	203.375
2298.913	221.04167
2301.446	226.04167
2303.978	212.04167
2306.508	216.70833
2309.037	212.70833
2311.563	207.70833
2314.088	218.70833
2316.612	191.70833
2319.133	216.70833
2321.653	207.70833
2324.171	203.375
2326.688	217.70833
2329.202	207.70833
2331.715	216.375
2334.227	206.70833
2336.736	202.04167
2339.244	197.375
2341.751	182.375
2344.255	211.375
2346.758	205.70833
2349.259	193.70833
2351.759	210.375
2354.257	188.375
2356.753	193.70833
2359.247	191.04167
2361.74	201.04167
2364.231	201.70833
2366.721	201.70833
2369.209	204.04167
2371.695	202.70833
2374.179	193.70833
2376.662	184.70833
2379.143	204.04167
2381.622	194.375
2384.1	203.70833
2386.576	192.04167
2389.051	198.375
2391.524	205.375
2393.995	195.375
2396.464	191.70833
2398.932	187.70833
2401.398	192.04167
2403.863	184.04167
2406.325	187.70833
2408.787	188.70833
2411.246	191.375
2413.704	185.70833
2416.16	182.375
2418.615	186.375
2421.068	187.04167
2423.519	177.375
2425.969	175.70833
2428.417	191.70833
2430.863	209.04167
2433.308	191.375
2435.751	185.70833
2438.193	191.04167
2440.633	185.04167
2443.071	193.04167
2445.508	178.375
2447.943	179.70833
2450.376	179.375
2452.808	192.04167
2455.238	168.70833
2457.667	207.04167
2460.093	175.70833
2462.519	166.375
2464.942	169.04167
2467.365	185.04167
2469.785	183.70833
2472.204	172.375
2474.621	173.375
2477.037	189.375
2479.451	170.70833
2481.863	166.04167
2484.274	168.375
2486.683	173.70833
2489.091	189.375
2491.497	178.04167
2493.901	179.375
2496.304	173.375
2498.705	183.70833
2501.105	175.04167
2503.503	199.04167
2505.899	165.375
2508.294	189.375
2510.687	171.04167
2513.079	170.70833
2515.469	168.375
2517.858	165.375
2520.245	187.04167
2522.63	168.70833
2525.014	165.70833
2527.396	162.04167
2529.776	163.375
2532.156	175.70833
2534.533	161.375
2536.909	156.04167
2539.283	148.04167
2541.656	156.375
2544.027	182.70833
2546.397	173.375
2548.765	169.375
2551.131	166.375
2553.496	168.375
2555.86	167.70833
2558.221	166.70833
2560.582	164.70833
2562.94	157.04167
2565.298	165.375
2567.653	173.70833
2570.007	158.04167
2572.36	173.04167
2574.711	160.70833
2577.06	176.04167
2579.408	166.04167
2581.754	161.70833
2584.099	156.375
2586.442	158.04167
2588.784	170.04167
2591.124	163.04167
2593.463	157.375
2595.8	166.375
2598.135	152.04167
2600.469	150.375
2602.802	166.375
2605.133	172.70833
2607.462	146.70833
2609.79	151.375
2612.116	165.375
2614.441	162.375
2616.764	167.04167
2619.086	160.375
2621.406	154.375
2623.725	166.04167
2626.042	162.70833
2628.358	153.04167
2630.672	163.70833
2632.985	165.70833
2635.296	164.04167
2637.606	162.70833
2639.914	152.04167
2642.22	156.70833
2644.525	158.375
2646.829	159.04167
2649.131	168.70833
2651.432	164.04167
2653.731	156.04167
2656.028	167.04167
2658.324	167.70833
2660.619	154.04167
2662.912	172.04167
2665.204	149.375
2667.494	161.375
2669.782	149.70833
2672.07	161.70833
2674.355	168.04167
2676.639	167.70833
2678.922	157.375
2681.203	159.70833
2683.483	155.70833
2685.761	146.375
2688.038	166.375
2690.313	175.70833
2692.587	159.70833
2694.859	158.04167
2697.13	156.04167
2699.399	161.70833
2701.667	168.375
2703.933	163.70833
2706.198	172.70833
2708.461	171.04167
2710.723	171.70833
2712.984	162.70833
2715.243	170.375
2717.5	162.70833
2719.757	173.70833
2722.011	159.70833
2724.264	173.70833
2726.516	178.375
2728.766	164.70833
2731.015	167.04167
2733.262	162.70833
2735.508	158.375
2737.753	178.375
2739.996	152.04167
2742.237	159.04167
2744.477	174.70833
2746.716	178.04167
2748.953	172.375
2751.189	172.375
2753.423	166.04167
2755.656	157.70833
2757.887	155.70833
2760.117	154.04167
2762.346	156.70833
2764.573	140.04167
2766.798	151.70833
2769.022	152.70833
2771.245	151.70833
2773.467	153.04167
2775.686	149.375
2777.905	162.70833
2780.122	157.04167
2782.337	161.375
2784.552	149.375
2786.764	158.375
2788.976	148.04167
2791.186	158.04167
2793.394	159.70833
2795.601	162.04167
2797.807	167.04167
2800.011	170.04167
2802.214	166.70833
2804.415	169.375
2806.615	164.375
2808.814	167.70833
2811.011	171.70833
2813.206	162.04167
2815.401	181.04167
2817.594	182.70833
2819.785	183.70833
2821.975	170.04167
2824.164	173.375
2826.351	173.70833
2828.537	187.04167
2830.722	187.70833
2832.905	177.375
2835.086	190.375
2837.267	213.04167
2839.445	202.04167
2841.623	206.70833
2843.799	205.70833
2845.974	219.70833
2848.147	219.70833
2850.319	229.70833
2852.489	239.04167
2854.659	245.70833
2856.826	242.375
2858.993	265.375
2861.158	239.04167
2863.321	253.70833
2865.483	262.375
2867.644	259.375
2869.804	258.04167
2871.962	253.04167
2874.118	265.04167
2876.274	273.70833
2878.428	273.375
2880.58	265.04167
2882.731	254.375
2884.881	258.70833
2887.03	260.375
2889.177	266.70833
2891.322	261.70833
2893.467	259.04167
2895.61	260.375
2897.751	271.70833
2899.892	260.375
2902.03	269.70833
2904.168	264.04167
2906.304	266.70833
2908.439	284.70833
2910.572	268.04167
2912.704	265.04167
2914.835	271.04167
2916.965	273.04167
2919.093	289.70833
2921.219	260.04167
2923.345	286.70833
2925.469	273.70833
2927.591	269.70833
2929.712	254.04167
2931.832	268.70833
2933.951	255.04167
2936.068	251.70833
2938.184	249.375
2940.299	239.375
2942.412	239.04167
2944.524	214.70833
2946.634	231.375
2948.744	203.375
2950.851	236.375
2952.958	208.70833
2955.063	206.375
2957.167	208.70833
2959.269	189.375
2961.371	225.70833
2963.471	193.70833
2965.569	209.70833
2967.666	179.70833
2969.762	183.375
2971.857	177.70833
2973.95	166.375
2976.042	182.375
2978.133	171.375
2980.222	174.375
2982.31	165.70833
2984.396	145.375
2986.482	154.70833
2988.566	157.375
2990.648	162.04167
2992.73	157.375
2994.81	143.375
2996.889	161.375
2998.966	152.70833
3001.042	164.375
3003.117	151.04167
3005.191	154.70833
3007.263	157.04167
3009.334	153.04167
3011.403	154.70833
3013.472	138.70833
3015.539	159.375
3017.604	164.70833
3019.669	130.04167
3021.732	136.375
3023.794	142.70833
3025.854	138.375
3027.914	130.375
3029.971	133.04167
3032.028	140.375
3034.083	145.04167
3036.137	142.375
3038.19	126.70833
3040.242	117.04167
3042.292	121.70833
3044.341	127.70833
3046.388	139.70833
3048.435	115.375
3050.48	135.70833
3052.524	124.04167
3054.566	110.04167
3056.607	119.70833
3058.647	118.04167
3060.686	109.70833
3062.723	102.70833
3064.759	103.70833
3066.794	-1.95833
3068.828	0.70833
3070.86	4.04167
