-0.839	132.58333
3.438	152.58333
7.711	61.58333
11.981	42.91667
16.247	32.58333
20.509	38.25
24.768	34.58333
29.024	40.58333
33.276	30.91667
37.524	41.91667
41.769	28.91667
46.01	25.91667
50.247	43.25
54.481	49.91667
58.712	52.91667
62.939	32.91667
67.162	53.58333
71.382	43.58333
75.599	38.58333
79.812	44.58333
84.021	60.58333
88.227	43.58333
92.429	49.25
96.628	37.58333
100.823	50.91667
105.015	54.25
109.204	44.25
113.388	54.91667
117.57	40.25
121.748	60.25
125.922	48.25
130.093	60.91667
134.261	61.25
138.425	52.91667
142.585	80.91667
146.742	64.58333
150.896	76.25
155.046	76.58333
159.193	112.58333
163.336	159.58333
167.476	276.91667
171.613	497.91667
175.746	790.58333
179.875	1165.25
184.002	1498.58333
188.124	1773.91667
192.244	1878.91667
196.36	1884.58333
200.472	1877.25
204.581	1874.25
208.687	1814.25
212.79	1817.91667
216.889	1847.25
220.984	1851.91667
225.077	1882.25
229.165	1906.91667
233.251	1901.58333
237.333	1910.25
241.412	1885.25
245.487	1885.91667
249.559	1873.91667
253.628	1848.58333
257.694	1828.58333
261.756	1835.58333
265.814	1783.25
269.87	1731.91667
273.922	1675.58333
277.97	1651.91667
282.016	1629.91667
286.058	1579.58333
290.097	1607.25
294.132	1611.91667
298.164	1608.58333
302.193	1557.25
306.219	1473.91667
310.241	1382.58333
314.26	1302.25
318.276	1236.25
322.288	1194.25
326.297	1152.58333
330.303	1136.58333
334.305	1127.91667
338.305	1109.25
342.301	1110.25
346.294	1107.58333
350.283	1107.58333
354.269	1085.58333
358.252	1078.91667
362.232	1087.91667
366.209	1075.91667
370.182	1086.58333
374.152	1075.58333
378.119	1085.25
382.083	1062.25
386.043	1078.91667
390	1071.58333
393.954	1069.58333
397.905	1068.91667
401.852	1099.58333
405.797	1074.91667
409.738	1079.25
413.676	1070.25
417.61	1078.58333
421.542	1065.25
425.47	1045.25
429.396	1043.58333
433.318	1027.58333
437.236	1039.58333
441.152	1055.58333
445.065	1022.91667
448.974	1027.91667
452.88	1018.25
456.783	1006.25
460.683	1010.91667
464.58	1011.25
468.473	1026.58333
472.364	1028.91667
476.251	1009.91667
480.135	1016.25
484.016	1033.25
487.894	1030.25
491.769	1036.58333
495.641	1027.58333
499.509	1034.25
503.375	1043.58333
507.237	1022.58333
511.096	1031.58333
514.952	1041.25
518.805	1048.91667
522.655	1050.58333
526.502	1038.25
530.346	1034.91667
534.187	1018.91667
538.024	1036.25
541.859	1005.25
545.69	1047.91667
549.519	1025.25
553.344	1024.25
557.166	1005.25
560.985	1001.25
564.802	999.25
568.615	981.25
572.425	972.58333
576.232	962.58333
580.036	949.91667
583.836	977.25
587.634	974.91667
591.429	973.58333
595.221	1012.58333
599.01	985.58333
602.796	994.58333
606.578	1000.58333
610.358	1006.58333
614.135	981.58333
617.909	993.91667
621.679	987.25
625.447	970.58333
629.212	977.91667
632.973	981.25
636.732	974.91667
640.488	990.25
644.241	973.58333
647.991	951.91667
651.737	982.91667
655.481	963.25
659.222	974.91667
662.96	965.91667
666.695	981.91667
670.427	983.91667
674.156	979.25
677.882	974.91667
681.605	972.58333
685.325	957.91667
689.043	976.58333
692.757	955.58333
696.468	959.58333
700.177	945.91667
703.882	949.25
707.585	914.91667
711.284	939.91667
714.981	936.91667
718.675	928.58333
722.366	940.58333
726.054	918.25
729.739	932.91667
733.421	923.58333
737.1	924.58333
740.777	938.25
744.45	946.91667
748.121	936.58333
751.789	974.91667
755.453	940.25
759.115	973.58333
762.774	951.25
766.431	951.91667
770.084	962.25
773.734	965.25
777.382	979.91667
781.027	974.25
784.669	971.58333
788.308	970.91667
791.944	991.25
795.577	993.91667
799.208	994.91667
802.835	1008.25
806.46	1005.58333
810.082	1004.25
813.701	1012.58333
817.317	1025.58333
820.931	1026.58333
824.542	1031.58333
828.149	997.25
831.754	980.25
835.357	972.91667
838.956	981.58333
842.553	978.25
846.146	971.58333
849.737	955.91667
853.326	963.25
856.911	951.58333
860.493	969.91667
864.073	962.91667
867.65	987.91667
871.225	997.25
874.796	979.91667
878.365	970.25
881.931	988.25
885.494	1002.25
889.054	989.91667
892.612	991.25
896.166	973.25
899.719	962.91667
903.268	948.58333
906.814	958.91667
910.358	939.25
913.899	936.91667
917.438	949.25
920.973	927.58333
924.506	936.58333
928.036	956.91667
931.564	966.91667
935.088	978.91667
938.61	960.25
942.129	952.58333
945.646	973.25
949.16	992.25
952.671	988.58333
956.179	1016.91667
959.685	1027.58333
963.188	1028.58333
966.688	1025.25
970.185	987.58333
973.68	958.25
977.173	953.58333
980.662	937.58333
984.149	940.91667
987.633	926.58333
991.114	941.91667
994.593	946.91667
998.069	959.58333
1001.542	994.25
1005.013	982.25
1008.481	932.91667
1011.947	918.25
1015.409	903.58333
1018.869	903.58333
1022.327	913.91667
1025.782	879.58333
1029.234	893.58333
1032.683	888.91667
1036.13	870.25
1039.574	825.58333
1043.016	826.91667
1046.455	817.25
1049.891	804.91667
1053.325	806.91667
1056.756	800.25
1060.184	807.58333
1063.61	786.58333
1067.033	806.91667
1070.454	805.25
1073.872	813.91667
1077.287	793.91667
1080.7	803.91667
1084.11	797.91667
1087.517	794.91667
1090.922	787.58333
1094.325	780.25
1097.724	788.25
1101.122	767.58333
1104.516	776.25
1107.908	753.58333
1111.298	774.58333
1114.684	778.25
1118.069	782.58333
1121.45	805.25
1124.83	775.25
1128.206	781.91667
1131.58	785.58333
1134.951	816.58333
1138.32	808.58333
1141.687	860.91667
1145.05	876.91667
1148.412	875.25
1151.77	867.91667
1155.126	871.91667
1158.48	836.58333
1161.831	851.91667
1165.18	871.91667
1168.525	885.25
1171.869	883.91667
1175.21	880.91667
1178.548	905.91667
1181.884	904.25
1185.217	889.91667
1188.548	925.25
1191.877	931.25
1195.202	973.25
1198.526	997.91667
1201.846	978.58333
1205.165	987.91667
1208.48	997.58333
1211.794	1005.91667
1215.104	993.91667
1218.413	973.25
1221.719	982.25
1225.022	955.25
1228.323	942.58333
1231.621	957.58333
1234.917	941.91667
1238.21	962.91667
1241.501	946.91667
1244.79	938.58333
1248.076	915.25
1251.359	942.91667
1254.64	983.91667
1257.919	949.25
1261.195	965.25
1264.468	984.25
1267.74	993.25
1271.008	992.91667
1274.275	1007.25
1277.538	989.58333
1280.8	987.25
1284.059	974.25
1287.315	997.91667
1290.569	985.58333
1293.821	1004.25
1297.07	1005.58333
1300.317	1009.58333
1303.562	1005.25
1306.803	994.58333
1310.043	991.58333
1313.28	979.25
1316.515	995.58333
1319.747	987.25
1322.977	980.58333
1326.204	964.58333
1329.429	963.91667
1332.652	967.58333
1335.872	961.58333
1339.09	951.91667
1342.306	948.91667
1345.519	954.91667
1348.729	948.91667
1351.938	946.91667
1355.144	933.25
1358.347	925.58333
1361.548	921.91667
1364.747	940.58333
1367.944	900.91667
1371.138	906.58333
1374.329	904.25
1377.518	901.58333
1380.705	910.58333
1383.89	895.25
1387.072	873.58333
1390.252	853.58333
1393.429	831.25
1396.605	815.58333
1399.777	786.25
1402.948	785.25
1406.116	761.91667
1409.282	758.91667
1412.445	764.58333
1415.606	779.91667
1418.765	790.58333
1421.921	783.91667
1425.075	803.58333
1428.227	823.25
1431.376	850.25
1434.524	870.25
1437.668	893.91667
1440.811	904.25
1443.951	899.58333
1447.089	911.58333
1450.224	923.58333
1453.357	906.58333
1456.488	897.91667
1459.617	891.91667
1462.743	887.25
1465.867	850.91667
1468.989	860.58333
1472.108	838.58333
1475.225	833.25
1478.34	828.91667
1481.453	811.91667
1484.563	811.91667
1487.671	821.58333
1490.776	829.25
1493.88	838.25
1496.981	857.58333
1500.08	871.25
1503.176	858.58333
1506.271	869.58333
1509.363	883.91667
1512.452	894.25
1515.54	893.91667
1518.625	895.91667
1521.708	932.91667
1524.789	958.58333
1527.867	993.25
1530.944	1032.91667
1534.018	1049.58333
1537.089	1119.58333
1540.159	1109.25
1543.226	1097.91667
1546.291	1063.25
1549.354	1056.58333
1552.415	1027.25
1555.473	1010.91667
1558.529	1000.91667
1561.583	1001.25
1564.634	972.58333
1567.684	971.25
1570.731	987.58333
1573.776	986.58333
1576.819	1012.25
1579.859	1016.58333
1582.898	1031.91667
1585.934	1037.25
1588.968	1045.25
1591.999	1030.25
1595.029	1029.91667
1598.056	1055.58333
1601.081	1054.25
1604.104	1047.25
1607.125	1034.91667
1610.144	1022.25
1613.16	997.91667
1616.174	978.58333
1619.186	965.25
1622.196	949.91667
1625.203	914.91667
1628.209	918.58333
1631.212	924.58333
1634.213	933.91667
1637.212	944.25
1640.209	950.58333
1643.203	910.25
1646.196	891.58333
1649.186	847.58333
1652.174	830.25
1655.16	792.91667
1658.144	791.91667
1661.125	753.58333
1664.105	709.25
1667.082	690.25
1670.057	651.91667
1673.03	617.91667
1676.001	584.58333
1678.97	551.58333
1681.937	524.25
1684.901	503.25
1687.863	499.25
1690.824	474.25
1693.782	489.25
1696.738	439.91667
1699.692	440.58333
1702.643	436.91667
1705.593	428.91667
1708.54	431.25
1711.486	439.25
1714.429	417.25
1717.37	428.91667
1720.309	404.58333
1723.246	424.25
1726.181	409.25
1729.113	402.25
1732.044	406.25
1734.972	391.25
1737.899	404.58333
1740.823	403.25
1743.745	417.58333
1746.665	381.58333
1749.583	381.58333
1752.499	377.25
1755.413	374.58333
1758.325	366.25
1761.235	376.58333
1764.142	355.25
1767.048	356.25
1769.951	359.25
1772.852	352.58333
1775.752	361.25
1778.649	363.25
1781.544	364.25
1784.437	345.25
1787.328	353.91667
1790.217	349.91667
1793.104	324.58333
1795.989	333.91667
1798.872	327.91667
1801.753	353.58333
1804.631	336.25
1807.508	338.58333
1810.383	336.91667
1813.255	337.91667
1816.126	332.91667
1818.994	335.91667
1821.861	322.58333
1824.725	333.58333
1827.587	332.58333
1830.448	329.25
1833.306	319.91667
1836.162	332.58333
1839.017	325.91667
1841.869	320.58333
1844.719	319.91667
1847.567	310.58333
1850.414	311.25
1853.258	295.25
1856.1	322.91667
1858.94	328.58333
1861.778	313.91667
1864.614	301.91667
1867.448	318.25
1870.28	303.58333
1873.111	316.91667
1875.939	312.25
1878.765	324.91667
1881.589	303.25
1884.411	298.58333
1887.231	322.91667
1890.049	310.58333
1892.865	318.58333
1895.68	293.91667
1898.492	299.25
1901.302	299.25
1904.11	298.91667
1906.916	303.58333
1909.721	295.58333
1912.523	304.58333
1915.323	285.91667
1918.122	284.58333
1920.918	307.91667
1923.712	300.25
1926.505	288.58333
1929.295	280.58333
1932.084	292.91667
1934.87	294.58333
1937.655	287.58333
1940.438	279.58333
1943.218	278.91667
1945.997	286.91667
1948.774	288.91667
1951.549	295.25
1954.322	282.25
1957.093	285.58333
1959.862	282.91667
1962.629	278.58333
1965.394	276.91667
1968.157	267.58333
1970.918	291.58333
1973.678	269.58333
1976.435	278.25
1979.19	274.91667
1981.944	256.91667
1984.696	266.58333
1987.445	267.91667
1990.193	267.58333
1992.939	287.25
1995.683	272.58333
1998.425	254.58333
2001.165	288.25
2003.903	252.58333
2006.639	268.58333
2009.374	265.91667
2012.106	271.25
2014.837	250.25
2017.566	266.91667
2020.292	263.91667
2023.017	252.91667
2025.74	256.25
2028.461	249.58333
2031.18	256.91667
2033.898	247.58333
2036.613	248.91667
2039.327	260.58333
2042.038	248.91667
2044.748	256.91667
2047.456	262.58333
2050.162	243.25
2052.866	248.91667
2055.568	259.25
2058.268	253.25
2060.967	254.25
2063.663	235.91667
2066.358	245.91667
2069.051	239.91667
2071.742	246.91667
2074.431	254.25
2077.118	243.25
2079.804	232.91667
2082.487	243.91667
2085.169	255.58333
2087.849	263.91667
2090.527	238.91667
2093.203	245.58333
2095.877	243.58333
2098.55	241.58333
2101.22	255.25
2103.889	257.58333
2106.556	240.58333
2109.221	259.58333
2111.884	246.91667
2114.546	261.25
2117.205	270.58333
2119.863	291.91667
2122.519	290.91667
2125.173	306.58333
2127.825	347.91667
2130.475	333.25
2133.124	316.91667
2135.771	313.91667
2138.416	319.25
2141.059	298.91667
2143.7	298.25
2146.339	268.91667
2148.977	251.25
2151.613	264.91667
2154.247	256.58333
2156.879	258.91667
2159.51	239.25
2162.138	241.58333
2164.765	242.91667
2167.39	232.25
2170.013	249.91667
2172.634	253.91667
2175.254	232.58333
2177.872	272.25
2180.488	221.25
2183.102	234.58333
2185.714	224.58333
2188.325	218.58333
2190.934	225.91667
2193.541	231.25
2196.146	227.58333
2198.75	209.25
2201.351	214.58333
2203.951	206.58333
2206.549	218.58333
2209.146	218.58333
2211.74	209.58333
2214.333	221.58333
2216.924	202.58333
2219.514	211.58333
2222.101	201.25
2224.687	220.25
2227.271	193.91667
2229.853	206.25
2232.433	185.91667
2235.012	210.58333
2237.589	209.25
2240.164	213.91667
2242.738	201.58333
2245.309	195.58333
2247.879	214.91667
2250.448	211.91667
2253.014	191.91667
2255.579	184.58333
2258.142	189.91667
2260.703	193.25
2263.262	189.91667
2265.82	182.25
2268.376	205.25
2270.93	189.91667
2273.483	181.91667
2276.033	200.25
2278.583	185.25
2281.13	178.91667
2283.675	174.91667
2286.219	180.25
2288.761	192.25
2291.302	189.25
2293.841	200.25
2296.377	176.25
2298.913	189.25
2301.446	196.58333
2303.978	183.25
2306.508	184.58333
2309.037	190.91667
2311.563	188.91667
2314.088	184.58333
2316.612	175.58333
2319.133	186.91667
2321.653	184.25
2324.171	174.91667
2326.688	185.91667
2329.202	178.91667
2331.715	182.91667
2334.227	184.25
2336.736	176.58333
2339.244	172.91667
2341.751	164.25
2344.255	181.58333
2346.758	170.25
2349.259	166.91667
2351.759	182.91667
2354.257	167.91667
2356.753	164.91667
2359.247	167.58333
2361.74	173.25
2364.231	175.58333
2366.721	181.58333
2369.209	161.91667
2371.695	174.91667
2374.179	167.25
2376.662	156.25
2379.143	178.91667
2381.622	165.58333
2384.1	176.25
2386.576	163.25
2389.051	181.91667
2391.524	180.25
2393.995	177.91667
2396.464	169.25
2398.932	163.58333
2401.398	170.58333
2403.863	160.58333
2406.325	157.25
2408.787	166.58333
2411.246	169.58333
2413.704	165.91667
2416.16	158.91667
2418.615	165.25
2421.068	170.91667
2423.519	163.58333
2425.969	156.58333
2428.417	171.58333
2430.863	180.91667
2433.308	163.25
2435.751	168.58333
2438.193	164.58333
2440.633	170.25
2443.071	168.91667
2445.508	161.25
2447.943	160.25
2450.376	151.58333
2452.808	165.25
2455.238	148.91667
2457.667	191.58333
2460.093	151.25
2462.519	150.58333
2464.942	153.91667
2467.365	161.25
2469.785	163.91667
2472.204	154.25
2474.621	152.25
2477.037	168.58333
2479.451	146.58333
2481.863	144.58333
2484.274	153.91667
2486.683	155.25
2489.091	167.25
2491.497	155.25
2493.901	159.25
2496.304	154.58333
2498.705	167.58333
2501.105	155.25
2503.503	171.58333
2505.899	146.58333
2508.294	169.25
2510.687	150.58333
2513.079	153.25
2515.469	148.91667
2517.858	149.91667
2520.245	164.25
2522.63	153.58333
2525.014	150.25
2527.396	150.91667
2529.776	142.91667
2532.156	156.91667
2534.533	137.58333
2536.909	138.58333
2539.283	134.58333
2541.656	147.58333
2544.027	161.58333
2546.397	154.25
2548.765	147.58333
2551.131	145.58333
2553.496	147.58333
2555.86	153.91667
2558.221	156.58333
2560.582	142.25
2562.94	144.58333
2565.298	145.25
2567.653	159.58333
2570.007	137.91667
2572.36	159.25
2574.711	141.91667
2577.06	156.58333
2579.408	150.25
2581.754	145.91667
2584.099	143.91667
2586.442	148.25
2588.784	161.58333
2591.124	151.58333
2593.463	146.91667
2595.8	155.91667
2598.135	137.91667
2600.469	138.25
2602.802	151.25
2605.133	153.91667
2607.462	138.25
2609.79	129.91667
2612.116	152.91667
2614.441	142.25
2616.764	151.25
2619.086	150.91667
2621.406	138.91667
2623.725	155.91667
2626.042	141.58333
2628.358	137.58333
2630.672	141.91667
2632.985	154.25
2635.296	150.91667
2637.606	145.91667
2639.914	143.91667
2642.22	137.91667
2644.525	144.25
2646.829	146.91667
2649.131	157.58333
2651.432	152.58333
2653.731	145.91667
2656.028	156.91667
2658.324	148.25
2660.619	136.25
2662.912	153.91667
2665.204	134.58333
2667.494	152.91667
2669.782	132.25
2672.07	155.58333
2674.355	152.25
2676.639	148.25
2678.922	141.25
2681.203	149.91667
2683.483	143.58333
2685.761	135.25
2688.038	152.91667
2690.313	166.25
2692.587	146.58333
2694.859	142.91667
2697.13	144.58333
2699.399	147.58333
2701.667	153.58333
2703.933	151.91667
2706.198	156.25
2708.461	152.25
2710.723	158.25
2712.984	149.25
2715.243	158.58333
2717.5	149.25
2719.757	159.58333
2722.011	150.58333
2724.264	159.58333
2726.516	165.91667
2728.766	148.25
2731.015	151.91667
2733.262	150.91667
2735.508	148.25
2737.753	162.25
2739.996	144.58333
2742.237	141.58333
2744.477	162.25
2746.716	164.25
2748.953	163.91667
2751.189	156.91667
2753.423	158.58333
2755.656	155.91667
2757.887	145.91667
2760.117	146.58333
2762.346	139.25
2764.573	131.91667
2766.798	144.25
2769.022	149.58333
2771.245	143.25
2773.467	142.25
2775.686	142.91667
2777.905	147.58333
2780.122	150.58333
2782.337	151.58333
2784.552	145.58333
2786.764	144.25
2788.976	139.58333
2791.186	148.58333
2793.394	147.58333
2795.601	157.25
2797.807	162.25
2800.011	147.91667
2802.214	161.25
2804.415	153.25
2806.615	153.25
2808.814	152.91667
2811.011	160.58333
2813.206	154.25
2815.401	166.58333
2817.594	162.91667
2819.785	170.58333
2821.975	154.58333
2824.164	158.91667
2826.351	160.91667
2828.537	175.58333
2830.722	171.25
2832.905	169.91667
2835.086	177.25
2837.267	195.58333
2839.445	185.25
2841.623	192.25
2843.799	192.25
2845.974	198.25
2848.147	198.58333
2850.319	216.58333
2852.489	219.58333
2854.659	224.91667
2856.826	225.58333
2858.993	243.25
2861.158	218.58333
2863.321	230.58333
2865.483	237.25
2867.644	234.25
2869.804	236.91667
2871.962	231.91667
2874.118	233.58333
2876.274	235.58333
2878.428	230.91667
2880.58	234.91667
2882.731	225.58333
2884.881	236.25
2887.03	233.91667
2889.177	229.58333
2891.322	242.91667
2893.467	237.58333
2895.61	226.91667
2897.751	254.25
2899.892	237.91667
2902.03	241.58333
2904.168	239.25
2906.304	239.58333
2908.439	263.25
2910.572	235.25
2912.704	246.25
2914.835	250.91667
2916.965	251.25
2919.093	264.25
2921.219	235.91667
2923.345	265.25
2925.469	248.91667
2927.591	245.25
2929.712	230.58333
2931.832	241.25
2933.951	234.91667
2936.068	236.25
2938.184	224.91667
2940.299	221.25
2942.412	212.25
2944.524	204.58333
2946.634	210.58333
2948.744	191.25
2950.851	222.58333
2952.958	194.25
2955.063	199.58333
2957.167	199.25
2959.269	180.58333
2961.371	207.58333
2963.471	178.25
2965.569	199.58333
2967.666	165.25
2969.762	171.25
2971.857	167.25
2973.95	156.91667
2976.042	171.25
2978.133	159.58333
2980.222	164.25
2982.31	151.58333
2984.396	138.25
2986.482	148.91667
2988.566	150.91667
2990.648	155.91667
2992.73	152.91667
2994.81	131.25
2996.889	155.58333
2998.966	146.91667
3001.042	155.91667
3003.117	144.91667
3005.191	145.58333
3007.263	149.25
3009.334	145.58333
3011.403	145.58333
3013.472	142.91667
3015.539	158.25
3017.604	160.25
3019.669	126.91667
3021.732	137.58333
3023.794	137.25
3025.854	125.25
3027.914	124.58333
3029.971	126.25
3032.028	130.25
3034.083	138.25
3036.137	131.91667
3038.19	122.91667
3040.242	117.91667
3042.292	120.25
3044.341	122.91667
3046.388	136.25
3048.435	113.91667
3050.48	136.58333
3052.524	120.58333
3054.566	111.25
3056.607	120.91667
3058.647	117.91667
3060.686	111.58333
3062.723	101.25
3064.759	104.25
3066.794	-1.08333
3068.828	0.58333
3070.86	3.25
