-0.839	133.04167
3.438	157.70833
7.711	66.04167
11.981	44.375
16.247	33.375
20.509	39.04167
24.768	35.04167
29.024	44.70833
33.276	31.375
37.524	43.375
41.769	28.04167
46.01	26.375
50.247	47.375
54.481	46.04167
58.712	53.04167
62.939	38.375
67.162	53.04167
71.382	43.04167
75.599	40.04167
79.812	45.375
84.021	60.04167
88.227	45.04167
92.429	51.70833
96.628	39.375
100.823	51.04167
105.015	52.70833
109.204	46.70833
113.388	59.70833
117.57	44.04167
121.748	61.04167
125.922	51.04167
130.093	67.04167
134.261	62.04167
138.425	51.70833
142.585	86.04167
146.742	63.70833
150.896	85.04167
155.046	81.04167
159.193	116.04167
163.336	165.375
167.476	289.375
171.613	530.04167
175.746	846.375
179.875	1240.375
184.002	1604.375
188.124	1896.04167
192.244	2014.70833
196.36	2063.70833
200.472	2056.375
204.581	2028.375
208.687	1980.375
212.79	2008.70833
216.889	2009.04167
220.984	2055.375
225.077	2050.04167
229.165	2066.04167
233.251	2090.04167
237.333	2097.04167
241.412	2080.04167
245.487	2061.04167
249.559	2028.04167
253.628	2047.04167
257.694	2013.375
261.756	2024.04167
265.814	1973.70833
269.87	1925.04167
273.922	1880.70833
277.97	1843.375
282.016	1808.375
286.058	1784.375
290.097	1794.70833
294.132	1786.04167
298.164	1790.70833
302.193	1742.70833
306.219	1671.70833
310.241	1587.70833
314.26	1468.04167
318.276	1418.375
322.288	1378.70833
326.297	1341.70833
330.303	1322.375
334.305	1306.70833
338.305	1287.375
342.301	1287.70833
346.294	1299.04167
350.283	1276.04167
354.269	1272.04167
358.252	1268.70833
362.232	1274.375
366.209	1271.70833
370.182	1255.375
374.152	1253.70833
378.119	1277.375
382.083	1253.375
386.043	1284.70833
390	1267.04167
393.954	1276.04167
397.905	1264.04167
401.852	1270.04167
405.797	1266.04167
409.738	1251.04167
413.676	1269.70833
417.61	1271.70833
421.542	1253.70833
425.47	1249.04167
429.396	1239.375
433.318	1210.70833
437.236	1225.70833
441.152	1259.04167
445.065	1205.04167
448.974	1216.375
452.88	1209.70833
456.783	1202.375
460.683	1191.375
464.58	1199.04167
468.473	1218.375
472.364	1205.70833
476.251	1208.375
480.135	1213.375
484.016	1225.375
487.894	1221.04167
491.769	1226.375
495.641	1221.70833
499.509	1220.375
503.375	1222.375
507.237	1218.04167
511.096	1209.04167
514.952	1217.04167
518.805	1215.04167
522.655	1248.70833
526.502	1219.375
530.346	1211.70833
534.187	1197.70833
538.024	1197.70833
541.859	1193.375
545.69	1201.70833
549.519	1208.70833
553.344	1191.04167
557.166	1187.04167
560.985	1181.375
564.802	1169.04167
568.615	1140.70833
572.425	1133.70833
576.232	1132.70833
580.036	1137.375
583.836	1133.375
587.634	1151.70833
591.429	1125.04167
595.221	1165.70833
599.01	1170.70833
602.796	1170.70833
606.578	1177.375
610.358	1176.04167
614.135	1159.375
617.909	1175.375
621.679	1163.04167
625.447	1139.70833
629.212	1159.375
632.973	1165.375
636.732	1145.04167
640.488	1154.375
644.241	1124.375
647.991	1125.375
651.737	1151.04167
655.481	1113.70833
659.222	1150.375
662.96	1149.375
666.695	1166.04167
670.427	1150.04167
674.156	1158.70833
677.882	1155.04167
681.605	1146.04167
685.325	1136.375
689.043	1147.70833
692.757	1139.70833
696.468	1127.70833
700.177	1128.70833
703.882	1101.04167
707.585	1104.04167
711.284	1086.70833
714.981	1086.375
718.675	1079.04167
722.366	1095.70833
726.054	1088.04167
729.739	1091.375
733.421	1085.04167
737.1	1080.375
740.777	1081.70833
744.45	1100.375
748.121	1092.04167
751.789	1113.04167
755.453	1101.04167
759.115	1098.70833
762.774	1109.375
766.431	1104.70833
770.084	1111.04167
773.734	1118.375
777.382	1125.70833
781.027	1129.04167
784.669	1108.04167
788.308	1114.70833
791.944	1139.04167
795.577	1140.70833
799.208	1143.375
802.835	1145.70833
806.46	1153.04167
810.082	1157.04167
813.701	1156.375
817.317	1177.70833
820.931	1181.375
824.542	1184.04167
828.149	1149.04167
831.754	1122.70833
835.357	1123.70833
838.956	1124.375
842.553	1119.375
846.146	1106.04167
849.737	1088.04167
853.326	1096.04167
856.911	1078.375
860.493	1103.04167
864.073	1101.375
867.65	1114.70833
871.225	1134.70833
874.796	1115.375
878.365	1101.70833
881.931	1117.70833
885.494	1131.375
889.054	1108.70833
892.612	1114.375
896.166	1096.04167
899.719	1094.04167
903.268	1082.375
906.814	1079.375
910.358	1069.70833
913.899	1063.04167
917.438	1071.04167
920.973	1051.375
924.506	1058.70833
928.036	1084.04167
931.564	1084.04167
935.088	1123.70833
938.61	1096.04167
942.129	1084.375
945.646	1112.04167
949.16	1114.04167
952.671	1127.70833
956.179	1139.70833
959.685	1131.04167
963.188	1170.375
966.688	1160.70833
970.185	1117.04167
973.68	1080.04167
977.173	1077.04167
980.662	1064.70833
984.149	1057.70833
987.633	1044.70833
991.114	1063.70833
994.593	1084.375
998.069	1098.70833
1001.542	1128.70833
1005.013	1116.04167
1008.481	1055.04167
1011.947	1028.70833
1015.409	1012.70833
1018.869	1028.04167
1022.327	1036.375
1025.782	1025.04167
1029.234	995.375
1032.683	1010.70833
1036.13	972.70833
1039.574	947.375
1043.016	933.375
1046.455	906.04167
1049.891	898.04167
1053.325	916.375
1056.756	916.70833
1060.184	921.70833
1063.61	892.04167
1067.033	905.375
1070.454	904.70833
1073.872	929.375
1077.287	896.04167
1080.7	906.70833
1084.11	916.04167
1087.517	904.70833
1090.922	895.375
1094.325	875.70833
1097.724	868.70833
1101.122	860.375
1104.516	869.04167
1107.908	843.375
1111.298	879.04167
1114.684	876.70833
1118.069	881.70833
1121.45	895.04167
1124.83	876.04167
1128.206	912.04167
1131.58	902.70833
1134.951	914.375
1138.32	918.04167
1141.687	958.70833
1145.05	965.375
1148.412	967.70833
1151.77	975.04167
1155.126	953.04167
1158.48	955.04167
1161.831	961.70833
1165.18	962.375
1168.525	967.70833
1171.869	977.04167
1175.21	978.375
1178.548	987.04167
1181.884	995.70833
1185.217	1000.70833
1188.548	1005.04167
1191.877	1019.70833
1195.202	1064.04167
1198.526	1081.04167
1201.846	1084.04167
1205.165	1086.70833
1208.48	1091.375
1211.794	1086.04167
1215.104	1100.70833
1218.413	1063.70833
1221.719	1072.04167
1225.022	1047.375
1228.323	1038.70833
1231.621	1058.375
1234.917	1033.375
1238.21	1048.04167
1241.501	1038.70833
1244.79	1037.04167
1248.076	1009.375
1251.359	1036.70833
1254.64	1075.04167
1257.919	1042.04167
1261.195	1067.04167
1264.468	1065.375
1267.74	1088.70833
1271.008	1091.70833
1274.275	1095.375
1277.538	1094.04167
1280.8	1095.375
1284.059	1085.04167
1287.315	1087.70833
1290.569	1084.375
1293.821	1090.70833
1297.07	1103.04167
1300.317	1088.70833
1303.562	1095.04167
1306.803	1077.04167
1310.043	1078.375
1313.28	1083.70833
1316.515	1075.70833
1319.747	1086.375
1322.977	1080.375
1326.204	1068.04167
1329.429	1066.375
1332.652	1066.04167
1335.872	1072.375
1339.09	1055.04167
1342.306	1070.375
1345.519	1047.375
1348.729	1058.70833
1351.938	1058.70833
1355.144	1042.70833
1358.347	1009.375
1361.548	1038.04167
1364.747	1024.70833
1367.944	999.70833
1371.138	1001.70833
1374.329	987.04167
1377.518	997.70833
1380.705	1003.375
1383.89	1002.70833
1387.072	955.375
1390.252	953.375
1393.429	924.70833
1396.605	896.375
1399.777	864.70833
1402.948	868.70833
1406.116	856.70833
1409.282	863.04167
1412.445	847.375
1415.606	857.04167
1418.765	861.375
1421.921	871.04167
1425.075	870.70833
1428.227	889.04167
1431.376	925.70833
1434.524	958.04167
1437.668	973.04167
1440.811	984.375
1443.951	986.375
1447.089	984.04167
1450.224	987.04167
1453.357	992.04167
1456.488	977.04167
1459.617	976.375
1462.743	974.375
1465.867	942.04167
1468.989	935.375
1472.108	922.04167
1475.225	921.375
1478.34	898.70833
1481.453	900.375
1484.563	898.70833
1487.671	905.375
1490.776	931.04167
1493.88	921.70833
1496.981	925.375
1500.08	931.375
1503.176	936.375
1506.271	955.70833
1509.363	962.375
1512.452	959.70833
1515.54	977.70833
1518.625	980.70833
1521.708	1021.375
1524.789	1048.70833
1527.867	1057.70833
1530.944	1105.70833
1534.018	1133.70833
1537.089	1168.375
1540.159	1168.04167
1543.226	1186.375
1546.291	1125.375
1549.354	1117.70833
1552.415	1103.375
1555.473	1070.04167
1558.529	1073.375
1561.583	1055.04167
1564.634	1044.70833
1567.684	1062.04167
1570.731	1051.70833
1573.776	1073.04167
1576.819	1074.70833
1579.859	1087.04167
1582.898	1095.70833
1585.934	1114.04167
1588.968	1118.04167
1591.999	1099.70833
1595.029	1104.70833
1598.056	1116.70833
1601.081	1116.375
1604.104	1122.04167
1607.125	1092.04167
1610.144	1085.70833
1613.16	1078.70833
1616.174	1052.375
1619.186	1069.375
1622.196	1030.70833
1625.203	1000.70833
1628.209	1001.04167
1631.212	996.70833
1634.213	1013.04167
1637.212	1051.04167
1640.209	1040.70833
1643.203	1008.70833
1646.196	986.375
1649.186	937.70833
1652.174	913.70833
1655.16	882.375
1658.144	869.70833
1661.125	831.70833
1664.105	781.04167
1667.082	758.04167
1670.057	718.375
1673.03	692.04167
1676.001	653.375
1678.97	619.04167
1681.937	585.70833
1684.901	558.375
1687.863	552.70833
1690.824	521.70833
1693.782	537.375
1696.738	503.375
1699.692	499.375
1702.643	483.04167
1705.593	490.04167
1708.54	483.04167
1711.486	495.04167
1714.429	470.04167
1717.37	476.375
1720.309	470.70833
1723.246	475.04167
1726.181	449.70833
1729.113	461.04167
1732.044	461.375
1734.972	443.70833
1737.899	459.70833
1740.823	464.375
1743.745	475.70833
1746.665	431.70833
1749.583	428.04167
1752.499	430.375
1755.413	427.70833
1758.325	412.70833
1761.235	424.04167
1764.142	402.375
1767.048	417.04167
1769.951	405.70833
1772.852	405.375
1775.752	410.70833
1778.649	413.04167
1781.544	425.70833
1784.437	400.375
1787.328	399.375
1790.217	409.70833
1793.104	374.04167
1795.989	383.375
1798.872	381.04167
1801.753	402.70833
1804.631	389.04167
1807.508	397.375
1810.383	391.70833
1813.255	386.70833
1816.126	393.04167
1818.994	381.375
1821.861	373.70833
1824.725	388.375
1827.587	381.375
1830.448	376.70833
1833.306	365.04167
1836.162	382.04167
1839.017	364.04167
1841.869	364.70833
1844.719	370.70833
1847.567	351.70833
1850.414	345.04167
1853.258	352.70833
1856.1	367.70833
1858.94	370.04167
1861.778	360.70833
1864.614	350.70833
1867.448	359.70833
1870.28	336.70833
1873.111	366.375
1875.939	356.70833
1878.765	372.04167
1881.589	354.70833
1884.411	401.375
1887.231	360.375
1890.049	352.70833
1892.865	356.375
1895.68	339.70833
1898.492	351.04167
1901.302	338.375
1904.11	341.04167
1906.916	339.375
1909.721	336.70833
1912.523	346.375
1915.323	333.375
1918.122	333.375
1920.918	347.375
1923.712	325.70833
1926.505	332.375
1929.295	316.04167
1932.084	332.04167
1934.87	335.70833
1937.655	327.375
1940.438	320.04167
1943.218	321.375
1945.997	332.04167
1948.774	328.04167
1951.549	331.70833
1954.322	319.04167
1957.093	323.04167
1959.862	317.375
1962.629	316.70833
1965.394	319.70833
1968.157	302.70833
1970.918	326.04167
1973.678	306.375
1976.435	323.375
1979.19	313.70833
1981.944	299.70833
1984.696	308.70833
1987.445	299.70833
1990.193	304.04167
1992.939	318.70833
1995.683	315.04167
1998.425	283.375
2001.165	319.375
2003.903	291.70833
2006.639	299.70833
2009.374	302.04167
2012.106	306.70833
2014.837	277.70833
2017.566	306.04167
2020.292	297.375
2023.017	299.70833
2025.74	289.375
2028.461	288.70833
2031.18	292.04167
2033.898	280.04167
2036.613	294.70833
2039.327	290.375
2042.038	281.04167
2044.748	286.70833
2047.456	295.375
2050.162	277.04167
2052.866	277.70833
2055.568	294.04167
2058.268	279.375
2060.967	287.70833
2063.663	275.70833
2066.358	272.375
2069.051	276.375
2071.742	279.70833
2074.431	285.04167
2077.118	274.04167
2079.804	261.04167
2082.487	268.70833
2085.169	288.04167
2087.849	296.70833
2090.527	261.70833
2093.203	276.70833
2095.877	275.70833
2098.55	275.04167
2101.22	286.70833
2103.889	283.04167
2106.556	276.70833
2109.221	285.04167
2111.884	274.70833
2114.546	293.375
2117.205	285.04167
2119.863	324.04167
2122.519	317.70833
2125.173	323.04167
2127.825	362.70833
2130.475	366.375
2133.124	344.04167
2135.771	335.04167
2138.416	347.375
2141.059	324.70833
2143.7	324.70833
2146.339	291.70833
2148.977	275.04167
2151.613	289.70833
2154.247	276.04167
2156.879	275.70833
2159.51	271.375
2162.138	265.375
2164.765	267.375
2167.39	253.375
2170.013	285.70833
2172.634	278.70833
2175.254	261.70833
2177.872	300.70833
2180.488	252.04167
2183.102	258.375
2185.714	252.70833
2188.325	243.70833
2190.934	258.375
2193.541	259.04167
2196.146	255.70833
2198.75	230.70833
2201.351	240.04167
2203.951	227.04167
2206.549	245.375
2209.146	230.70833
2211.74	225.375
2214.333	239.70833
2216.924	227.04167
2219.514	227.04167
2222.101	228.04167
2224.687	245.70833
2227.271	226.04167
2229.853	227.04167
2232.433	206.70833
2235.012	233.375
2237.589	233.04167
2240.164	241.04167
2242.738	220.375
2245.309	213.70833
2247.879	236.70833
2250.448	229.04167
2253.014	206.375
2255.579	209.04167
2258.142	218.04167
2260.703	210.375
2263.262	213.375
2265.82	205.04167
2268.376	228.70833
2270.93	208.375
2273.483	199.375
2276.033	219.70833
2278.583	202.70833
2281.13	204.375
2283.675	199.375
2286.219	207.04167
2288.761	206.04167
2291.302	215.70833
2293.841	224.04167
2296.377	203.04167
2298.913	212.375
2301.446	213.70833
2303.978	206.70833
2306.508	199.375
2309.037	208.04167
2311.563	199.375
2314.088	209.70833
2316.612	188.70833
2319.133	199.04167
2321.653	204.70833
2324.171	198.70833
2326.688	209.375
2329.202	205.375
2331.715	204.375
2334.227	199.375
2336.736	197.375
2339.244	185.70833
2341.751	186.04167
2344.255	197.04167
2346.758	199.375
2349.259	188.375
2351.759	196.375
2354.257	187.375
2356.753	184.70833
2359.247	185.04167
2361.74	194.70833
2364.231	188.375
2366.721	193.04167
2369.209	185.70833
2371.695	186.04167
2374.179	183.375
2376.662	170.70833
2379.143	198.375
2381.622	187.70833
2384.1	190.70833
2386.576	186.375
2389.051	197.04167
2391.524	195.375
2393.995	192.375
2396.464	182.70833
2398.932	182.70833
2401.398	190.375
2403.863	176.375
2406.325	172.375
2408.787	182.375
2411.246	180.375
2413.704	177.70833
2416.16	178.70833
2418.615	180.70833
2421.068	185.375
2423.519	172.04167
2425.969	172.04167
2428.417	186.70833
2430.863	196.375
2433.308	184.375
2435.751	185.70833
2438.193	179.375
2440.633	177.70833
2443.071	187.04167
2445.508	176.375
2447.943	181.375
2450.376	173.04167
2452.808	183.04167
2455.238	170.375
2457.667	197.375
2460.093	167.375
2462.519	163.04167
2464.942	165.04167
2467.365	172.04167
2469.785	178.375
2472.204	167.04167
2474.621	166.375
2477.037	183.70833
2479.451	164.375
2481.863	159.375
2484.274	164.04167
2486.683	165.70833
2489.091	176.70833
2491.497	173.04167
2493.901	170.04167
2496.304	163.04167
2498.705	177.375
2501.105	169.04167
2503.503	187.70833
2505.899	161.04167
2508.294	186.04167
2510.687	164.375
2513.079	165.375
2515.469	156.04167
2517.858	163.04167
2520.245	181.375
2522.63	165.375
2525.014	156.375
2527.396	158.04167
2529.776	162.04167
2532.156	168.70833
2534.533	155.375
2536.909	154.04167
2539.283	151.375
2541.656	150.375
2544.027	173.04167
2546.397	167.375
2548.765	160.375
2551.131	165.375
2553.496	167.04167
2555.86	166.04167
2558.221	163.04167
2560.582	159.04167
2562.94	153.375
2565.298	160.375
2567.653	171.375
2570.007	148.04167
2572.36	162.70833
2574.711	154.04167
2577.06	167.70833
2579.408	156.375
2581.754	152.70833
2584.099	160.375
2586.442	161.375
2588.784	160.04167
2591.124	157.375
2593.463	160.375
2595.8	158.375
2598.135	145.375
2600.469	152.04167
2602.802	163.375
2605.133	166.04167
2607.462	148.70833
2609.79	144.04167
2612.116	164.04167
2614.441	155.70833
2616.764	159.375
2619.086	166.70833
2621.406	147.375
2623.725	164.70833
2626.042	155.375
2628.358	148.70833
2630.672	159.04167
2632.985	162.04167
2635.296	162.70833
2637.606	154.04167
2639.914	149.70833
2642.22	156.375
2644.525	155.70833
2646.829	153.70833
2649.131	169.375
2651.432	161.375
2653.731	152.04167
2656.028	168.375
2658.324	160.04167
2660.619	148.375
2662.912	167.04167
2665.204	145.70833
2667.494	159.70833
2669.782	148.04167
2672.07	166.70833
2674.355	163.70833
2676.639	160.04167
2678.922	155.04167
2681.203	164.375
2683.483	153.375
2685.761	143.04167
2688.038	165.04167
2690.313	160.70833
2692.587	158.70833
2694.859	154.70833
2697.13	160.04167
2699.399	163.70833
2701.667	161.04167
2703.933	160.375
2706.198	164.375
2708.461	163.375
2710.723	164.04167
2712.984	159.70833
2715.243	168.70833
2717.5	162.70833
2719.757	167.70833
2722.011	157.375
2724.264	165.375
2726.516	180.04167
2728.766	155.70833
2731.015	161.375
2733.262	156.375
2735.508	158.70833
2737.753	164.70833
2739.996	153.70833
2742.237	152.70833
2744.477	163.70833
2746.716	172.375
2748.953	168.70833
2751.189	172.375
2753.423	161.70833
2755.656	161.04167
2757.887	148.70833
2760.117	157.70833
2762.346	153.04167
2764.573	141.375
2766.798	151.04167
2769.022	154.375
2771.245	147.375
2773.467	151.375
2775.686	154.70833
2777.905	156.04167
2780.122	153.04167
2782.337	162.70833
2784.552	154.375
2786.764	152.04167
2788.976	146.375
2791.186	159.375
2793.394	150.375
2795.601	160.04167
2797.807	167.70833
2800.011	160.375
2802.214	173.04167
2804.415	160.70833
2806.615	156.04167
2808.814	160.04167
2811.011	162.04167
2813.206	167.375
2815.401	176.375
2817.594	172.70833
2819.785	178.375
2821.975	164.04167
2824.164	165.70833
2826.351	167.04167
2828.537	182.375
2830.722	183.375
2832.905	175.04167
2835.086	183.04167
2837.267	202.70833
2839.445	197.70833
2841.623	193.375
2843.799	201.04167
2845.974	206.70833
2848.147	210.70833
2850.319	218.04167
2852.489	224.70833
2854.659	223.375
2856.826	229.375
2858.993	250.375
2861.158	224.70833
2863.321	237.04167
2865.483	253.04167
2867.644	240.375
2869.804	236.70833
2871.962	241.04167
2874.118	246.04167
2876.274	250.04167
2878.428	237.70833
2880.58	246.04167
2882.731	228.70833
2884.881	239.70833
2887.03	252.375
2889.177	241.04167
2891.322	250.70833
2893.467	234.375
2895.61	242.04167
2897.751	256.04167
2899.892	241.70833
2902.03	254.375
2904.168	241.375
2906.304	244.04167
2908.439	265.375
2910.572	238.70833
2912.704	255.04167
2914.835	260.04167
2916.965	257.04167
2919.093	277.04167
2921.219	241.04167
2923.345	274.04167
2925.469	249.375
2927.591	249.70833
2929.712	239.70833
2931.832	255.70833
2933.951	247.375
2936.068	231.04167
2938.184	232.70833
2940.299	228.375
2942.412	229.375
2944.524	205.70833
2946.634	220.04167
2948.744	197.375
2950.851	231.04167
2952.958	201.04167
2955.063	207.70833
2957.167	198.375
2959.269	184.70833
2961.371	216.04167
2963.471	185.375
2965.569	206.04167
2967.666	180.04167
2969.762	183.04167
2971.857	173.70833
2973.95	169.375
2976.042	178.04167
2978.133	171.375
2980.222	165.70833
2982.31	158.04167
2984.396	145.04167
2986.482	146.04167
2988.566	152.375
2990.648	155.04167
2992.73	160.04167
2994.81	142.04167
2996.889	159.70833
2998.966	152.04167
3001.042	165.375
3003.117	148.375
3005.191	157.70833
3007.263	160.375
3009.334	155.70833
3011.403	150.04167
3013.472	146.375
3015.539	162.04167
3017.604	166.375
3019.669	139.04167
3021.732	137.375
3023.794	146.70833
3025.854	135.70833
3027.914	134.04167
3029.971	136.375
3032.028	142.70833
3034.083	147.70833
3036.137	142.04167
3038.19	128.70833
3040.242	122.70833
3042.292	122.70833
3044.341	129.70833
3046.388	148.70833
3048.435	119.70833
3050.48	138.04167
3052.524	129.70833
3054.566	114.70833
3056.607	127.04167
3058.647	122.70833
3060.686	109.04167
3062.723	101.375
3064.759	104.375
3066.794	0.70833
3068.828	1.375
3070.86	2.04167
