-0.839	142.625
3.438	164.95833
7.711	70.29167
11.981	43.625
16.247	33.625
20.509	39.625
24.768	37.95833
29.024	44.625
33.276	32.625
37.524	41.625
41.769	31.625
46.01	27.625
50.247	42.95833
54.481	52.29167
58.712	56.625
62.939	38.29167
67.162	55.625
71.382	47.625
75.599	36.95833
79.812	42.625
84.021	64.625
88.227	45.95833
92.429	52.29167
96.628	39.625
100.823	49.95833
105.015	52.625
109.204	47.29167
113.388	59.625
117.57	43.625
121.748	60.95833
125.922	53.95833
130.093	68.95833
134.261	63.29167
138.425	54.29167
142.585	88.95833
146.742	65.625
150.896	82.95833
155.046	84.29167
159.193	114.95833
163.336	176.95833
167.476	312.29167
171.613	551.95833
175.746	883.95833
179.875	1283.29167
184.002	1663.29167
188.124	1991.625
192.244	2091.95833
196.36	2117.95833
200.472	2082.95833
204.581	2082.95833
208.687	2012.95833
212.79	2015.625
216.889	2041.95833
220.984	2071.95833
225.077	2077.625
229.165	2103.95833
233.251	2103.625
237.333	2131.625
241.412	2085.95833
245.487	2091.29167
249.559	2036.29167
253.628	2039.625
257.694	1993.29167
261.756	2006.95833
265.814	1955.29167
269.87	1919.29167
273.922	1886.29167
277.97	1819.625
282.016	1772.29167
286.058	1729.29167
290.097	1761.625
294.132	1745.29167
298.164	1757.29167
302.193	1696.29167
306.219	1628.29167
310.241	1528.625
314.26	1413.625
318.276	1326.625
322.288	1281.29167
326.297	1221.29167
330.303	1196.29167
334.305	1174.625
338.305	1174.29167
342.301	1159.29167
346.294	1173.29167
350.283	1162.625
354.269	1145.95833
358.252	1129.29167
362.232	1140.29167
366.209	1140.29167
370.182	1136.95833
374.152	1127.29167
378.119	1130.95833
382.083	1129.95833
386.043	1144.29167
390	1132.29167
393.954	1135.29167
397.905	1121.625
401.852	1137.95833
405.797	1122.95833
409.738	1103.625
413.676	1115.95833
417.61	1113.625
421.542	1103.95833
425.47	1080.625
429.396	1083.29167
433.318	1064.29167
437.236	1080.29167
441.152	1103.95833
445.065	1059.29167
448.974	1067.625
452.88	1055.625
456.783	1041.29167
460.683	1029.95833
464.58	1037.29167
468.473	1045.29167
472.364	1049.95833
476.251	1053.29167
480.135	1055.29167
484.016	1061.625
487.894	1060.95833
491.769	1069.29167
495.641	1058.29167
499.509	1068.625
503.375	1061.29167
507.237	1065.95833
511.096	1055.29167
514.952	1059.625
518.805	1051.625
522.655	1046.95833
526.502	1043.625
530.346	1068.625
534.187	1064.29167
538.024	1050.625
541.859	1041.625
545.69	1062.95833
549.519	1044.29167
553.344	1047.625
557.166	1027.625
560.985	1027.29167
564.802	1016.625
568.615	1022.29167
572.425	987.29167
576.232	1000.95833
580.036	991.625
583.836	1008.29167
587.634	1005.625
591.429	990.95833
595.221	1026.625
599.01	1018.95833
602.796	1026.625
606.578	1030.29167
610.358	1040.29167
614.135	1031.625
617.909	1010.95833
621.679	1006.625
625.447	995.29167
629.212	1003.95833
632.973	1009.625
636.732	1006.29167
640.488	1007.625
644.241	998.95833
647.991	980.95833
651.737	1023.29167
655.481	988.95833
659.222	1009.625
662.96	1007.29167
666.695	1027.625
670.427	1020.29167
674.156	1020.95833
677.882	1017.625
681.605	1026.625
685.325	988.29167
689.043	1014.625
692.757	983.625
696.468	987.95833
700.177	985.625
703.882	969.29167
707.585	963.625
711.284	963.625
714.981	959.625
718.675	968.29167
722.366	981.95833
726.054	968.95833
729.739	965.625
733.421	969.29167
737.1	960.29167
740.777	986.29167
744.45	961.95833
748.121	966.95833
751.789	1002.625
755.453	973.95833
759.115	992.29167
762.774	986.625
766.431	1006.95833
770.084	1004.625
773.734	995.625
777.382	1043.625
781.027	1036.95833
784.669	1039.29167
788.308	1020.625
791.944	1039.625
795.577	1052.625
799.208	1044.95833
802.835	1042.95833
806.46	1056.625
810.082	1081.29167
813.701	1080.29167
817.317	1094.95833
820.931	1077.625
824.542	1088.625
828.149	1056.95833
831.754	1031.95833
835.357	1032.95833
838.956	1045.95833
842.553	1033.625
846.146	1020.29167
849.737	999.95833
853.326	1021.29167
856.911	1004.29167
860.493	1032.29167
864.073	1021.29167
867.65	1046.95833
871.225	1049.95833
874.796	1037.625
878.365	1039.29167
881.931	1055.95833
885.494	1061.29167
889.054	1059.29167
892.612	1053.29167
896.166	1041.95833
899.719	1014.29167
903.268	1004.95833
906.814	1027.29167
910.358	1028.625
913.899	1007.29167
917.438	1009.95833
920.973	992.625
924.506	1013.29167
928.036	1040.625
931.564	1045.95833
935.088	1048.95833
938.61	1045.625
942.129	1027.625
945.646	1042.625
949.16	1073.29167
952.671	1095.29167
956.179	1107.625
959.685	1107.95833
963.188	1132.625
966.688	1125.29167
970.185	1065.29167
973.68	1035.29167
977.173	1028.625
980.662	1020.95833
984.149	1013.29167
987.633	990.29167
991.114	1016.625
994.593	1038.29167
998.069	1045.625
1001.542	1059.95833
1005.013	1076.29167
1008.481	1017.625
1011.947	992.29167
1015.409	973.625
1018.869	986.29167
1022.327	977.625
1025.782	966.29167
1029.234	977.95833
1032.683	976.625
1036.13	943.29167
1039.574	900.625
1043.016	885.29167
1046.455	870.625
1049.891	862.95833
1053.325	868.95833
1056.756	862.95833
1060.184	863.29167
1063.61	844.625
1067.033	879.95833
1070.454	856.95833
1073.872	873.95833
1077.287	858.29167
1080.7	861.95833
1084.11	865.29167
1087.517	866.29167
1090.922	852.95833
1094.325	845.29167
1097.724	837.95833
1101.122	828.625
1104.516	834.95833
1107.908	818.29167
1111.298	823.625
1114.684	839.29167
1118.069	843.625
1121.45	862.29167
1124.83	841.29167
1128.206	865.29167
1131.58	857.625
1134.951	890.625
1138.32	898.625
1141.687	937.95833
1145.05	952.29167
1148.412	957.95833
1151.77	954.625
1155.126	952.95833
1158.48	932.625
1161.831	941.29167
1165.18	952.625
1168.525	953.95833
1171.869	983.95833
1175.21	975.625
1178.548	982.625
1181.884	993.95833
1185.217	992.29167
1188.548	1027.95833
1191.877	1030.625
1195.202	1075.625
1198.526	1100.29167
1201.846	1104.95833
1205.165	1084.625
1208.48	1109.29167
1211.794	1120.625
1215.104	1103.95833
1218.413	1093.29167
1221.719	1075.29167
1225.022	1064.625
1228.323	1059.95833
1231.621	1040.625
1234.917	1053.625
1238.21	1071.625
1241.501	1041.625
1244.79	1030.95833
1248.076	1027.95833
1251.359	1050.29167
1254.64	1084.29167
1257.919	1075.29167
1261.195	1080.95833
1264.468	1099.29167
1267.74	1105.625
1271.008	1101.95833
1274.275	1126.29167
1277.538	1111.625
1280.8	1096.625
1284.059	1095.95833
1287.315	1127.29167
1290.569	1110.95833
1293.821	1132.29167
1297.07	1131.95833
1300.317	1139.29167
1303.562	1125.29167
1306.803	1138.95833
1310.043	1130.625
1313.28	1131.625
1316.515	1119.29167
1319.747	1118.29167
1322.977	1119.95833
1326.204	1104.625
1329.429	1099.625
1332.652	1112.29167
1335.872	1091.29167
1339.09	1086.29167
1342.306	1081.625
1345.519	1081.29167
1348.729	1068.625
1351.938	1074.95833
1355.144	1063.29167
1358.347	1043.625
1361.548	1038.29167
1364.747	1049.29167
1367.944	1020.95833
1371.138	1037.29167
1374.329	1019.95833
1377.518	1018.95833
1380.705	1024.29167
1383.89	1026.29167
1387.072	976.625
1390.252	958.95833
1393.429	943.625
1396.605	918.29167
1399.777	859.625
1402.948	865.95833
1406.116	849.95833
1409.282	861.95833
1412.445	854.625
1415.606	861.29167
1418.765	867.625
1421.921	878.29167
1425.075	892.95833
1428.227	924.29167
1431.376	953.95833
1434.524	978.625
1437.668	1005.29167
1440.811	1020.95833
1443.951	1014.95833
1447.089	1031.95833
1450.224	1037.625
1453.357	1020.625
1456.488	1021.29167
1459.617	1021.625
1462.743	1002.625
1465.867	960.95833
1468.989	974.29167
1472.108	963.625
1475.225	949.29167
1478.34	931.625
1481.453	931.625
1484.563	931.625
1487.671	931.95833
1490.776	943.29167
1493.88	952.29167
1496.981	978.95833
1500.08	974.29167
1503.176	978.625
1506.271	994.95833
1509.363	1024.95833
1512.452	1021.625
1515.54	1015.29167
1518.625	1042.95833
1521.708	1075.625
1524.789	1089.95833
1527.867	1127.29167
1530.944	1172.29167
1534.018	1193.29167
1537.089	1239.95833
1540.159	1245.29167
1543.226	1240.625
1546.291	1209.625
1549.354	1184.95833
1552.415	1161.625
1555.473	1136.95833
1558.529	1128.625
1561.583	1118.95833
1564.634	1122.95833
1567.684	1127.29167
1570.731	1129.29167
1573.776	1144.95833
1576.819	1168.29167
1579.859	1166.95833
1582.898	1189.625
1585.934	1198.625
1588.968	1221.29167
1591.999	1204.29167
1595.029	1186.625
1598.056	1197.625
1601.081	1224.625
1604.104	1224.29167
1607.125	1199.95833
1610.144	1186.625
1613.16	1159.29167
1616.174	1137.29167
1619.186	1146.95833
1622.196	1100.625
1625.203	1071.29167
1628.209	1079.95833
1631.212	1079.625
1634.213	1095.625
1637.212	1109.95833
1640.209	1112.95833
1643.203	1074.29167
1646.196	1038.625
1649.186	990.95833
1652.174	965.625
1655.16	920.95833
1658.144	927.29167
1661.125	867.95833
1664.105	817.29167
1667.082	788.95833
1670.057	736.29167
1673.03	695.625
1676.001	665.625
1678.97	621.29167
1681.937	601.95833
1684.901	562.95833
1687.863	549.95833
1690.824	521.95833
1693.782	523.625
1696.738	490.29167
1699.692	491.625
1702.643	472.29167
1705.593	475.29167
1708.54	461.95833
1711.486	472.95833
1714.429	451.29167
1717.37	465.29167
1720.309	449.625
1723.246	456.625
1726.181	429.625
1729.113	439.95833
1732.044	440.625
1734.972	429.625
1737.899	446.625
1740.823	441.95833
1743.745	451.29167
1746.665	417.95833
1749.583	413.625
1752.499	403.95833
1755.413	408.29167
1758.325	397.29167
1761.235	388.625
1764.142	385.625
1767.048	383.29167
1769.951	387.95833
1772.852	381.625
1775.752	390.29167
1778.649	381.95833
1781.544	391.625
1784.437	365.625
1787.328	379.29167
1790.217	380.625
1793.104	354.625
1795.989	356.29167
1798.872	353.95833
1801.753	375.625
1804.631	366.29167
1807.508	370.95833
1810.383	359.29167
1813.255	360.95833
1816.126	365.625
1818.994	356.95833
1821.861	360.29167
1824.725	355.95833
1827.587	369.625
1830.448	357.29167
1833.306	344.625
1836.162	350.625
1839.017	350.625
1841.869	345.95833
1844.719	347.95833
1847.567	332.95833
1850.414	327.95833
1853.258	331.625
1856.1	344.625
1858.94	354.29167
1861.778	337.29167
1864.614	327.95833
1867.448	343.95833
1870.28	324.625
1873.111	345.95833
1875.939	337.95833
1878.765	346.95833
1881.589	329.29167
1884.411	331.625
1887.231	343.29167
1890.049	334.95833
1892.865	339.95833
1895.68	327.29167
1898.492	335.95833
1901.302	321.625
1904.11	326.29167
1906.916	322.29167
1909.721	315.95833
1912.523	328.29167
1915.323	312.625
1918.122	310.95833
1920.918	329.625
1923.712	309.95833
1926.505	319.95833
1929.295	291.625
1932.084	314.625
1934.87	319.95833
1937.655	302.29167
1940.438	296.625
1943.218	304.29167
1945.997	311.29167
1948.774	325.29167
1951.549	320.625
1954.322	297.625
1957.093	299.95833
1959.862	308.95833
1962.629	304.95833
1965.394	304.95833
1968.157	287.29167
1970.918	308.29167
1973.678	293.625
1976.435	309.29167
1979.19	296.29167
1981.944	282.625
1984.696	288.95833
1987.445	285.95833
1990.193	289.625
1992.939	302.29167
1995.683	291.95833
1998.425	271.625
2001.165	301.625
2003.903	272.29167
2006.639	281.29167
2009.374	298.29167
2012.106	291.95833
2014.837	261.95833
2017.566	290.625
2020.292	280.95833
2023.017	279.29167
2025.74	274.625
2028.461	269.95833
2031.18	281.29167
2033.898	269.95833
2036.613	270.625
2039.327	281.95833
2042.038	266.95833
2044.748	273.95833
2047.456	276.625
2050.162	258.29167
2052.866	270.625
2055.568	279.29167
2058.268	271.95833
2060.967	277.29167
2063.663	253.29167
2066.358	262.625
2069.051	253.29167
2071.742	268.95833
2074.431	270.29167
2077.118	257.625
2079.804	252.95833
2082.487	257.95833
2085.169	269.95833
2087.849	276.95833
2090.527	256.95833
2093.203	263.29167
2095.877	262.625
2098.55	271.625
2101.22	269.29167
2103.889	277.29167
2106.556	263.29167
2109.221	276.95833
2111.884	269.625
2114.546	291.625
2117.205	284.95833
2119.863	321.625
2122.519	311.625
2125.173	339.29167
2127.825	373.29167
2130.475	376.95833
2133.124	352.625
2135.771	335.95833
2138.416	357.29167
2141.059	331.95833
2143.7	316.29167
2146.339	294.29167
2148.977	269.95833
2151.613	274.625
2154.247	277.625
2156.879	268.625
2159.51	247.29167
2162.138	265.29167
2164.765	258.95833
2167.39	243.29167
2170.013	270.95833
2172.634	264.95833
2175.254	247.625
2177.872	288.29167
2180.488	244.625
2183.102	245.95833
2185.714	243.625
2188.325	234.95833
2190.934	253.95833
2193.541	246.95833
2196.146	237.29167
2198.75	235.625
2201.351	226.29167
2203.951	215.625
2206.549	238.29167
2209.146	219.625
2211.74	218.29167
2214.333	231.625
2216.924	217.625
2219.514	222.95833
2222.101	224.625
2224.687	233.625
2227.271	210.625
2229.853	219.29167
2232.433	202.95833
2235.012	229.625
2237.589	228.625
2240.164	231.95833
2242.738	219.625
2245.309	206.29167
2247.879	228.95833
2250.448	227.625
2253.014	204.29167
2255.579	197.625
2258.142	203.29167
2260.703	205.29167
2263.262	204.95833
2265.82	197.29167
2268.376	213.29167
2270.93	203.95833
2273.483	195.29167
2276.033	205.625
2278.583	194.29167
2281.13	194.625
2283.675	183.95833
2286.219	194.29167
2288.761	204.95833
2291.302	199.29167
2293.841	207.29167
2296.377	187.625
2298.913	198.29167
2301.446	207.95833
2303.978	193.625
2306.508	198.95833
2309.037	199.625
2311.563	197.95833
2314.088	198.29167
2316.612	184.95833
2319.133	201.29167
2321.653	195.95833
2324.171	187.625
2326.688	199.95833
2329.202	194.29167
2331.715	189.625
2334.227	191.29167
2336.736	186.625
2339.244	188.625
2341.751	171.95833
2344.255	192.29167
2346.758	189.95833
2349.259	172.625
2351.759	187.29167
2354.257	174.29167
2356.753	169.29167
2359.247	174.29167
2361.74	179.625
2364.231	178.95833
2366.721	184.95833
2369.209	171.625
2371.695	176.29167
2374.179	171.29167
2376.662	167.95833
2379.143	188.625
2381.622	173.625
2384.1	183.625
2386.576	174.29167
2389.051	189.625
2391.524	190.625
2393.995	173.29167
2396.464	166.29167
2398.932	167.29167
2401.398	179.625
2403.863	171.95833
2406.325	165.625
2408.787	173.625
2411.246	176.29167
2413.704	171.625
2416.16	162.95833
2418.615	168.95833
2421.068	170.625
2423.519	168.95833
2425.969	158.29167
2428.417	175.625
2430.863	193.625
2433.308	175.29167
2435.751	172.625
2438.193	170.29167
2440.633	167.95833
2443.071	178.95833
2445.508	164.625
2447.943	168.625
2450.376	160.29167
2452.808	170.29167
2455.238	152.29167
2457.667	183.29167
2460.093	164.625
2462.519	149.29167
2464.942	158.29167
2467.365	163.625
2469.785	169.95833
2472.204	163.29167
2474.621	162.95833
2477.037	172.29167
2479.451	149.625
2481.863	148.95833
2484.274	152.29167
2486.683	161.29167
2489.091	173.95833
2491.497	162.95833
2493.901	158.29167
2496.304	154.95833
2498.705	164.29167
2501.105	161.95833
2503.503	170.95833
2505.899	146.625
2508.294	174.625
2510.687	150.29167
2513.079	156.95833
2515.469	144.95833
2517.858	147.95833
2520.245	165.95833
2522.63	154.95833
2525.014	144.95833
2527.396	154.625
2529.776	147.29167
2532.156	155.29167
2534.533	144.625
2536.909	141.29167
2539.283	129.29167
2541.656	147.95833
2544.027	163.95833
2546.397	157.625
2548.765	146.29167
2551.131	149.95833
2553.496	154.29167
2555.86	154.625
2558.221	160.95833
2560.582	143.625
2562.94	135.625
2565.298	148.625
2567.653	153.29167
2570.007	134.29167
2572.36	148.95833
2574.711	139.95833
2577.06	159.95833
2579.408	149.95833
2581.754	143.625
2584.099	148.29167
2586.442	143.29167
2588.784	156.95833
2591.124	146.29167
2593.463	144.625
2595.8	146.625
2598.135	129.625
2600.469	133.29167
2602.802	152.625
2605.133	155.625
2607.462	138.625
2609.79	132.29167
2612.116	150.95833
2614.441	136.625
2616.764	144.625
2619.086	143.29167
2621.406	139.95833
2623.725	157.625
2626.042	146.29167
2628.358	134.95833
2630.672	137.95833
2632.985	146.625
2635.296	141.29167
2637.606	138.29167
2639.914	134.95833
2642.22	137.625
2644.525	136.625
2646.829	141.625
2649.131	153.95833
2651.432	146.29167
2653.731	138.95833
2656.028	149.95833
2658.324	145.625
2660.619	133.29167
2662.912	146.625
2665.204	129.29167
2667.494	146.625
2669.782	134.29167
2672.07	150.29167
2674.355	152.29167
2676.639	140.29167
2678.922	141.95833
2681.203	144.29167
2683.483	134.29167
2685.761	123.625
2688.038	140.29167
2690.313	149.95833
2692.587	141.625
2694.859	136.95833
2697.13	138.95833
2699.399	143.95833
2701.667	153.625
2703.933	141.95833
2706.198	148.625
2708.461	152.29167
2710.723	150.625
2712.984	143.625
2715.243	145.29167
2717.5	140.95833
2719.757	154.625
2722.011	144.95833
2724.264	151.625
2726.516	153.625
2728.766	130.95833
2731.015	149.625
2733.262	140.625
2735.508	139.29167
2737.753	151.625
2739.996	133.625
2742.237	132.625
2744.477	147.625
2746.716	153.95833
2748.953	152.625
2751.189	151.625
2753.423	147.625
2755.656	132.625
2757.887	133.95833
2760.117	136.625
2762.346	130.625
2764.573	121.95833
2766.798	132.625
2769.022	133.625
2771.245	132.625
2773.467	133.95833
2775.686	132.95833
2777.905	136.625
2780.122	133.29167
2782.337	139.29167
2784.552	126.95833
2786.764	134.29167
2788.976	124.95833
2791.186	132.95833
2793.394	134.29167
2795.601	141.625
2797.807	144.95833
2800.011	136.29167
2802.214	144.625
2804.415	144.95833
2806.615	143.29167
2808.814	144.29167
2811.011	147.29167
2813.206	143.95833
2815.401	153.95833
2817.594	156.625
2819.785	157.29167
2821.975	136.625
2824.164	153.625
2826.351	147.625
2828.537	161.29167
2830.722	165.95833
2832.905	157.625
2835.086	161.29167
2837.267	189.95833
2839.445	177.625
2841.623	178.29167
2843.799	188.29167
2845.974	201.29167
2848.147	190.29167
2850.319	217.29167
2852.489	222.625
2854.659	219.29167
2856.826	220.95833
2858.993	245.29167
2861.158	216.625
2863.321	229.95833
2865.483	241.95833
2867.644	237.625
2869.804	235.95833
2871.962	231.625
2874.118	242.95833
2876.274	234.29167
2878.428	234.29167
2880.58	237.625
2882.731	227.95833
2884.881	239.95833
2887.03	238.29167
2889.177	230.95833
2891.322	249.29167
2893.467	230.95833
2895.61	237.95833
2897.751	245.95833
2899.892	245.625
2902.03	246.29167
2904.168	244.95833
2906.304	245.29167
2908.439	256.95833
2910.572	240.625
2912.704	252.95833
2914.835	260.625
2916.965	256.95833
2919.093	270.29167
2921.219	236.95833
2923.345	270.29167
2925.469	255.625
2927.591	245.29167
2929.712	235.625
2931.832	243.95833
2933.951	242.95833
2936.068	234.625
2938.184	226.95833
2940.299	228.29167
2942.412	217.625
2944.524	204.95833
2946.634	212.625
2948.744	185.625
2950.851	212.29167
2952.958	186.95833
2955.063	193.625
2957.167	181.95833
2959.269	172.29167
2961.371	195.95833
2963.471	171.95833
2965.569	185.625
2967.666	155.625
2969.762	158.95833
2971.857	151.95833
2973.95	147.29167
2976.042	162.625
2978.133	146.625
2980.222	149.625
2982.31	135.625
2984.396	123.625
2986.482	128.29167
2988.566	133.95833
2990.648	134.29167
2992.73	128.95833
2994.81	117.29167
2996.889	135.29167
2998.966	130.29167
3001.042	134.95833
3003.117	125.95833
3005.191	126.95833
3007.263	133.29167
3009.334	127.625
3011.403	129.95833
3013.472	118.29167
3015.539	129.625
3017.604	142.29167
3019.669	111.29167
3021.732	117.29167
3023.794	116.95833
3025.854	109.95833
3027.914	107.29167
3029.971	108.95833
3032.028	110.29167
3034.083	117.625
3036.137	113.29167
3038.19	102.95833
3040.242	98.29167
3042.292	95.95833
3044.341	103.625
3046.388	119.95833
3048.435	98.625
3050.48	115.95833
3052.524	100.95833
3054.566	88.625
3056.607	102.95833
3058.647	96.625
3060.686	86.95833
3062.723	83.625
3064.759	85.29167
3066.794	0.29167
3068.828	0.29167
3070.86	2.95833
