-0.839	127.45833
3.438	149.79167
7.711	66.45833
11.981	41.79167
16.247	30.79167
20.509	39.125
24.768	35.45833
29.024	41.45833
33.276	29.45833
37.524	39.125
41.769	29.45833
46.01	26.45833
50.247	43.125
54.481	49.125
58.712	55.125
62.939	35.125
67.162	56.45833
71.382	48.79167
75.599	35.45833
79.812	43.125
84.021	63.125
88.227	42.79167
92.429	50.79167
96.628	34.45833
100.823	50.125
105.015	52.125
109.204	49.45833
113.388	57.79167
117.57	43.79167
121.748	58.125
125.922	47.125
130.093	68.45833
134.261	68.125
138.425	53.45833
142.585	85.79167
146.742	66.79167
150.896	80.79167
155.046	74.125
159.193	114.79167
163.336	165.79167
167.476	279.45833
171.613	510.125
175.746	816.45833
179.875	1208.45833
184.002	1551.125
188.124	1845.45833
192.244	1925.45833
196.36	1951.45833
200.472	1947.79167
204.581	1921.125
208.687	1886.79167
212.79	1905.125
216.889	1923.125
220.984	1941.45833
225.077	1961.45833
229.165	1965.45833
233.251	1972.125
237.333	1969.45833
241.412	1971.79167
245.487	1969.45833
249.559	1919.79167
253.628	1944.45833
257.694	1896.79167
261.756	1892.79167
265.814	1860.125
269.87	1830.45833
273.922	1778.45833
277.97	1738.45833
282.016	1709.125
286.058	1668.125
290.097	1670.125
294.132	1681.125
298.164	1669.79167
302.193	1632.45833
306.219	1565.125
310.241	1472.79167
314.26	1376.45833
318.276	1306.45833
322.288	1268.125
326.297	1231.45833
330.303	1207.125
334.305	1194.45833
338.305	1179.45833
342.301	1184.45833
346.294	1164.125
350.283	1174.45833
354.269	1166.125
358.252	1139.125
362.232	1153.125
366.209	1153.79167
370.182	1155.79167
374.152	1142.45833
378.119	1148.125
382.083	1149.125
386.043	1168.79167
390	1151.125
393.954	1158.79167
397.905	1143.125
401.852	1152.79167
405.797	1141.125
409.738	1136.125
413.676	1165.79167
417.61	1150.125
421.542	1138.45833
425.47	1121.45833
429.396	1110.125
433.318	1103.125
437.236	1106.45833
441.152	1146.45833
445.065	1082.45833
448.974	1091.125
452.88	1084.45833
456.783	1084.45833
460.683	1083.45833
464.58	1092.45833
468.473	1088.79167
472.364	1080.45833
476.251	1083.125
480.135	1079.79167
484.016	1122.79167
487.894	1102.79167
491.769	1102.45833
495.641	1087.79167
499.509	1108.45833
503.375	1111.45833
507.237	1113.45833
511.096	1098.79167
514.952	1121.79167
518.805	1118.45833
522.655	1117.125
526.502	1091.125
530.346	1101.45833
534.187	1091.79167
538.024	1094.45833
541.859	1082.45833
545.69	1107.125
549.519	1080.79167
553.344	1079.125
557.166	1055.79167
560.985	1069.79167
564.802	1059.45833
568.615	1054.79167
572.425	1027.125
576.232	1009.125
580.036	1031.45833
583.836	1042.45833
587.634	1033.45833
591.429	1023.45833
595.221	1062.125
599.01	1061.79167
602.796	1049.125
606.578	1069.125
610.358	1066.125
614.135	1059.125
617.909	1059.45833
621.679	1045.79167
625.447	1035.79167
629.212	1051.45833
632.973	1045.45833
636.732	1039.45833
640.488	1045.125
644.241	1027.45833
647.991	1018.79167
651.737	1063.79167
655.481	1038.125
659.222	1028.79167
662.96	1045.79167
666.695	1044.45833
670.427	1038.125
674.156	1053.79167
677.882	1045.45833
681.605	1039.45833
685.325	1019.79167
689.043	1041.125
692.757	1023.125
696.468	1020.79167
700.177	1020.79167
703.882	1007.45833
707.585	989.125
711.284	1000.125
714.981	974.79167
718.675	1002.79167
722.366	1013.45833
726.054	977.79167
729.739	985.125
733.421	986.79167
737.1	984.45833
740.777	1004.79167
744.45	989.125
748.121	1010.125
751.789	1017.125
755.453	1005.79167
759.115	1014.125
762.774	998.79167
766.431	1011.45833
770.084	1017.125
773.734	1011.125
777.382	1042.125
781.027	1029.125
784.669	1033.125
788.308	1021.79167
791.944	1033.79167
795.577	1041.79167
799.208	1039.45833
802.835	1051.125
806.46	1055.125
810.082	1053.79167
813.701	1061.125
817.317	1087.45833
820.931	1077.79167
824.542	1080.45833
828.149	1054.45833
831.754	1032.45833
835.357	1010.45833
838.956	1035.125
842.553	1027.45833
846.146	1026.79167
849.737	1010.45833
853.326	1018.79167
856.911	990.79167
860.493	1032.79167
864.073	1016.45833
867.65	1037.79167
871.225	1054.45833
874.796	1040.79167
878.365	1028.45833
881.931	1038.125
885.494	1045.125
889.054	1031.79167
892.612	1028.45833
896.166	1022.79167
899.719	1002.79167
903.268	994.45833
906.814	1008.79167
910.358	988.125
913.899	1006.45833
917.438	989.45833
920.973	965.79167
924.506	981.45833
928.036	1006.125
931.564	1015.125
935.088	1035.79167
938.61	1007.125
942.129	1011.79167
945.646	1017.125
949.16	1025.125
952.671	1043.79167
956.179	1063.125
959.685	1063.125
963.188	1080.125
966.688	1075.45833
970.185	1034.125
973.68	1018.79167
977.173	1005.79167
980.662	974.79167
984.149	995.79167
987.633	969.79167
991.114	987.45833
994.593	999.79167
998.069	1016.45833
1001.542	1068.45833
1005.013	1022.125
1008.481	974.45833
1011.947	965.79167
1015.409	954.45833
1018.869	945.45833
1022.327	965.79167
1025.782	943.45833
1029.234	938.45833
1032.683	929.45833
1036.13	909.125
1039.574	884.79167
1043.016	860.45833
1046.455	855.125
1049.891	835.125
1053.325	831.79167
1056.756	827.125
1060.184	837.79167
1063.61	821.125
1067.033	850.45833
1070.454	836.79167
1073.872	856.125
1077.287	839.125
1080.7	852.125
1084.11	837.45833
1087.517	842.79167
1090.922	827.79167
1094.325	813.79167
1097.724	810.125
1101.122	804.79167
1104.516	821.45833
1107.908	797.125
1111.298	806.79167
1114.684	833.79167
1118.069	809.45833
1121.45	827.45833
1124.83	805.125
1128.206	845.125
1131.58	835.79167
1134.951	852.125
1138.32	844.45833
1141.687	884.45833
1145.05	906.79167
1148.412	915.79167
1151.77	902.125
1155.126	904.79167
1158.48	902.45833
1161.831	896.79167
1165.18	900.45833
1168.525	915.79167
1171.869	924.125
1175.21	905.45833
1178.548	935.79167
1181.884	938.79167
1185.217	947.45833
1188.548	963.79167
1191.877	962.125
1195.202	1010.79167
1198.526	1035.125
1201.846	1018.125
1205.165	1039.45833
1208.48	1024.79167
1211.794	1039.45833
1215.104	1024.45833
1218.413	1015.79167
1221.719	1013.45833
1225.022	988.125
1228.323	974.45833
1231.621	977.45833
1234.917	985.125
1238.21	1001.45833
1241.501	970.79167
1244.79	978.79167
1248.076	953.125
1251.359	978.45833
1254.64	1028.79167
1257.919	986.79167
1261.195	999.45833
1264.468	1015.45833
1267.74	1016.79167
1271.008	1026.79167
1274.275	1033.79167
1277.538	1026.125
1280.8	1027.45833
1284.059	1025.125
1287.315	1027.79167
1290.569	1019.79167
1293.821	1030.45833
1297.07	1028.45833
1300.317	1031.125
1303.562	1042.125
1306.803	1041.125
1310.043	1026.79167
1313.28	1019.45833
1316.515	1025.45833
1319.747	1024.45833
1322.977	1024.45833
1326.204	1003.79167
1329.429	1011.125
1332.652	1019.45833
1335.872	1017.125
1339.09	988.125
1342.306	991.79167
1345.519	983.45833
1348.729	991.79167
1351.938	991.79167
1355.144	969.79167
1358.347	954.125
1361.548	974.125
1364.747	965.45833
1367.944	956.45833
1371.138	945.45833
1374.329	949.125
1377.518	945.125
1380.705	943.79167
1383.89	947.125
1387.072	916.79167
1390.252	902.45833
1393.429	872.79167
1396.605	841.45833
1399.777	826.45833
1402.948	815.45833
1406.116	813.45833
1409.282	936.45833
1412.445	893.45833
1415.606	822.125
1418.765	800.125
1421.921	818.79167
1425.075	814.79167
1428.227	849.125
1431.376	877.79167
1434.524	911.79167
1437.668	913.79167
1440.811	941.125
1443.951	937.125
1447.089	954.79167
1450.224	939.125
1453.357	940.45833
1456.488	926.45833
1459.617	926.125
1462.743	916.79167
1465.867	892.45833
1468.989	885.45833
1472.108	876.125
1475.225	867.125
1478.34	840.79167
1481.453	860.125
1484.563	852.125
1487.671	862.45833
1490.776	889.125
1493.88	874.45833
1496.981	897.45833
1500.08	893.125
1503.176	882.79167
1506.271	903.79167
1509.363	926.45833
1512.452	910.45833
1515.54	926.125
1518.625	934.79167
1521.708	966.125
1524.789	987.125
1527.867	1019.125
1530.944	1070.79167
1534.018	1079.79167
1537.089	1129.79167
1540.159	1125.125
1543.226	1113.45833
1546.291	1105.125
1549.354	1076.79167
1552.415	1053.45833
1555.473	1035.125
1558.529	1036.45833
1561.583	1023.125
1564.634	1000.125
1567.684	1020.45833
1570.731	1015.125
1573.776	1019.125
1576.819	1035.45833
1579.859	1049.45833
1582.898	1068.45833
1585.934	1071.45833
1588.968	1081.79167
1591.999	1038.79167
1595.029	1054.125
1598.056	1065.45833
1601.081	1078.79167
1604.104	1071.79167
1607.125	1070.79167
1610.144	1059.79167
1613.16	1021.125
1616.174	1010.45833
1619.186	998.45833
1622.196	980.45833
1625.203	952.125
1628.209	962.79167
1631.212	953.125
1634.213	969.79167
1637.212	991.79167
1640.209	982.45833
1643.203	960.125
1646.196	927.45833
1649.186	883.79167
1652.174	869.79167
1655.16	838.79167
1658.144	832.45833
1661.125	777.45833
1664.105	756.45833
1667.082	720.79167
1670.057	683.125
1673.03	641.79167
1676.001	624.79167
1678.97	579.79167
1681.937	554.125
1684.901	526.79167
1687.863	529.45833
1690.824	495.125
1693.782	500.45833
1696.738	468.45833
1699.692	465.45833
1702.643	457.125
1705.593	457.45833
1708.54	455.45833
1711.486	462.79167
1714.429	437.125
1717.37	441.79167
1720.309	427.125
1723.246	432.125
1726.181	412.79167
1729.113	416.125
1732.044	430.125
1734.972	417.125
1737.899	437.45833
1740.823	429.45833
1743.745	454.45833
1746.665	408.45833
1749.583	406.79167
1752.499	398.45833
1755.413	394.79167
1758.325	377.45833
1761.235	388.79167
1764.142	371.79167
1767.048	370.125
1769.951	381.79167
1772.852	375.79167
1775.752	382.125
1778.649	381.79167
1781.544	394.45833
1784.437	364.125
1787.328	369.125
1790.217	363.79167
1793.104	356.79167
1795.989	356.79167
1798.872	349.45833
1801.753	372.45833
1804.631	348.125
1807.508	364.45833
1810.383	359.125
1813.255	355.125
1816.126	350.79167
1818.994	351.45833
1821.861	343.79167
1824.725	356.125
1827.587	352.125
1830.448	338.125
1833.306	335.79167
1836.162	353.45833
1839.017	339.125
1841.869	335.45833
1844.719	340.79167
1847.567	321.45833
1850.414	319.125
1853.258	320.45833
1856.1	333.79167
1858.94	342.125
1861.778	332.79167
1864.614	324.79167
1867.448	332.79167
1870.28	324.125
1873.111	336.79167
1875.939	326.45833
1878.765	342.79167
1881.589	316.79167
1884.411	334.45833
1887.231	327.45833
1890.049	321.79167
1892.865	328.79167
1895.68	313.125
1898.492	320.79167
1901.302	322.125
1904.11	312.125
1906.916	318.45833
1909.721	310.79167
1912.523	325.45833
1915.323	307.45833
1918.122	304.79167
1920.918	317.125
1923.712	301.79167
1926.505	307.125
1929.295	295.45833
1932.084	307.45833
1934.87	303.79167
1937.655	296.45833
1940.438	292.79167
1943.218	305.125
1945.997	302.79167
1948.774	309.79167
1951.549	306.45833
1954.322	289.125
1957.093	298.79167
1959.862	296.125
1962.629	291.45833
1965.394	288.79167
1968.157	287.45833
1970.918	301.45833
1973.678	284.79167
1976.435	301.45833
1979.19	291.79167
1981.944	281.45833
1984.696	285.125
1987.445	279.45833
1990.193	282.45833
1992.939	297.79167
1995.683	283.125
1998.425	270.125
2001.165	297.79167
2003.903	269.79167
2006.639	274.125
2009.374	285.45833
2012.106	281.125
2014.837	253.125
2017.566	281.45833
2020.292	272.125
2023.017	270.125
2025.74	268.79167
2028.461	263.45833
2031.18	268.79167
2033.898	260.79167
2036.613	269.125
2039.327	274.79167
2042.038	262.45833
2044.748	268.125
2047.456	270.125
2050.162	249.125
2052.866	267.125
2055.568	271.45833
2058.268	254.45833
2060.967	276.125
2063.663	248.79167
2066.358	251.45833
2069.051	250.45833
2071.742	262.79167
2074.431	263.45833
2077.118	255.125
2079.804	243.79167
2082.487	263.45833
2085.169	262.45833
2087.849	284.125
2090.527	250.79167
2093.203	256.125
2095.877	253.125
2098.55	262.79167
2101.22	263.79167
2103.889	260.79167
2106.556	250.79167
2109.221	268.45833
2111.884	256.125
2114.546	278.45833
2117.205	279.45833
2119.863	303.125
2122.519	293.79167
2125.173	317.125
2127.825	339.125
2130.475	344.79167
2133.124	327.125
2135.771	315.79167
2138.416	328.125
2141.059	299.79167
2143.7	308.125
2146.339	284.45833
2148.977	250.45833
2151.613	278.45833
2154.247	264.45833
2156.879	257.45833
2159.51	246.45833
2162.138	249.79167
2164.765	254.79167
2167.39	236.45833
2170.013	265.45833
2172.634	260.125
2175.254	244.125
2177.872	277.45833
2180.488	241.79167
2183.102	235.79167
2185.714	239.125
2188.325	223.79167
2190.934	238.125
2193.541	243.45833
2196.146	242.45833
2198.75	217.125
2201.351	223.125
2203.951	209.45833
2206.549	227.79167
2209.146	220.45833
2211.74	212.125
2214.333	228.125
2216.924	211.125
2219.514	217.79167
2222.101	216.45833
2224.687	229.125
2227.271	212.45833
2229.853	214.79167
2232.433	198.79167
2235.012	218.125
2237.589	220.125
2240.164	226.79167
2242.738	210.125
2245.309	202.79167
2247.879	225.45833
2250.448	217.125
2253.014	197.45833
2255.579	194.79167
2258.142	206.45833
2260.703	202.125
2263.262	193.79167
2265.82	190.125
2268.376	205.45833
2270.93	190.79167
2273.483	185.125
2276.033	209.79167
2278.583	189.125
2281.13	191.79167
2283.675	181.45833
2286.219	192.79167
2288.761	196.125
2291.302	206.45833
2293.841	204.79167
2296.377	183.79167
2298.913	202.79167
2301.446	206.125
2303.978	191.79167
2306.508	192.125
2309.037	195.79167
2311.563	192.79167
2314.088	189.125
2316.612	176.45833
2319.133	192.125
2321.653	189.79167
2324.171	178.125
2326.688	194.45833
2329.202	188.79167
2331.715	192.45833
2334.227	185.79167
2336.736	191.79167
2339.244	180.125
2341.751	170.125
2344.255	187.79167
2346.758	184.125
2349.259	175.125
2351.759	187.45833
2354.257	172.45833
2356.753	170.79167
2359.247	175.125
2361.74	182.125
2364.231	177.125
2366.721	183.79167
2369.209	170.125
2371.695	173.125
2374.179	175.45833
2376.662	167.125
2379.143	191.45833
2381.622	176.125
2384.1	185.125
2386.576	171.79167
2389.051	187.125
2391.524	191.45833
2393.995	183.45833
2396.464	169.45833
2398.932	170.45833
2401.398	175.45833
2403.863	165.79167
2406.325	172.125
2408.787	177.125
2411.246	169.79167
2413.704	173.125
2416.16	168.45833
2418.615	169.125
2421.068	171.45833
2423.519	171.79167
2425.969	160.45833
2428.417	179.79167
2430.863	194.79167
2433.308	170.45833
2435.751	173.79167
2438.193	171.79167
2440.633	175.79167
2443.071	181.125
2445.508	166.79167
2447.943	164.125
2450.376	164.45833
2452.808	166.79167
2455.238	161.79167
2457.667	187.79167
2460.093	157.79167
2462.519	156.45833
2464.942	155.45833
2467.365	168.45833
2469.785	166.45833
2472.204	155.45833
2474.621	154.125
2477.037	177.45833
2479.451	153.79167
2481.863	153.79167
2484.274	154.79167
2486.683	163.125
2489.091	168.79167
2491.497	171.45833
2493.901	164.125
2496.304	158.125
2498.705	165.125
2501.105	163.45833
2503.503	175.125
2505.899	159.45833
2508.294	174.125
2510.687	154.45833
2513.079	163.45833
2515.469	148.79167
2517.858	155.79167
2520.245	172.45833
2522.63	159.125
2525.014	152.79167
2527.396	154.125
2529.776	147.79167
2532.156	157.79167
2534.533	148.45833
2536.909	145.45833
2539.283	137.79167
2541.656	150.79167
2544.027	162.125
2546.397	161.125
2548.765	151.79167
2551.131	154.79167
2553.496	162.79167
2555.86	158.45833
2558.221	161.79167
2560.582	149.79167
2562.94	141.45833
2565.298	156.79167
2567.653	168.79167
2570.007	142.125
2572.36	162.79167
2574.711	146.79167
2577.06	162.45833
2579.408	157.125
2581.754	148.125
2584.099	151.125
2586.442	150.125
2588.784	153.45833
2591.124	147.45833
2593.463	147.79167
2595.8	155.79167
2598.135	140.125
2600.469	145.45833
2602.802	160.125
2605.133	161.125
2607.462	145.125
2609.79	138.125
2612.116	158.125
2614.441	144.125
2616.764	152.45833
2619.086	150.125
2621.406	141.125
2623.725	159.125
2626.042	148.45833
2628.358	137.125
2630.672	146.125
2632.985	158.125
2635.296	148.79167
2637.606	147.79167
2639.914	142.45833
2642.22	145.125
2644.525	148.45833
2646.829	152.79167
2649.131	162.45833
2651.432	154.125
2653.731	146.79167
2656.028	158.45833
2658.324	153.79167
2660.619	135.45833
2662.912	161.45833
2665.204	134.79167
2667.494	153.79167
2669.782	147.125
2672.07	158.45833
2674.355	162.79167
2676.639	156.125
2678.922	150.79167
2681.203	152.125
2683.483	152.79167
2685.761	129.45833
2688.038	156.79167
2690.313	163.125
2692.587	154.125
2694.859	148.79167
2697.13	155.79167
2699.399	150.79167
2701.667	156.79167
2703.933	148.79167
2706.198	162.79167
2708.461	158.45833
2710.723	158.125
2712.984	157.45833
2715.243	170.125
2717.5	153.45833
2719.757	163.125
2722.011	146.45833
2724.264	165.79167
2726.516	171.125
2728.766	152.125
2731.015	157.125
2733.262	153.45833
2735.508	157.125
2737.753	158.79167
2739.996	143.125
2742.237	148.79167
2744.477	159.79167
2746.716	165.45833
2748.953	163.125
2751.189	164.125
2753.423	161.125
2755.656	145.45833
2757.887	151.45833
2760.117	151.79167
2762.346	149.45833
2764.573	138.79167
2766.798	147.79167
2769.022	149.45833
2771.245	139.125
2773.467	152.45833
2775.686	149.125
2777.905	153.125
2780.122	144.45833
2782.337	149.45833
2784.552	144.45833
2786.764	148.45833
2788.976	145.45833
2791.186	160.79167
2793.394	152.79167
2795.601	153.125
2797.807	156.79167
2800.011	155.79167
2802.214	162.79167
2804.415	156.79167
2806.615	159.125
2808.814	157.125
2811.011	168.79167
2813.206	159.125
2815.401	165.125
2817.594	168.45833
2819.785	167.79167
2821.975	163.45833
2824.164	165.79167
2826.351	163.45833
2828.537	185.45833
2830.722	174.79167
2832.905	171.45833
2835.086	180.45833
2837.267	199.79167
2839.445	186.45833
2841.623	192.125
2843.799	196.79167
2845.974	203.45833
2848.147	209.45833
2850.319	216.125
2852.489	221.45833
2854.659	225.79167
2856.826	223.125
2858.993	249.79167
2861.158	221.125
2863.321	225.79167
2865.483	245.125
2867.644	239.125
2869.804	236.45833
2871.962	234.45833
2874.118	237.45833
2876.274	239.45833
2878.428	239.79167
2880.58	243.79167
2882.731	225.45833
2884.881	233.125
2887.03	247.79167
2889.177	237.79167
2891.322	246.79167
2893.467	243.125
2895.61	237.125
2897.751	243.79167
2899.892	243.79167
2902.03	245.45833
2904.168	240.79167
2906.304	237.79167
2908.439	255.45833
2910.572	246.125
2912.704	248.125
2914.835	254.45833
2916.965	251.45833
2919.093	265.45833
2921.219	241.125
2923.345	269.125
2925.469	253.125
2927.591	242.79167
2929.712	241.79167
2931.832	248.79167
2933.951	238.79167
2936.068	231.125
2938.184	230.125
2940.299	228.125
2942.412	218.45833
2944.524	203.79167
2946.634	217.79167
2948.744	187.45833
2950.851	228.125
2952.958	197.45833
2955.063	203.79167
2957.167	195.79167
2959.269	184.45833
2961.371	212.45833
2963.471	184.79167
2965.569	196.79167
2967.666	176.125
2969.762	172.125
2971.857	170.79167
2973.95	167.125
2976.042	181.79167
2978.133	173.45833
2980.222	162.45833
2982.31	156.45833
2984.396	140.79167
2986.482	145.125
2988.566	160.125
2990.648	156.79167
2992.73	148.125
2994.81	140.125
2996.889	154.79167
2998.966	149.45833
3001.042	154.45833
3003.117	146.125
3005.191	151.45833
3007.263	150.125
3009.334	145.79167
3011.403	144.45833
3013.472	141.125
3015.539	153.45833
3017.604	170.125
3019.669	128.79167
3021.732	141.125
3023.794	140.125
3025.854	138.45833
3027.914	128.79167
3029.971	137.79167
3032.028	134.45833
3034.083	141.79167
3036.137	136.125
3038.19	122.125
3040.242	119.125
3042.292	121.79167
3044.341	122.79167
3046.388	143.45833
3048.435	115.45833
3050.48	140.45833
3052.524	122.79167
3054.566	108.79167
3056.607	125.79167
3058.647	122.125
3060.686	105.79167
3062.723	106.79167
3064.759	101.45833
3066.794	0.79167
3068.828	-0.875
3070.86	3.125
