-0.839	126.625
3.438	146.625
7.711	64.625
11.981	42.625
16.247	33.29167
20.509	42.29167
24.768	36.95833
29.024	45.29167
33.276	31.625
37.524	42.625
41.769	30.95833
46.01	29.95833
50.247	44.625
54.481	50.29167
58.712	51.95833
62.939	35.95833
67.162	55.29167
71.382	43.29167
75.599	39.29167
79.812	45.29167
84.021	63.29167
88.227	41.29167
92.429	51.625
96.628	37.625
100.823	52.95833
105.015	51.29167
109.204	45.95833
113.388	58.95833
117.57	45.95833
121.748	61.29167
125.922	49.95833
130.093	65.625
134.261	62.29167
138.425	54.95833
142.585	83.625
146.742	66.29167
150.896	82.625
155.046	75.29167
159.193	114.95833
163.336	167.625
167.476	287.625
171.613	502.95833
175.746	825.625
179.875	1233.29167
184.002	1603.95833
188.124	1895.95833
192.244	2028.29167
196.36	2027.95833
200.472	2044.29167
204.581	2038.625
208.687	1982.29167
212.79	1998.95833
216.889	2015.625
220.984	2048.95833
225.077	2074.625
229.165	2099.95833
233.251	2100.29167
237.333	2131.29167
241.412	2095.625
245.487	2090.29167
249.559	2057.95833
253.628	2054.625
257.694	2040.95833
261.756	2036.95833
265.814	2001.625
269.87	1958.625
273.922	1916.95833
277.97	1863.29167
282.016	1855.625
286.058	1805.29167
290.097	1843.625
294.132	1841.29167
298.164	1855.29167
302.193	1816.625
306.219	1715.29167
310.241	1626.625
314.26	1523.625
318.276	1450.95833
322.288	1411.95833
326.297	1368.625
330.303	1358.625
334.305	1321.625
338.305	1318.29167
342.301	1314.625
346.294	1331.625
350.283	1324.625
354.269	1308.29167
358.252	1303.625
362.232	1305.625
366.209	1311.29167
370.182	1310.95833
374.152	1284.625
378.119	1316.95833
382.083	1296.29167
386.043	1305.29167
390	1274.95833
393.954	1299.95833
397.905	1305.95833
401.852	1322.95833
405.797	1273.29167
409.738	1294.29167
413.676	1306.95833
417.61	1321.625
421.542	1278.95833
425.47	1262.29167
429.396	1268.29167
433.318	1245.95833
437.236	1238.95833
441.152	1279.29167
445.065	1235.95833
448.974	1249.625
452.88	1226.625
456.783	1230.29167
460.683	1219.29167
464.58	1226.625
468.473	1227.625
472.364	1232.95833
476.251	1229.29167
480.135	1232.95833
484.016	1262.29167
487.894	1253.625
491.769	1253.29167
495.641	1255.29167
499.509	1244.625
503.375	1237.29167
507.237	1235.29167
511.096	1221.625
514.952	1252.29167
518.805	1251.625
522.655	1243.29167
526.502	1234.625
530.346	1236.95833
534.187	1229.29167
538.024	1230.625
541.859	1213.625
545.69	1246.29167
549.519	1231.95833
553.344	1210.625
557.166	1200.29167
560.985	1197.29167
564.802	1188.625
568.615	1177.95833
572.425	1153.95833
576.232	1167.625
580.036	1156.29167
583.836	1170.625
587.634	1176.625
591.429	1159.29167
595.221	1202.95833
599.01	1178.95833
602.796	1186.625
606.578	1196.29167
610.358	1200.95833
614.135	1196.95833
617.909	1198.95833
621.679	1180.625
625.447	1171.95833
629.212	1168.95833
632.973	1181.29167
636.732	1170.95833
640.488	1166.625
644.241	1151.95833
647.991	1144.625
651.737	1176.29167
655.481	1145.29167
659.222	1161.95833
662.96	1158.95833
666.695	1180.95833
670.427	1167.29167
674.156	1171.29167
677.882	1151.625
681.605	1163.625
685.325	1141.625
689.043	1176.95833
692.757	1146.29167
696.468	1145.29167
700.177	1150.29167
703.882	1107.625
707.585	1113.625
711.284	1118.625
714.981	1116.95833
718.675	1111.625
722.366	1108.625
726.054	1102.625
729.739	1106.625
733.421	1107.29167
737.1	1098.29167
740.777	1109.625
744.45	1112.29167
748.121	1103.29167
751.789	1139.29167
755.453	1116.29167
759.115	1137.625
762.774	1133.29167
766.431	1123.29167
770.084	1131.95833
773.734	1113.95833
777.382	1142.95833
781.027	1151.95833
784.669	1131.29167
788.308	1139.29167
791.944	1153.95833
795.577	1145.625
799.208	1172.29167
802.835	1154.95833
806.46	1178.95833
810.082	1178.625
813.701	1183.29167
817.317	1186.29167
820.931	1181.95833
824.542	1193.95833
828.149	1178.625
831.754	1152.625
835.357	1128.29167
838.956	1137.29167
842.553	1131.29167
846.146	1133.625
849.737	1102.29167
853.326	1116.625
856.911	1084.95833
860.493	1111.625
864.073	1119.29167
867.65	1148.625
871.225	1152.29167
874.796	1136.95833
878.365	1118.95833
881.931	1146.625
885.494	1127.29167
889.054	1128.95833
892.612	1124.95833
896.166	1120.95833
899.719	1115.625
903.268	1088.625
906.814	1097.625
910.358	1083.95833
913.899	1081.29167
917.438	1090.29167
920.973	1061.29167
924.506	1072.95833
928.036	1103.95833
931.564	1115.95833
935.088	1122.95833
938.61	1099.29167
942.129	1103.29167
945.646	1113.625
949.16	1123.29167
952.671	1137.95833
956.179	1153.625
959.685	1154.625
963.188	1183.29167
966.688	1158.29167
970.185	1119.95833
973.68	1087.29167
977.173	1084.625
980.662	1074.625
984.149	1076.95833
987.633	1063.625
991.114	1086.625
994.593	1106.625
998.069	1114.29167
1001.542	1143.29167
1005.013	1125.95833
1008.481	1057.95833
1011.947	1046.29167
1015.409	1027.625
1018.869	1039.29167
1022.327	1036.95833
1025.782	1024.29167
1029.234	1020.625
1032.683	1002.625
1036.13	993.29167
1039.574	969.625
1043.016	928.29167
1046.455	916.29167
1049.891	920.95833
1053.325	917.625
1056.756	912.625
1060.184	926.95833
1063.61	916.29167
1067.033	915.29167
1070.454	907.95833
1073.872	942.29167
1077.287	907.625
1080.7	915.29167
1084.11	910.29167
1087.517	906.29167
1090.922	891.29167
1094.325	881.29167
1097.724	875.29167
1101.122	886.625
1104.516	881.95833
1107.908	867.625
1111.298	883.625
1114.684	881.29167
1118.069	887.625
1121.45	911.29167
1124.83	892.625
1128.206	890.625
1131.58	919.29167
1134.951	927.29167
1138.32	921.95833
1141.687	964.29167
1145.05	975.95833
1148.412	968.29167
1151.77	972.95833
1155.126	965.625
1158.48	946.95833
1161.831	969.625
1165.18	975.29167
1168.525	984.29167
1171.869	992.29167
1175.21	985.29167
1178.548	1007.29167
1181.884	1011.95833
1185.217	998.95833
1188.548	1025.95833
1191.877	1031.29167
1195.202	1060.625
1198.526	1090.29167
1201.846	1094.625
1205.165	1089.95833
1208.48	1094.625
1211.794	1093.95833
1215.104	1101.29167
1218.413	1086.625
1221.719	1081.95833
1225.022	1051.95833
1228.323	1033.95833
1231.621	1053.29167
1234.917	1038.625
1238.21	1063.29167
1241.501	1035.95833
1244.79	1030.95833
1248.076	1018.625
1251.359	1042.95833
1254.64	1087.29167
1257.919	1064.625
1261.195	1067.29167
1264.468	1090.29167
1267.74	1097.625
1271.008	1109.95833
1274.275	1106.625
1277.538	1081.625
1280.8	1087.95833
1284.059	1093.95833
1287.315	1106.29167
1290.569	1086.95833
1293.821	1091.95833
1297.07	1091.95833
1300.317	1100.95833
1303.562	1105.95833
1306.803	1089.95833
1310.043	1085.95833
1313.28	1098.625
1316.515	1093.95833
1319.747	1108.95833
1322.977	1075.625
1326.204	1081.625
1329.429	1073.95833
1332.652	1076.625
1335.872	1069.95833
1339.09	1062.625
1342.306	1063.95833
1345.519	1045.625
1348.729	1052.95833
1351.938	1085.625
1355.144	1050.625
1358.347	1024.625
1361.548	1033.95833
1364.747	1039.625
1367.944	1016.625
1371.138	1028.29167
1374.329	1009.95833
1377.518	1014.29167
1380.705	998.95833
1383.89	1010.95833
1387.072	971.95833
1390.252	964.95833
1393.429	930.95833
1396.605	913.95833
1399.777	873.95833
1402.948	879.29167
1406.116	862.95833
1409.282	864.625
1412.445	865.625
1415.606	871.95833
1418.765	879.29167
1421.921	884.95833
1425.075	878.29167
1428.227	909.625
1431.376	930.29167
1434.524	973.29167
1437.668	983.29167
1440.811	986.29167
1443.951	989.95833
1447.089	1009.29167
1450.224	1001.625
1453.357	982.29167
1456.488	986.95833
1459.617	988.29167
1462.743	968.29167
1465.867	946.95833
1468.989	937.95833
1472.108	930.625
1475.225	920.29167
1478.34	914.625
1481.453	903.625
1484.563	901.95833
1487.671	923.625
1490.776	933.95833
1493.88	937.29167
1496.981	934.29167
1500.08	937.625
1503.176	943.95833
1506.271	953.625
1509.363	966.29167
1512.452	966.95833
1515.54	981.29167
1518.625	981.95833
1521.708	1019.29167
1524.789	1040.95833
1527.867	1069.29167
1530.944	1115.625
1534.018	1135.625
1537.089	1190.95833
1540.159	1183.29167
1543.226	1173.625
1546.291	1140.29167
1549.354	1120.625
1552.415	1099.95833
1555.473	1095.625
1558.529	1083.95833
1561.583	1064.29167
1564.634	1052.95833
1567.684	1044.29167
1570.731	1064.625
1573.776	1073.625
1576.819	1103.625
1579.859	1077.29167
1582.898	1094.95833
1585.934	1115.29167
1588.968	1121.29167
1591.999	1109.95833
1595.029	1100.29167
1598.056	1111.95833
1601.081	1125.625
1604.104	1118.625
1607.125	1104.29167
1610.144	1100.95833
1613.16	1075.625
1616.174	1065.29167
1619.186	1048.29167
1622.196	1025.29167
1625.203	1013.29167
1628.209	1013.29167
1631.212	1007.95833
1634.213	1020.625
1637.212	1037.95833
1640.209	1036.625
1643.203	1005.95833
1646.196	980.625
1649.186	929.95833
1652.174	909.29167
1655.16	888.625
1658.144	870.29167
1661.125	829.95833
1664.105	800.95833
1667.082	773.625
1670.057	722.95833
1673.03	685.625
1676.001	662.625
1678.97	613.95833
1681.937	588.625
1684.901	556.95833
1687.863	561.29167
1690.824	528.29167
1693.782	535.29167
1696.738	496.625
1699.692	503.95833
1702.643	494.95833
1705.593	491.625
1708.54	476.95833
1711.486	500.29167
1714.429	471.29167
1717.37	472.625
1720.309	465.625
1723.246	471.625
1726.181	459.29167
1729.113	460.95833
1732.044	461.95833
1734.972	451.95833
1737.899	460.29167
1740.823	467.95833
1743.745	475.29167
1746.665	438.95833
1749.583	440.625
1752.499	429.625
1755.413	423.95833
1758.325	417.625
1761.235	424.29167
1764.142	413.29167
1767.048	409.29167
1769.951	412.625
1772.852	405.29167
1775.752	408.95833
1778.649	417.95833
1781.544	418.95833
1784.437	396.29167
1787.328	400.95833
1790.217	395.625
1793.104	379.625
1795.989	385.95833
1798.872	383.95833
1801.753	395.95833
1804.631	385.95833
1807.508	392.29167
1810.383	389.625
1813.255	379.95833
1816.126	384.625
1818.994	383.29167
1821.861	374.625
1824.725	378.625
1827.587	383.29167
1830.448	371.95833
1833.306	369.29167
1836.162	377.95833
1839.017	360.625
1841.869	375.29167
1844.719	369.29167
1847.567	351.29167
1850.414	347.625
1853.258	346.625
1856.1	369.95833
1858.94	372.29167
1861.778	368.625
1864.614	347.95833
1867.448	355.625
1870.28	339.625
1873.111	365.95833
1875.939	357.95833
1878.765	369.95833
1881.589	349.625
1884.411	344.29167
1887.231	360.625
1890.049	352.29167
1892.865	359.95833
1895.68	341.625
1898.492	349.29167
1901.302	342.29167
1904.11	336.625
1906.916	340.625
1909.721	336.95833
1912.523	346.625
1915.323	330.29167
1918.122	327.625
1920.918	338.29167
1923.712	326.625
1926.505	334.29167
1929.295	319.95833
1932.084	331.625
1934.87	331.625
1937.655	326.29167
1940.438	326.625
1943.218	320.625
1945.997	332.95833
1948.774	331.95833
1951.549	333.625
1954.322	315.29167
1957.093	321.29167
1959.862	312.29167
1962.629	322.29167
1965.394	318.625
1968.157	304.625
1970.918	324.95833
1973.678	304.95833
1976.435	311.95833
1979.19	311.625
1981.944	297.95833
1984.696	306.29167
1987.445	299.29167
1990.193	303.29167
1992.939	318.625
1995.683	315.625
1998.425	283.29167
2001.165	323.29167
2003.903	287.29167
2006.639	304.625
2009.374	301.625
2012.106	310.29167
2014.837	278.29167
2017.566	306.29167
2020.292	296.625
2023.017	292.95833
2025.74	284.625
2028.461	282.95833
2031.18	291.95833
2033.898	285.95833
2036.613	288.95833
2039.327	293.625
2042.038	277.95833
2044.748	285.29167
2047.456	288.95833
2050.162	273.29167
2052.866	284.625
2055.568	289.95833
2058.268	281.95833
2060.967	284.95833
2063.663	264.95833
2066.358	277.625
2069.051	265.29167
2071.742	278.625
2074.431	282.625
2077.118	275.95833
2079.804	268.29167
2082.487	268.95833
2085.169	281.625
2087.849	292.95833
2090.527	266.625
2093.203	271.625
2095.877	273.95833
2098.55	276.29167
2101.22	279.29167
2103.889	273.95833
2106.556	270.625
2109.221	281.95833
2111.884	272.625
2114.546	302.625
2117.205	304.29167
2119.863	331.95833
2122.519	316.625
2125.173	338.95833
2127.825	361.625
2130.475	370.29167
2133.124	365.625
2135.771	342.29167
2138.416	345.95833
2141.059	324.95833
2143.7	325.29167
2146.339	301.625
2148.977	272.95833
2151.613	292.29167
2154.247	277.95833
2156.879	281.29167
2159.51	268.625
2162.138	266.95833
2164.765	266.29167
2167.39	259.625
2170.013	283.95833
2172.634	272.625
2175.254	261.625
2177.872	288.625
2180.488	247.29167
2183.102	259.95833
2185.714	255.95833
2188.325	247.29167
2190.934	258.625
2193.541	260.95833
2196.146	247.95833
2198.75	240.29167
2201.351	239.625
2203.951	228.29167
2206.549	242.29167
2209.146	235.29167
2211.74	231.625
2214.333	241.625
2216.924	219.625
2219.514	229.29167
2222.101	229.95833
2224.687	235.95833
2227.271	220.625
2229.853	225.95833
2232.433	213.95833
2235.012	234.29167
2237.589	226.29167
2240.164	238.29167
2242.738	219.625
2245.309	215.29167
2247.879	229.29167
2250.448	228.625
2253.014	215.29167
2255.579	194.625
2258.142	211.625
2260.703	214.95833
2263.262	207.625
2265.82	207.625
2268.376	213.625
2270.93	209.29167
2273.483	206.625
2276.033	214.95833
2278.583	203.625
2281.13	201.95833
2283.675	191.625
2286.219	201.625
2288.761	210.95833
2291.302	208.625
2293.841	210.95833
2296.377	196.29167
2298.913	199.625
2301.446	209.95833
2303.978	199.29167
2306.508	205.625
2309.037	200.95833
2311.563	204.625
2314.088	205.95833
2316.612	184.29167
2319.133	201.625
2321.653	196.95833
2324.171	193.95833
2326.688	207.625
2329.202	193.95833
2331.715	198.95833
2334.227	189.95833
2336.736	192.29167
2339.244	191.29167
2341.751	181.29167
2344.255	196.625
2346.758	187.29167
2349.259	174.95833
2351.759	186.625
2354.257	176.95833
2356.753	177.95833
2359.247	183.625
2361.74	184.625
2364.231	185.625
2366.721	188.95833
2369.209	179.29167
2371.695	185.625
2374.179	179.95833
2376.662	168.625
2379.143	194.95833
2381.622	176.95833
2384.1	184.625
2386.576	179.29167
2389.051	187.29167
2391.524	191.95833
2393.995	183.625
2396.464	175.625
2398.932	171.625
2401.398	176.625
2403.863	170.625
2406.325	173.29167
2408.787	182.625
2411.246	175.625
2413.704	171.625
2416.16	163.95833
2418.615	167.95833
2421.068	178.625
2423.519	169.95833
2425.969	162.95833
2428.417	178.95833
2430.863	195.625
2433.308	174.625
2435.751	176.29167
2438.193	173.95833
2440.633	175.29167
2443.071	175.625
2445.508	161.29167
2447.943	167.29167
2450.376	165.29167
2452.808	167.95833
2455.238	155.29167
2457.667	194.95833
2460.093	156.29167
2462.519	149.95833
2464.942	162.95833
2467.365	161.95833
2469.785	169.29167
2472.204	160.625
2474.621	161.625
2477.037	176.95833
2479.451	153.95833
2481.863	149.625
2484.274	154.95833
2486.683	156.29167
2489.091	167.29167
2491.497	162.95833
2493.901	162.29167
2496.304	159.95833
2498.705	171.625
2501.105	158.95833
2503.503	173.29167
2505.899	152.29167
2508.294	174.29167
2510.687	150.29167
2513.079	152.29167
2515.469	151.29167
2517.858	151.95833
2520.245	166.625
2522.63	154.29167
2525.014	152.625
2527.396	147.625
2529.776	145.95833
2532.156	158.29167
2534.533	143.29167
2536.909	147.29167
2539.283	136.625
2541.656	144.625
2544.027	164.29167
2546.397	155.625
2548.765	146.95833
2551.131	150.29167
2553.496	153.95833
2555.86	155.95833
2558.221	152.29167
2560.582	147.29167
2562.94	140.625
2565.298	146.95833
2567.653	154.29167
2570.007	137.95833
2572.36	153.29167
2574.711	135.29167
2577.06	159.29167
2579.408	147.95833
2581.754	146.625
2584.099	141.95833
2586.442	144.95833
2588.784	149.29167
2591.124	145.29167
2593.463	142.29167
2595.8	147.625
2598.135	129.95833
2600.469	138.95833
2602.802	146.95833
2605.133	155.29167
2607.462	136.625
2609.79	130.95833
2612.116	145.29167
2614.441	142.625
2616.764	149.625
2619.086	143.29167
2621.406	140.29167
2623.725	154.95833
2626.042	145.29167
2628.358	135.625
2630.672	142.95833
2632.985	146.625
2635.296	143.625
2637.606	138.95833
2639.914	127.95833
2642.22	136.95833
2644.525	138.29167
2646.829	138.95833
2649.131	151.625
2651.432	146.625
2653.731	141.625
2656.028	150.95833
2658.324	144.29167
2660.619	129.95833
2662.912	149.29167
2665.204	130.95833
2667.494	143.625
2669.782	132.625
2672.07	147.625
2674.355	149.625
2676.639	144.29167
2678.922	136.29167
2681.203	143.625
2683.483	137.29167
2685.761	126.95833
2688.038	152.95833
2690.313	153.95833
2692.587	142.625
2694.859	134.625
2697.13	134.29167
2699.399	136.29167
2701.667	150.29167
2703.933	137.95833
2706.198	147.29167
2708.461	146.29167
2710.723	149.625
2712.984	140.625
2715.243	145.625
2717.5	138.29167
2719.757	147.29167
2722.011	139.29167
2724.264	146.29167
2726.516	154.625
2728.766	140.29167
2731.015	143.95833
2733.262	139.29167
2735.508	139.29167
2737.753	140.29167
2739.996	129.625
2742.237	135.29167
2744.477	146.95833
2746.716	154.625
2748.953	150.29167
2751.189	153.95833
2753.423	144.95833
2755.656	136.29167
2757.887	127.29167
2760.117	135.625
2762.346	130.95833
2764.573	120.625
2766.798	127.95833
2769.022	132.95833
2771.245	126.29167
2773.467	127.29167
2775.686	126.29167
2777.905	138.29167
2780.122	127.29167
2782.337	138.95833
2784.552	132.625
2786.764	133.95833
2788.976	128.95833
2791.186	137.625
2793.394	130.625
2795.601	142.625
2797.807	141.625
2800.011	135.95833
2802.214	143.625
2804.415	142.29167
2806.615	136.29167
2808.814	138.95833
2811.011	143.625
2813.206	139.625
2815.401	152.95833
2817.594	148.95833
2819.785	149.95833
2821.975	140.29167
2824.164	149.29167
2826.351	143.625
2828.537	164.29167
2830.722	152.29167
2832.905	155.95833
2835.086	165.29167
2837.267	176.95833
2839.445	164.625
2841.623	175.95833
2843.799	182.29167
2845.974	180.29167
2848.147	189.95833
2850.319	199.95833
2852.489	204.95833
2854.659	201.625
2856.826	211.625
2858.993	223.625
2861.158	207.625
2863.321	212.29167
2865.483	225.95833
2867.644	219.29167
2869.804	222.95833
2871.962	219.625
2874.118	219.625
2876.274	232.95833
2878.428	220.95833
2880.58	223.95833
2882.731	207.625
2884.881	216.29167
2887.03	224.29167
2889.177	216.29167
2891.322	229.625
2893.467	221.29167
2895.61	218.29167
2897.751	231.29167
2899.892	220.29167
2902.03	223.95833
2904.168	218.95833
2906.304	219.95833
2908.439	241.625
2910.572	224.29167
2912.704	220.29167
2914.835	235.29167
2916.965	228.29167
2919.093	246.95833
2921.219	209.625
2923.345	246.95833
2925.469	229.625
2927.591	222.29167
2929.712	211.29167
2931.832	226.95833
2933.951	212.95833
2936.068	203.625
2938.184	205.29167
2940.299	199.625
2942.412	198.95833
2944.524	184.95833
2946.634	195.95833
2948.744	167.29167
2950.851	202.29167
2952.958	168.625
2955.063	180.625
2957.167	167.625
2959.269	153.95833
2961.371	188.29167
2963.471	159.625
2965.569	175.29167
2967.666	147.29167
2969.762	155.95833
2971.857	143.625
2973.95	137.95833
2976.042	144.95833
2978.133	135.95833
2980.222	140.95833
2982.31	129.29167
2984.396	118.95833
2986.482	121.95833
2988.566	129.625
2990.648	123.625
2992.73	125.95833
2994.81	111.625
2996.889	130.29167
2998.966	119.95833
3001.042	135.29167
3003.117	119.29167
3005.191	119.29167
3007.263	125.29167
3009.334	115.95833
3011.403	124.625
3013.472	109.625
3015.539	130.625
3017.604	139.625
3019.669	104.625
3021.732	112.29167
3023.794	115.625
3025.854	108.95833
3027.914	103.29167
3029.971	108.95833
3032.028	109.29167
3034.083	117.95833
3036.137	113.625
3038.19	100.625
3040.242	93.29167
3042.292	94.29167
3044.341	100.625
3046.388	115.625
3048.435	92.29167
3050.48	110.29167
3052.524	103.29167
3054.566	82.95833
3056.607	97.625
3058.647	96.29167
3060.686	90.625
3062.723	74.625
3064.759	80.625
3066.794	0.625
3068.828	-1.375
3070.86	2.29167
