-0.839	124.08333
3.438	140.75
7.711	59.75
11.981	43.41667
16.247	31.75
20.509	40.75
24.768	33.41667
29.024	41.41667
33.276	35.41667
37.524	40.08333
41.769	29.75
46.01	24.08333
50.247	46.41667
54.481	52.08333
58.712	52.75
62.939	37.41667
67.162	51.08333
71.382	46.75
75.599	36.41667
79.812	40.08333
84.021	62.41667
88.227	43.75
92.429	50.75
96.628	38.75
100.823	53.41667
105.015	49.75
109.204	46.41667
113.388	58.08333
117.57	42.75
121.748	61.08333
125.922	49.41667
130.093	66.08333
134.261	65.41667
138.425	50.75
142.585	85.41667
146.742	58.75
150.896	75.41667
155.046	71.41667
159.193	110.08333
163.336	151.08333
167.476	264.08333
171.613	475.08333
175.746	775.75
179.875	1116.41667
184.002	1450.08333
188.124	1746.75
192.244	1822.41667
196.36	1842.75
200.472	1843.08333
204.581	1832.41667
208.687	1782.75
212.79	1784.41667
216.889	1830.08333
220.984	1835.41667
225.077	1857.75
229.165	1874.75
233.251	1886.75
237.333	1893.08333
241.412	1872.75
245.487	1866.41667
249.559	1840.75
253.628	1849.41667
257.694	1808.41667
261.756	1826.75
265.814	1789.75
269.87	1760.41667
273.922	1693.75
277.97	1646.75
282.016	1636.08333
286.058	1612.41667
290.097	1628.75
294.132	1643.41667
298.164	1632.41667
302.193	1579.75
306.219	1505.08333
310.241	1400.41667
314.26	1315.08333
318.276	1234.08333
322.288	1203.08333
326.297	1172.41667
330.303	1151.08333
334.305	1122.75
338.305	1122.75
342.301	1120.75
346.294	1113.75
350.283	1112.75
354.269	1094.08333
358.252	1102.08333
362.232	1092.75
366.209	1111.41667
370.182	1073.41667
374.152	1077.08333
378.119	1086.75
382.083	1079.75
386.043	1106.41667
390	1077.75
393.954	1106.08333
397.905	1098.08333
401.852	1112.41667
405.797	1087.08333
409.738	1087.41667
413.676	1117.08333
417.61	1124.75
421.542	1072.41667
425.47	1056.08333
429.396	1052.08333
433.318	1036.75
437.236	1045.08333
441.152	1077.41667
445.065	1034.08333
448.974	1041.08333
452.88	1017.41667
456.783	1022.41667
460.683	1025.41667
464.58	1021.08333
468.473	1042.75
472.364	1027.41667
476.251	1021.08333
480.135	1031.41667
484.016	1040.75
487.894	1059.75
491.769	1052.75
495.641	1041.75
499.509	1061.41667
503.375	1050.75
507.237	1039.75
511.096	1045.08333
514.952	1031.41667
518.805	1036.41667
522.655	1056.41667
526.502	1019.75
530.346	1035.75
534.187	1031.08333
538.024	1021.75
541.859	1024.75
545.69	1048.08333
549.519	1017.75
553.344	1020.75
557.166	1013.75
560.985	1000.08333
564.802	1005.41667
568.615	985.41667
572.425	977.08333
576.232	985.75
580.036	969.08333
583.836	986.08333
587.634	987.75
591.429	977.75
595.221	1002.75
599.01	1001.08333
602.796	986.75
606.578	1003.75
610.358	1010.41667
614.135	996.41667
617.909	1004.75
621.679	997.75
625.447	975.08333
629.212	997.08333
632.973	986.08333
636.732	970.08333
640.488	982.08333
644.241	958.41667
647.991	972.75
651.737	996.41667
655.481	971.75
659.222	979.41667
662.96	982.41667
666.695	982.75
670.427	983.75
674.156	989.41667
677.882	978.41667
681.605	974.75
685.325	961.41667
689.043	986.75
692.757	963.08333
696.468	955.41667
700.177	950.08333
703.882	946.08333
707.585	940.75
711.284	941.75
714.981	933.41667
718.675	923.08333
722.366	950.75
726.054	924.75
729.739	938.41667
733.421	944.41667
737.1	938.08333
740.777	936.08333
744.45	938.41667
748.121	944.75
751.789	969.41667
755.453	946.75
759.115	952.75
762.774	957.75
766.431	970.41667
770.084	966.41667
773.734	952.08333
777.382	974.75
781.027	974.75
784.669	971.08333
788.308	970.75
791.944	986.75
795.577	993.08333
799.208	993.08333
802.835	998.75
806.46	1025.41667
810.082	1003.41667
813.701	1003.08333
817.317	1022.41667
820.931	1018.41667
824.542	1022.75
828.149	1004.75
831.754	979.08333
835.357	974.75
838.956	991.41667
842.553	986.75
846.146	976.08333
849.737	949.08333
853.326	956.08333
856.911	945.08333
860.493	970.41667
864.073	970.75
867.65	1001.75
871.225	1004.41667
874.796	988.08333
878.365	967.08333
881.931	989.08333
885.494	984.41667
889.054	989.08333
892.612	996.08333
896.166	964.75
899.719	970.75
903.268	951.75
906.814	958.41667
910.358	946.08333
913.899	935.75
917.438	935.08333
920.973	922.08333
924.506	934.41667
928.036	959.08333
931.564	959.08333
935.088	991.41667
938.61	959.41667
942.129	955.41667
945.646	967.41667
949.16	986.08333
952.671	999.41667
956.179	1010.75
959.685	1009.41667
963.188	1040.08333
966.688	1012.41667
970.185	984.41667
973.68	961.08333
977.173	956.41667
980.662	921.08333
984.149	946.75
987.633	921.41667
991.114	938.08333
994.593	950.75
998.069	969.41667
1001.542	1001.08333
1005.013	987.08333
1008.481	914.08333
1011.947	911.75
1015.409	898.08333
1018.869	911.08333
1022.327	916.41667
1025.782	890.08333
1029.234	890.75
1032.683	885.08333
1036.13	861.41667
1039.574	835.41667
1043.016	822.75
1046.455	800.75
1049.891	791.08333
1053.325	807.41667
1056.756	802.75
1060.184	813.41667
1063.61	779.41667
1067.033	793.08333
1070.454	796.75
1073.872	812.75
1077.287	797.41667
1080.7	801.41667
1084.11	805.41667
1087.517	804.08333
1090.922	790.08333
1094.325	776.75
1097.724	771.75
1101.122	778.08333
1104.516	772.08333
1107.908	751.41667
1111.298	775.41667
1114.684	773.75
1118.069	779.08333
1121.45	805.75
1124.83	775.08333
1128.206	775.75
1131.58	797.75
1134.951	815.08333
1138.32	815.41667
1141.687	848.41667
1145.05	866.08333
1148.412	852.41667
1151.77	858.08333
1155.126	860.41667
1158.48	854.75
1161.831	844.41667
1165.18	853.08333
1168.525	874.41667
1171.869	875.75
1175.21	877.41667
1178.548	898.08333
1181.884	896.41667
1185.217	895.08333
1188.548	928.75
1191.877	930.41667
1195.202	973.41667
1198.526	986.08333
1201.846	968.08333
1205.165	978.08333
1208.48	981.08333
1211.794	987.41667
1215.104	988.41667
1218.413	967.08333
1221.719	968.08333
1225.022	947.75
1228.323	934.41667
1231.621	940.08333
1234.917	927.75
1238.21	955.08333
1241.501	931.75
1244.79	924.08333
1248.076	910.75
1251.359	926.75
1254.64	975.75
1257.919	937.41667
1261.195	965.41667
1264.468	980.41667
1267.74	990.08333
1271.008	980.08333
1274.275	983.08333
1277.538	988.41667
1280.8	978.41667
1284.059	981.75
1287.315	986.08333
1290.569	998.08333
1293.821	991.41667
1297.07	1000.41667
1300.317	1003.08333
1303.562	999.08333
1306.803	1000.08333
1310.043	993.41667
1313.28	1000.75
1316.515	985.41667
1319.747	982.41667
1322.977	982.75
1326.204	965.41667
1329.429	970.08333
1332.652	971.08333
1335.872	966.75
1339.09	954.75
1342.306	957.75
1345.519	953.41667
1348.729	936.41667
1351.938	954.08333
1355.144	946.41667
1358.347	928.41667
1361.548	925.75
1364.747	920.08333
1367.944	904.75
1371.138	904.08333
1374.329	902.08333
1377.518	895.75
1380.705	911.08333
1383.89	913.08333
1387.072	879.41667
1390.252	851.75
1393.429	826.75
1396.605	809.75
1399.777	786.41667
1402.948	781.75
1406.116	766.41667
1409.282	767.08333
1412.445	779.41667
1415.606	766.08333
1418.765	790.75
1421.921	791.75
1425.075	790.08333
1428.227	823.75
1431.376	857.08333
1434.524	866.08333
1437.668	886.41667
1440.811	900.75
1443.951	905.41667
1447.089	902.41667
1450.224	901.41667
1453.357	910.41667
1456.488	894.75
1459.617	884.41667
1462.743	879.41667
1465.867	858.41667
1468.989	852.41667
1472.108	839.75
1475.225	823.75
1478.34	820.75
1481.453	805.41667
1484.563	803.75
1487.671	816.75
1490.776	852.08333
1493.88	829.08333
1496.981	846.41667
1500.08	858.75
1503.176	841.41667
1506.271	874.41667
1509.363	873.41667
1512.452	880.08333
1515.54	896.75
1518.625	892.75
1521.708	937.08333
1524.789	963.41667
1527.867	989.75
1530.944	1022.41667
1534.018	1051.41667
1537.089	1092.41667
1540.159	1094.08333
1543.226	1102.08333
1546.291	1072.41667
1549.354	1051.75
1552.415	1036.75
1555.473	1020.75
1558.529	1011.75
1561.583	996.08333
1564.634	978.08333
1567.684	982.41667
1570.731	992.75
1573.776	993.41667
1576.819	1007.75
1579.859	1012.41667
1582.898	1022.08333
1585.934	1047.75
1588.968	1041.41667
1591.999	1034.08333
1595.029	1018.41667
1598.056	1030.41667
1601.081	1055.75
1604.104	1044.41667
1607.125	1024.08333
1610.144	1038.75
1613.16	983.75
1616.174	984.08333
1619.186	962.08333
1622.196	950.41667
1625.203	934.41667
1628.209	916.75
1631.212	915.08333
1634.213	931.08333
1637.212	934.75
1640.209	938.75
1643.203	909.75
1646.196	878.75
1649.186	846.75
1652.174	827.75
1655.16	803.08333
1658.144	791.08333
1661.125	745.08333
1664.105	714.75
1667.082	689.41667
1670.057	646.41667
1673.03	620.08333
1676.001	589.41667
1678.97	549.08333
1681.937	530.41667
1684.901	507.41667
1687.863	501.08333
1690.824	467.41667
1693.782	479.75
1696.738	448.41667
1699.692	449.08333
1702.643	433.41667
1705.593	429.41667
1708.54	433.75
1711.486	440.75
1714.429	406.41667
1717.37	419.41667
1720.309	406.08333
1723.246	419.41667
1726.181	393.75
1729.113	396.75
1732.044	403.75
1734.972	392.75
1737.899	406.41667
1740.823	409.08333
1743.745	420.08333
1746.665	387.41667
1749.583	380.41667
1752.499	364.08333
1755.413	373.08333
1758.325	351.08333
1761.235	370.08333
1764.142	363.41667
1767.048	353.08333
1769.951	363.41667
1772.852	353.75
1775.752	373.41667
1778.649	367.08333
1781.544	377.08333
1784.437	339.08333
1787.328	353.75
1790.217	350.75
1793.104	326.41667
1795.989	334.41667
1798.872	326.41667
1801.753	346.08333
1804.631	333.75
1807.508	342.08333
1810.383	332.41667
1813.255	333.75
1816.126	327.08333
1818.994	330.41667
1821.861	329.41667
1824.725	328.75
1827.587	332.41667
1830.448	326.08333
1833.306	319.08333
1836.162	323.08333
1839.017	328.08333
1841.869	316.41667
1844.719	323.75
1847.567	308.41667
1850.414	299.08333
1853.258	296.75
1856.1	314.08333
1858.94	326.41667
1861.778	311.75
1864.614	296.08333
1867.448	312.75
1870.28	295.08333
1873.111	315.41667
1875.939	309.08333
1878.765	320.41667
1881.589	303.75
1884.411	308.08333
1887.231	315.75
1890.049	303.41667
1892.865	315.41667
1895.68	293.75
1898.492	311.75
1901.302	293.41667
1904.11	292.08333
1906.916	292.08333
1909.721	302.08333
1912.523	302.41667
1915.323	291.08333
1918.122	286.08333
1920.918	301.08333
1923.712	289.75
1926.505	285.08333
1929.295	273.41667
1932.084	288.75
1934.87	293.08333
1937.655	283.41667
1940.438	272.41667
1943.218	286.75
1945.997	282.41667
1948.774	292.08333
1951.549	289.75
1954.322	279.41667
1957.093	284.08333
1959.862	277.41667
1962.629	274.41667
1965.394	275.75
1968.157	266.41667
1970.918	286.08333
1973.678	272.75
1976.435	276.75
1979.19	274.41667
1981.944	260.08333
1984.696	267.41667
1987.445	259.08333
1990.193	268.41667
1992.939	277.41667
1995.683	269.75
1998.425	247.75
2001.165	283.08333
2003.903	251.41667
2006.639	262.08333
2009.374	264.08333
2012.106	266.41667
2014.837	247.75
2017.566	263.08333
2020.292	257.75
2023.017	257.75
2025.74	250.08333
2028.461	248.75
2031.18	254.08333
2033.898	253.08333
2036.613	250.41667
2039.327	262.41667
2042.038	244.41667
2044.748	254.75
2047.456	263.08333
2050.162	240.08333
2052.866	244.41667
2055.568	260.75
2058.268	239.75
2060.967	256.08333
2063.663	230.75
2066.358	235.08333
2069.051	239.41667
2071.742	239.75
2074.431	253.75
2077.118	237.08333
2079.804	234.08333
2082.487	245.08333
2085.169	248.41667
2087.849	259.08333
2090.527	239.41667
2093.203	248.41667
2095.877	246.41667
2098.55	246.75
2101.22	246.08333
2103.889	251.41667
2106.556	234.75
2109.221	256.75
2111.884	238.41667
2114.546	271.08333
2117.205	274.08333
2119.863	303.75
2122.519	288.41667
2125.173	304.75
2127.825	339.41667
2130.475	340.75
2133.124	319.75
2135.771	309.75
2138.416	335.75
2141.059	294.08333
2143.7	299.75
2146.339	268.75
2148.977	246.08333
2151.613	264.08333
2154.247	256.75
2156.879	250.41667
2159.51	241.08333
2162.138	248.08333
2164.765	238.41667
2167.39	227.41667
2170.013	255.41667
2172.634	245.41667
2175.254	236.08333
2177.872	269.75
2180.488	224.41667
2183.102	228.75
2185.714	227.41667
2188.325	217.08333
2190.934	223.75
2193.541	234.41667
2196.146	220.41667
2198.75	212.41667
2201.351	214.75
2203.951	202.08333
2206.549	223.41667
2209.146	214.75
2211.74	201.08333
2214.333	213.08333
2216.924	199.08333
2219.514	208.75
2222.101	205.08333
2224.687	213.08333
2227.271	192.08333
2229.853	196.75
2232.433	186.75
2235.012	207.08333
2237.589	205.41667
2240.164	210.08333
2242.738	196.75
2245.309	187.08333
2247.879	207.41667
2250.448	207.41667
2253.014	188.41667
2255.579	179.75
2258.142	185.41667
2260.703	191.41667
2263.262	180.41667
2265.82	179.75
2268.376	193.41667
2270.93	187.75
2273.483	176.08333
2276.033	190.08333
2278.583	176.41667
2281.13	178.08333
2283.675	175.08333
2286.219	179.75
2288.761	190.08333
2291.302	195.08333
2293.841	191.75
2296.377	175.41667
2298.913	184.08333
2301.446	199.08333
2303.978	176.75
2306.508	174.41667
2309.037	175.75
2311.563	180.08333
2314.088	184.08333
2316.612	163.41667
2319.133	179.08333
2321.653	176.41667
2324.171	166.75
2326.688	181.75
2329.202	178.41667
2331.715	174.08333
2334.227	174.08333
2336.736	179.08333
2339.244	169.08333
2341.751	161.41667
2344.255	179.41667
2346.758	169.41667
2349.259	155.75
2351.759	175.08333
2354.257	160.75
2356.753	161.08333
2359.247	161.08333
2361.74	166.08333
2364.231	163.08333
2366.721	165.41667
2369.209	159.41667
2371.695	166.75
2374.179	153.41667
2376.662	145.75
2379.143	176.41667
2381.622	163.75
2384.1	166.41667
2386.576	155.41667
2389.051	169.41667
2391.524	168.08333
2393.995	169.41667
2396.464	158.08333
2398.932	153.08333
2401.398	161.75
2403.863	153.08333
2406.325	156.08333
2408.787	158.75
2411.246	159.08333
2413.704	159.75
2416.16	150.41667
2418.615	154.75
2421.068	160.75
2423.519	149.41667
2425.969	146.75
2428.417	164.08333
2430.863	181.41667
2433.308	164.08333
2435.751	153.41667
2438.193	155.75
2440.633	160.75
2443.071	162.41667
2445.508	152.41667
2447.943	150.75
2450.376	150.75
2452.808	156.75
2455.238	144.75
2457.667	172.41667
2460.093	140.41667
2462.519	136.75
2464.942	144.08333
2467.365	152.08333
2469.785	152.41667
2472.204	142.41667
2474.621	144.75
2477.037	167.41667
2479.451	142.41667
2481.863	137.75
2484.274	137.08333
2486.683	145.08333
2489.091	156.75
2491.497	153.41667
2493.901	148.08333
2496.304	143.41667
2498.705	153.08333
2501.105	141.75
2503.503	158.75
2505.899	134.41667
2508.294	156.41667
2510.687	141.08333
2513.079	147.41667
2515.469	138.08333
2517.858	135.75
2520.245	154.08333
2522.63	138.75
2525.014	138.08333
2527.396	134.41667
2529.776	134.41667
2532.156	142.41667
2534.533	127.75
2536.909	131.41667
2539.283	123.08333
2541.656	134.75
2544.027	146.75
2546.397	141.08333
2548.765	134.41667
2551.131	138.08333
2553.496	137.41667
2555.86	139.75
2558.221	147.08333
2560.582	133.41667
2562.94	123.75
2565.298	141.08333
2567.653	148.08333
2570.007	125.41667
2572.36	144.75
2574.711	125.08333
2577.06	150.08333
2579.408	133.75
2581.754	131.41667
2584.099	134.08333
2586.442	130.75
2588.784	135.75
2591.124	138.41667
2593.463	127.08333
2595.8	142.41667
2598.135	118.41667
2600.469	128.41667
2602.802	140.08333
2605.133	142.08333
2607.462	123.41667
2609.79	113.75
2612.116	139.41667
2614.441	131.08333
2616.764	130.75
2619.086	134.08333
2621.406	123.75
2623.725	143.08333
2626.042	125.08333
2628.358	127.08333
2630.672	129.41667
2632.985	136.41667
2635.296	130.75
2637.606	125.41667
2639.914	124.08333
2642.22	127.08333
2644.525	126.75
2646.829	127.41667
2649.131	141.08333
2651.432	138.08333
2653.731	124.75
2656.028	135.08333
2658.324	130.41667
2660.619	118.75
2662.912	137.08333
2665.204	117.41667
2667.494	137.41667
2669.782	119.41667
2672.07	136.41667
2674.355	139.75
2676.639	130.08333
2678.922	121.75
2681.203	135.75
2683.483	127.75
2685.761	118.08333
2688.038	135.75
2690.313	141.75
2692.587	130.41667
2694.859	125.41667
2697.13	128.75
2699.399	133.41667
2701.667	141.08333
2703.933	135.08333
2706.198	143.41667
2708.461	141.75
2710.723	135.08333
2712.984	130.41667
2715.243	142.08333
2717.5	128.75
2719.757	142.41667
2722.011	130.41667
2724.264	140.41667
2726.516	147.41667
2728.766	130.75
2731.015	128.41667
2733.262	135.41667
2735.508	137.08333
2737.753	133.08333
2739.996	123.75
2742.237	122.08333
2744.477	134.75
2746.716	144.41667
2748.953	137.41667
2751.189	142.08333
2753.423	133.08333
2755.656	125.08333
2757.887	118.08333
2760.117	124.75
2762.346	121.08333
2764.573	112.41667
2766.798	118.08333
2769.022	124.75
2771.245	124.41667
2773.467	122.41667
2775.686	123.75
2777.905	128.41667
2780.122	121.41667
2782.337	131.08333
2784.552	122.08333
2786.764	127.41667
2788.976	119.08333
2791.186	123.75
2793.394	127.08333
2795.601	133.75
2797.807	130.08333
2800.011	132.75
2802.214	138.41667
2804.415	131.75
2806.615	129.41667
2808.814	133.75
2811.011	138.41667
2813.206	133.75
2815.401	143.41667
2817.594	145.08333
2819.785	148.08333
2821.975	132.08333
2824.164	139.75
2826.351	137.08333
2828.537	150.41667
2830.722	150.08333
2832.905	147.75
2835.086	153.08333
2837.267	172.41667
2839.445	163.75
2841.623	164.41667
2843.799	167.75
2845.974	172.75
2848.147	181.41667
2850.319	185.75
2852.489	198.75
2854.659	199.75
2856.826	200.41667
2858.993	221.08333
2861.158	196.41667
2863.321	201.08333
2865.483	212.08333
2867.644	213.08333
2869.804	217.75
2871.962	202.41667
2874.118	217.75
2876.274	213.08333
2878.428	213.41667
2880.58	221.41667
2882.731	202.41667
2884.881	204.08333
2887.03	214.08333
2889.177	211.08333
2891.322	219.08333
2893.467	205.75
2895.61	210.08333
2897.751	218.41667
2899.892	213.75
2902.03	216.08333
2904.168	213.41667
2906.304	211.75
2908.439	234.41667
2910.572	212.41667
2912.704	213.75
2914.835	228.08333
2916.965	217.41667
2919.093	241.08333
2921.219	208.75
2923.345	237.75
2925.469	213.41667
2927.591	215.75
2929.712	208.41667
2931.832	214.75
2933.951	204.75
2936.068	205.41667
2938.184	199.75
2940.299	194.75
2942.412	187.75
2944.524	172.75
2946.634	178.08333
2948.744	157.75
2950.851	192.75
2952.958	158.75
2955.063	172.75
2957.167	160.75
2959.269	147.75
2961.371	179.08333
2963.471	144.08333
2965.569	163.75
2967.666	141.41667
2969.762	136.41667
2971.857	133.75
2973.95	130.75
2976.042	140.41667
2978.133	130.41667
2980.222	133.41667
2982.31	122.75
2984.396	106.41667
2986.482	116.75
2988.566	121.08333
2990.648	120.08333
2992.73	122.75
2994.81	105.08333
2996.889	123.08333
2998.966	115.08333
3001.042	127.75
3003.117	113.75
3005.191	115.75
3007.263	123.75
3009.334	113.75
3011.403	118.08333
3013.472	106.75
3015.539	123.75
3017.604	130.41667
3019.669	99.08333
3021.732	106.75
3023.794	107.41667
3025.854	103.41667
3027.914	98.08333
3029.971	102.08333
3032.028	102.41667
3034.083	111.08333
3036.137	100.41667
3038.19	94.75
3040.242	90.41667
3042.292	81.08333
3044.341	97.41667
3046.388	107.41667
3048.435	84.75
3050.48	106.75
3052.524	91.08333
3054.566	82.08333
3056.607	87.75
3058.647	87.75
3060.686	80.41667
3062.723	74.75
3064.759	71.41667
3066.794	0.08333
3068.828	-1.25
3070.86	1.08333
