-0.839	139.29167
3.438	160.29167
7.711	68.625
11.981	41.95833
16.247	29.95833
20.509	37.29167
24.768	38.29167
29.024	45.625
33.276	29.625
37.524	44.29167
41.769	30.625
46.01	29.625
50.247	42.29167
54.481	51.625
58.712	53.95833
62.939	36.29167
67.162	54.95833
71.382	45.95833
75.599	39.625
79.812	43.95833
84.021	63.29167
88.227	46.95833
92.429	52.625
96.628	40.95833
100.823	49.95833
105.015	53.625
109.204	47.29167
113.388	60.29167
117.57	44.29167
121.748	60.95833
125.922	50.95833
130.093	64.625
134.261	65.95833
138.425	56.29167
142.585	90.625
146.742	67.95833
150.896	85.29167
155.046	80.625
159.193	120.95833
163.336	184.95833
167.476	312.95833
171.613	557.95833
175.746	928.625
179.875	1349.95833
184.002	1755.625
188.124	2073.95833
192.244	2199.625
196.36	2247.625
200.472	2237.625
204.581	2233.29167
208.687	2195.95833
212.79	2188.625
216.889	2241.625
220.984	2258.625
225.077	2306.625
229.165	2333.95833
233.251	2333.95833
237.333	2373.625
241.412	2358.95833
245.487	2338.29167
249.559	2311.95833
253.628	2287.95833
257.694	2273.29167
261.756	2263.29167
265.814	2212.625
269.87	2152.29167
273.922	2092.29167
277.97	2027.625
282.016	1977.95833
286.058	1947.29167
290.097	1938.625
294.132	1949.625
298.164	1942.625
302.193	1892.95833
306.219	1811.625
310.241	1687.95833
314.26	1568.95833
318.276	1499.29167
322.288	1453.29167
326.297	1403.29167
330.303	1382.625
334.305	1357.625
338.305	1353.95833
342.301	1327.95833
346.294	1342.29167
350.283	1327.95833
354.269	1321.29167
358.252	1309.29167
362.232	1316.95833
366.209	1317.95833
370.182	1303.95833
374.152	1307.29167
378.119	1322.95833
382.083	1309.625
386.043	1330.95833
390	1319.29167
393.954	1333.29167
397.905	1320.625
401.852	1334.95833
405.797	1297.95833
409.738	1327.95833
413.676	1340.625
417.61	1358.95833
421.542	1310.95833
425.47	1279.29167
429.396	1247.625
433.318	1234.625
437.236	1243.29167
441.152	1273.625
445.065	1244.625
448.974	1257.29167
452.88	1227.625
456.783	1210.29167
460.683	1217.625
464.58	1240.29167
468.473	1238.95833
472.364	1234.625
476.251	1225.95833
480.135	1228.625
484.016	1256.29167
487.894	1259.29167
491.769	1257.29167
495.641	1241.625
499.509	1241.29167
503.375	1247.95833
507.237	1253.95833
511.096	1245.29167
514.952	1257.29167
518.805	1261.29167
522.655	1259.625
526.502	1243.29167
530.346	1249.95833
534.187	1248.95833
538.024	1232.625
541.859	1226.625
545.69	1263.29167
549.519	1231.29167
553.344	1232.29167
557.166	1213.29167
560.985	1206.95833
564.802	1205.29167
568.615	1188.29167
572.425	1159.625
576.232	1165.95833
580.036	1177.95833
583.836	1179.625
587.634	1189.95833
591.429	1167.29167
595.221	1202.95833
599.01	1193.625
602.796	1196.95833
606.578	1203.625
610.358	1192.625
614.135	1205.625
617.909	1210.625
621.679	1193.95833
625.447	1170.95833
629.212	1177.29167
632.973	1190.625
636.732	1175.95833
640.488	1199.29167
644.241	1163.625
647.991	1160.625
651.737	1195.625
655.481	1156.95833
659.222	1173.29167
662.96	1168.95833
666.695	1180.95833
670.427	1181.625
674.156	1173.29167
677.882	1177.95833
681.605	1184.95833
685.325	1158.95833
689.043	1173.625
692.757	1158.29167
696.468	1144.625
700.177	1159.625
703.882	1129.625
707.585	1142.95833
711.284	1134.95833
714.981	1116.625
718.675	1125.29167
722.366	1146.625
726.054	1119.625
729.739	1109.625
733.421	1122.29167
737.1	1109.625
740.777	1127.95833
744.45	1118.95833
748.121	1139.95833
751.789	1159.29167
755.453	1149.95833
759.115	1156.625
762.774	1154.29167
766.431	1158.625
770.084	1165.95833
773.734	1147.95833
777.382	1188.625
781.027	1174.29167
784.669	1172.625
788.308	1159.95833
791.944	1196.29167
795.577	1186.29167
799.208	1192.625
802.835	1179.29167
806.46	1187.95833
810.082	1203.29167
813.701	1203.29167
817.317	1229.29167
820.931	1216.95833
824.542	1216.29167
828.149	1207.625
831.754	1179.95833
835.357	1171.95833
838.956	1194.29167
842.553	1184.625
846.146	1181.29167
849.737	1152.29167
853.326	1153.625
856.911	1135.625
860.493	1156.625
864.073	1182.29167
867.65	1212.29167
871.225	1231.95833
874.796	1197.95833
878.365	1186.95833
881.931	1198.29167
885.494	1202.95833
889.054	1181.625
892.612	1211.29167
896.166	1179.625
899.719	1156.625
903.268	1145.29167
906.814	1157.625
910.358	1140.625
913.899	1129.29167
917.438	1141.625
920.973	1111.625
924.506	1138.625
928.036	1157.625
931.564	1167.29167
935.088	1185.625
938.61	1181.29167
942.129	1167.95833
945.646	1180.625
949.16	1183.625
952.671	1199.95833
956.179	1225.625
959.685	1225.625
963.188	1248.95833
966.688	1223.625
970.185	1199.95833
973.68	1163.625
977.173	1159.625
980.662	1143.29167
984.149	1137.95833
987.633	1119.625
991.114	1135.95833
994.593	1163.95833
998.069	1189.95833
1001.542	1223.29167
1005.013	1198.29167
1008.481	1123.625
1011.947	1122.625
1015.409	1097.625
1018.869	1103.625
1022.327	1105.95833
1025.782	1096.625
1029.234	1079.95833
1032.683	1072.625
1036.13	1043.625
1039.574	1019.29167
1043.016	1008.625
1046.455	985.625
1049.891	966.29167
1053.325	971.625
1056.756	973.29167
1060.184	979.625
1063.61	971.29167
1067.033	981.625
1070.454	968.29167
1073.872	999.95833
1077.287	971.29167
1080.7	978.625
1084.11	977.29167
1087.517	969.29167
1090.922	977.625
1094.325	942.29167
1097.724	946.29167
1101.122	931.29167
1104.516	950.29167
1107.908	933.95833
1111.298	938.95833
1114.684	953.95833
1118.069	937.95833
1121.45	954.95833
1124.83	943.95833
1128.206	956.29167
1131.58	976.95833
1134.951	996.95833
1138.32	1001.625
1141.687	1043.95833
1145.05	1060.95833
1148.412	1073.625
1151.77	1060.625
1155.126	1057.29167
1158.48	1049.95833
1161.831	1061.625
1165.18	1054.625
1168.525	1082.625
1171.869	1090.29167
1175.21	1074.29167
1178.548	1100.625
1181.884	1107.29167
1185.217	1100.625
1188.548	1132.95833
1191.877	1148.95833
1195.202	1193.29167
1198.526	1221.95833
1201.846	1207.625
1205.165	1220.95833
1208.48	1210.625
1211.794	1206.95833
1215.104	1203.625
1218.413	1185.95833
1221.719	1180.95833
1225.022	1157.625
1228.323	1150.625
1231.621	1156.29167
1234.917	1139.95833
1238.21	1172.95833
1241.501	1144.29167
1244.79	1127.95833
1248.076	1130.625
1251.359	1145.95833
1254.64	1192.625
1257.919	1171.29167
1261.195	1189.95833
1264.468	1190.29167
1267.74	1206.95833
1271.008	1215.95833
1274.275	1216.29167
1277.538	1198.95833
1280.8	1197.95833
1284.059	1197.29167
1287.315	1202.625
1290.569	1194.625
1293.821	1225.29167
1297.07	1205.95833
1300.317	1206.625
1303.562	1229.625
1306.803	1215.625
1310.043	1201.95833
1313.28	1189.625
1316.515	1188.29167
1319.747	1208.95833
1322.977	1200.625
1326.204	1167.95833
1329.429	1166.29167
1332.652	1171.95833
1335.872	1170.625
1339.09	1150.29167
1342.306	1153.95833
1345.519	1135.625
1348.729	1142.625
1351.938	1151.95833
1355.144	1131.29167
1358.347	1103.29167
1361.548	1125.95833
1364.747	1126.95833
1367.944	1109.29167
1371.138	1100.95833
1374.329	1100.29167
1377.518	1092.95833
1380.705	1115.625
1383.89	1094.29167
1387.072	1069.625
1390.252	1062.29167
1393.429	1020.95833
1396.605	986.29167
1399.777	948.29167
1402.948	945.29167
1406.116	933.625
1409.282	938.29167
1412.445	924.29167
1415.606	960.95833
1418.765	952.95833
1421.921	961.29167
1425.075	968.29167
1428.227	982.95833
1431.376	1036.95833
1434.524	1082.95833
1437.668	1074.95833
1440.811	1081.29167
1443.951	1086.29167
1447.089	1117.29167
1450.224	1094.625
1453.357	1099.95833
1456.488	1099.29167
1459.617	1094.95833
1462.743	1067.29167
1465.867	1041.95833
1468.989	1035.625
1472.108	1017.625
1475.225	1011.625
1478.34	1002.625
1481.453	996.29167
1484.563	996.625
1487.671	1009.625
1490.776	1021.625
1493.88	1034.625
1496.981	1042.625
1500.08	1060.95833
1503.176	1065.29167
1506.271	1079.29167
1509.363	1094.625
1512.452	1076.95833
1515.54	1113.29167
1518.625	1116.625
1521.708	1161.625
1524.789	1203.29167
1527.867	1222.95833
1530.944	1276.95833
1534.018	1299.95833
1537.089	1373.95833
1540.159	1362.95833
1543.226	1347.29167
1546.291	1316.625
1549.354	1281.29167
1552.415	1270.29167
1555.473	1245.625
1558.529	1222.29167
1561.583	1214.95833
1564.634	1191.95833
1567.684	1206.29167
1570.731	1218.29167
1573.776	1227.625
1576.819	1252.29167
1579.859	1243.29167
1582.898	1253.29167
1585.934	1283.625
1588.968	1292.625
1591.999	1264.625
1595.029	1261.95833
1598.056	1281.625
1601.081	1288.95833
1604.104	1274.95833
1607.125	1254.625
1610.144	1237.95833
1613.16	1226.625
1616.174	1195.625
1619.186	1181.625
1622.196	1177.29167
1625.203	1129.95833
1628.209	1141.29167
1631.212	1116.95833
1634.213	1137.95833
1637.212	1160.625
1640.209	1149.625
1643.203	1110.29167
1646.196	1088.29167
1649.186	1023.95833
1652.174	1010.29167
1655.16	969.625
1658.144	954.29167
1661.125	918.95833
1664.105	875.95833
1667.082	843.625
1670.057	792.95833
1673.03	754.29167
1676.001	722.95833
1678.97	671.29167
1681.937	632.95833
1684.901	614.95833
1687.863	611.95833
1690.824	572.29167
1693.782	570.625
1696.738	539.29167
1699.692	551.625
1702.643	528.29167
1705.593	528.29167
1708.54	514.95833
1711.486	529.625
1714.429	504.95833
1717.37	512.625
1720.309	498.95833
1723.246	502.625
1726.181	490.95833
1729.113	490.625
1732.044	490.29167
1734.972	478.95833
1737.899	494.29167
1740.823	486.625
1743.745	512.29167
1746.665	470.95833
1749.583	462.29167
1752.499	455.95833
1755.413	448.95833
1758.325	441.29167
1761.235	449.625
1764.142	430.95833
1767.048	436.29167
1769.951	429.95833
1772.852	435.29167
1775.752	443.29167
1778.649	460.29167
1781.544	454.95833
1784.437	420.625
1787.328	433.29167
1790.217	418.95833
1793.104	399.29167
1795.989	414.95833
1798.872	398.625
1801.753	417.95833
1804.631	407.95833
1807.508	414.95833
1810.383	416.29167
1813.255	409.29167
1816.126	401.625
1818.994	401.95833
1821.861	403.625
1824.725	406.29167
1827.587	400.95833
1830.448	398.95833
1833.306	386.29167
1836.162	407.29167
1839.017	381.95833
1841.869	391.95833
1844.719	387.95833
1847.567	375.95833
1850.414	379.95833
1853.258	373.95833
1856.1	388.29167
1858.94	388.625
1861.778	374.95833
1864.614	368.29167
1867.448	382.29167
1870.28	370.29167
1873.111	392.625
1875.939	374.29167
1878.765	390.625
1881.589	365.29167
1884.411	366.95833
1887.231	381.625
1890.049	369.29167
1892.865	387.625
1895.68	365.625
1898.492	374.95833
1901.302	357.625
1904.11	373.625
1906.916	362.625
1909.721	355.95833
1912.523	367.95833
1915.323	350.29167
1918.122	342.29167
1920.918	371.625
1923.712	351.95833
1926.505	355.95833
1929.295	340.95833
1932.084	356.95833
1934.87	355.29167
1937.655	342.95833
1940.438	340.95833
1943.218	349.95833
1945.997	347.29167
1948.774	353.95833
1951.549	353.95833
1954.322	341.95833
1957.093	352.625
1959.862	334.29167
1962.629	340.29167
1965.394	334.625
1968.157	324.95833
1970.918	344.625
1973.678	323.29167
1976.435	347.29167
1979.19	327.29167
1981.944	322.625
1984.696	325.95833
1987.445	324.29167
1990.193	329.625
1992.939	333.625
1995.683	331.625
1998.425	314.625
2001.165	344.29167
2003.903	308.29167
2006.639	320.95833
2009.374	321.29167
2012.106	328.29167
2014.837	303.29167
2017.566	321.95833
2020.292	316.625
2023.017	315.95833
2025.74	305.29167
2028.461	303.95833
2031.18	309.95833
2033.898	307.29167
2036.613	307.29167
2039.327	310.29167
2042.038	296.95833
2044.748	301.29167
2047.456	308.625
2050.162	298.29167
2052.866	294.29167
2055.568	305.95833
2058.268	295.625
2060.967	307.625
2063.663	288.625
2066.358	292.29167
2069.051	289.625
2071.742	293.625
2074.431	306.95833
2077.118	295.95833
2079.804	282.29167
2082.487	291.625
2085.169	305.95833
2087.849	310.625
2090.527	293.95833
2093.203	300.29167
2095.877	298.625
2098.55	295.625
2101.22	302.29167
2103.889	309.29167
2106.556	288.95833
2109.221	302.29167
2111.884	303.95833
2114.546	325.625
2117.205	315.95833
2119.863	354.29167
2122.519	352.29167
2125.173	370.625
2127.825	409.95833
2130.475	417.625
2133.124	392.29167
2135.771	379.95833
2138.416	391.29167
2141.059	355.95833
2143.7	357.95833
2146.339	340.29167
2148.977	306.29167
2151.613	326.625
2154.247	317.29167
2156.879	305.625
2159.51	296.29167
2162.138	289.625
2164.765	294.29167
2167.39	283.95833
2170.013	303.29167
2172.634	297.625
2175.254	286.29167
2177.872	321.95833
2180.488	275.29167
2183.102	280.29167
2185.714	280.29167
2188.325	262.95833
2190.934	282.625
2193.541	273.625
2196.146	261.625
2198.75	262.625
2201.351	258.625
2203.951	250.625
2206.549	264.95833
2209.146	252.625
2211.74	248.29167
2214.333	265.625
2216.924	243.29167
2219.514	247.625
2222.101	249.95833
2224.687	258.95833
2227.271	245.625
2229.853	242.625
2232.433	230.29167
2235.012	251.29167
2237.589	249.625
2240.164	262.95833
2242.738	246.95833
2245.309	236.625
2247.879	255.625
2250.448	251.29167
2253.014	226.29167
2255.579	227.625
2258.142	233.95833
2260.703	227.95833
2263.262	230.95833
2265.82	226.29167
2268.376	235.29167
2270.93	227.625
2273.483	219.29167
2276.033	233.29167
2278.583	215.29167
2281.13	222.625
2283.675	219.95833
2286.219	220.625
2288.761	221.29167
2291.302	225.95833
2293.841	237.29167
2296.377	211.29167
2298.913	221.95833
2301.446	226.625
2303.978	221.625
2306.508	216.625
2309.037	218.95833
2311.563	209.625
2314.088	225.95833
2316.612	199.95833
2319.133	217.625
2321.653	218.95833
2324.171	205.29167
2326.688	218.625
2329.202	214.625
2331.715	217.625
2334.227	216.95833
2336.736	211.29167
2339.244	205.625
2341.751	193.625
2344.255	215.95833
2346.758	207.625
2349.259	193.29167
2351.759	207.95833
2354.257	193.29167
2356.753	194.625
2359.247	191.95833
2361.74	201.95833
2364.231	196.625
2366.721	211.95833
2369.209	201.29167
2371.695	201.29167
2374.179	197.625
2376.662	188.95833
2379.143	207.95833
2381.622	195.29167
2384.1	207.95833
2386.576	197.95833
2389.051	208.95833
2391.524	204.95833
2393.995	208.29167
2396.464	194.29167
2398.932	193.95833
2401.398	199.625
2403.863	188.29167
2406.325	190.625
2408.787	194.95833
2411.246	192.95833
2413.704	189.29167
2416.16	189.625
2418.615	186.95833
2421.068	189.95833
2423.519	185.625
2425.969	179.95833
2428.417	201.29167
2430.863	213.29167
2433.308	199.29167
2435.751	189.95833
2438.193	182.95833
2440.633	195.625
2443.071	195.625
2445.508	183.95833
2447.943	184.29167
2450.376	184.95833
2452.808	191.95833
2455.238	178.95833
2457.667	215.29167
2460.093	181.625
2462.519	169.625
2464.942	172.625
2467.365	182.95833
2469.785	185.625
2472.204	179.95833
2474.621	177.625
2477.037	199.625
2479.451	175.29167
2481.863	170.29167
2484.274	175.625
2486.683	177.625
2489.091	186.29167
2491.497	182.95833
2493.901	182.95833
2496.304	172.625
2498.705	183.29167
2501.105	178.95833
2503.503	199.29167
2505.899	170.95833
2508.294	194.95833
2510.687	170.625
2513.079	173.625
2515.469	168.95833
2517.858	166.95833
2520.245	188.625
2522.63	170.95833
2525.014	172.95833
2527.396	172.29167
2529.776	175.29167
2532.156	175.625
2534.533	166.625
2536.909	163.625
2539.283	152.95833
2541.656	166.29167
2544.027	183.95833
2546.397	180.95833
2548.765	168.95833
2551.131	165.29167
2553.496	178.29167
2555.86	172.95833
2558.221	173.95833
2560.582	165.625
2562.94	153.95833
2565.298	167.95833
2567.653	183.625
2570.007	154.95833
2572.36	173.625
2574.711	157.625
2577.06	176.29167
2579.408	166.95833
2581.754	167.95833
2584.099	161.29167
2586.442	160.29167
2588.784	167.29167
2591.124	164.95833
2593.463	161.625
2595.8	171.95833
2598.135	155.625
2600.469	156.625
2602.802	168.625
2605.133	170.625
2607.462	152.29167
2609.79	153.625
2612.116	174.29167
2614.441	162.625
2616.764	162.95833
2619.086	160.29167
2621.406	152.95833
2623.725	173.95833
2626.042	162.625
2628.358	155.95833
2630.672	159.625
2632.985	172.95833
2635.296	166.95833
2637.606	159.95833
2639.914	156.95833
2642.22	160.29167
2644.525	156.95833
2646.829	159.95833
2649.131	177.29167
2651.432	166.29167
2653.731	154.625
2656.028	168.29167
2658.324	164.95833
2660.619	154.95833
2662.912	167.29167
2665.204	147.95833
2667.494	166.95833
2669.782	155.625
2672.07	170.625
2674.355	165.625
2676.639	165.29167
2678.922	157.29167
2681.203	165.625
2683.483	159.29167
2685.761	153.95833
2688.038	165.95833
2690.313	174.95833
2692.587	156.29167
2694.859	158.95833
2697.13	163.95833
2699.399	164.95833
2701.667	166.29167
2703.933	164.29167
2706.198	170.95833
2708.461	176.625
2710.723	172.29167
2712.984	171.625
2715.243	180.95833
2717.5	162.95833
2719.757	169.625
2722.011	163.29167
2724.264	176.625
2726.516	183.29167
2728.766	163.29167
2731.015	173.29167
2733.262	165.29167
2735.508	161.625
2737.753	168.29167
2739.996	155.95833
2742.237	156.29167
2744.477	175.95833
2746.716	184.29167
2748.953	171.29167
2751.189	172.29167
2753.423	167.625
2755.656	159.95833
2757.887	161.29167
2760.117	152.95833
2762.346	155.95833
2764.573	141.29167
2766.798	156.625
2769.022	162.29167
2771.245	149.625
2773.467	164.625
2775.686	155.625
2777.905	162.95833
2780.122	160.625
2782.337	164.625
2784.552	154.29167
2786.764	162.29167
2788.976	153.625
2791.186	157.29167
2793.394	165.95833
2795.601	168.95833
2797.807	169.95833
2800.011	167.625
2802.214	169.29167
2804.415	169.95833
2806.615	166.625
2808.814	170.29167
2811.011	174.95833
2813.206	170.625
2815.401	177.95833
2817.594	178.29167
2819.785	182.29167
2821.975	166.95833
2824.164	175.29167
2826.351	173.95833
2828.537	189.625
2830.722	186.95833
2832.905	185.625
2835.086	187.29167
2837.267	210.625
2839.445	203.95833
2841.623	210.625
2843.799	209.95833
2845.974	218.95833
2848.147	218.625
2850.319	236.625
2852.489	245.625
2854.659	245.625
2856.826	247.95833
2858.993	266.625
2861.158	245.29167
2863.321	258.29167
2865.483	264.625
2867.644	263.95833
2869.804	264.625
2871.962	258.95833
2874.118	255.29167
2876.274	270.29167
2878.428	264.625
2880.58	267.95833
2882.731	252.29167
2884.881	256.95833
2887.03	273.625
2889.177	261.625
2891.322	273.29167
2893.467	251.29167
2895.61	254.95833
2897.751	270.29167
2899.892	256.95833
2902.03	264.95833
2904.168	267.95833
2906.304	272.95833
2908.439	283.625
2910.572	262.29167
2912.704	267.625
2914.835	277.29167
2916.965	280.29167
2919.093	290.95833
2921.219	256.29167
2923.345	288.29167
2925.469	272.625
2927.591	270.95833
2929.712	255.95833
2931.832	261.29167
2933.951	251.29167
2936.068	249.95833
2938.184	253.625
2940.299	246.95833
2942.412	239.29167
2944.524	218.625
2946.634	228.29167
2948.744	204.29167
2950.851	246.95833
2952.958	202.625
2955.063	219.29167
2957.167	207.29167
2959.269	194.625
2961.371	225.29167
2963.471	194.625
2965.569	215.29167
2967.666	186.625
2969.762	181.29167
2971.857	176.29167
2973.95	171.95833
2976.042	176.95833
2978.133	172.95833
2980.222	166.625
2982.31	165.625
2984.396	145.29167
2986.482	151.29167
2988.566	153.29167
2990.648	158.95833
2992.73	157.29167
2994.81	144.95833
2996.889	153.625
2998.966	152.29167
3001.042	160.29167
3003.117	147.95833
3005.191	151.625
3007.263	154.95833
3009.334	152.29167
3011.403	153.625
3013.472	140.625
3015.539	151.95833
3017.604	160.95833
3019.669	135.29167
3021.732	137.95833
3023.794	144.625
3025.854	134.625
3027.914	129.95833
3029.971	132.625
3032.028	135.625
3034.083	143.95833
3036.137	132.95833
3038.19	127.95833
3040.242	120.625
3042.292	121.625
3044.341	125.95833
3046.388	137.29167
3048.435	120.625
3050.48	128.95833
3052.524	126.95833
3054.566	108.625
3056.607	124.95833
3058.647	119.625
3060.686	107.625
3062.723	102.95833
3064.759	100.625
3066.794	1.625
3068.828	1.29167
3070.86	2.95833
