-0.839	144.83333
3.438	170.16667
7.711	71.5
11.981	43.16667
16.247	32.5
20.509	37.16667
24.768	35.83333
29.024	48.5
33.276	31.5
37.524	44.83333
41.769	33.83333
46.01	25.5
50.247	46.83333
54.481	54.5
58.712	53.83333
62.939	40.16667
67.162	54.16667
71.382	46.5
75.599	38.16667
79.812	41.83333
84.021	64.16667
88.227	44.16667
92.429	52.16667
96.628	38.16667
100.823	52.5
105.015	55.83333
109.204	45.5
113.388	55.83333
117.57	44.16667
121.748	58.83333
125.922	47.5
130.093	65.5
134.261	61.5
138.425	52.83333
142.585	86.16667
146.742	66.5
150.896	80.83333
155.046	78.16667
159.193	114.83333
163.336	175.83333
167.476	302.16667
171.613	541.5
175.746	871.83333
179.875	1245.83333
184.002	1620.16667
188.124	1924.5
192.244	2024.16667
196.36	2034.83333
200.472	2035.83333
204.581	2016.5
208.687	1959.5
212.79	1949.83333
216.889	1991.5
220.984	2003.16667
225.077	2030.16667
229.165	2032.5
233.251	2047.83333
237.333	2042.83333
241.412	2036.16667
245.487	2016.5
249.559	1975.83333
253.628	1997.5
257.694	1958.16667
261.756	1955.16667
265.814	1933.83333
269.87	1860.16667
273.922	1802.16667
277.97	1756.83333
282.016	1722.5
286.058	1654.5
290.097	1692.83333
294.132	1695.83333
298.164	1711.5
302.193	1650.83333
306.219	1563.5
310.241	1461.5
314.26	1369.5
318.276	1284.83333
322.288	1229.5
326.297	1179.5
330.303	1146.83333
334.305	1138.16667
338.305	1127.5
342.301	1114.5
346.294	1096.83333
350.283	1100.83333
354.269	1089.16667
358.252	1082.16667
362.232	1085.5
366.209	1082.5
370.182	1084.5
374.152	1070.5
378.119	1086.83333
382.083	1078.5
386.043	1093.16667
390	1066.16667
393.954	1093.16667
397.905	1089.16667
401.852	1082.5
405.797	1066.83333
409.738	1059.16667
413.676	1072.5
417.61	1055.83333
421.542	1056.16667
425.47	1033.16667
429.396	1031.16667
433.318	1017.5
437.236	1016.5
441.152	1054.5
445.065	997.16667
448.974	1011.16667
452.88	994.5
456.783	992.83333
460.683	973.16667
464.58	1004.83333
468.473	1006.83333
472.364	997.16667
476.251	991.83333
480.135	1001.16667
484.016	1012.16667
487.894	1013.83333
491.769	1024.83333
495.641	1010.16667
499.509	1023.83333
503.375	1008.16667
507.237	994.5
511.096	1003.5
514.952	1009.5
518.805	1004.5
522.655	993.5
526.502	997.5
530.346	1011.5
534.187	1018.5
538.024	1001.5
541.859	1000.16667
545.69	1021.5
549.519	1014.83333
553.344	1001.5
557.166	997.83333
560.985	986.5
564.802	991.83333
568.615	967.5
572.425	939.83333
576.232	934.83333
580.036	947.5
583.836	951.16667
587.634	957.16667
591.429	944.16667
595.221	982.5
599.01	986.83333
602.796	970.16667
606.578	974.83333
610.358	991.83333
614.135	964.16667
617.909	984.5
621.679	967.5
625.447	958.5
629.212	970.16667
632.973	962.16667
636.732	950.83333
640.488	965.5
644.241	938.16667
647.991	949.16667
651.737	981.5
655.481	956.83333
659.222	975.5
662.96	966.16667
666.695	976.83333
670.427	969.5
674.156	974.83333
677.882	977.5
681.605	961.5
685.325	953.5
689.043	975.5
692.757	937.5
696.468	957.5
700.177	950.5
703.882	923.83333
707.585	929.5
711.284	926.5
714.981	915.5
718.675	920.5
722.366	937.83333
726.054	926.5
729.739	918.5
733.421	935.83333
737.1	911.83333
740.777	928.83333
744.45	935.83333
748.121	930.5
751.789	962.83333
755.453	933.83333
759.115	954.83333
762.774	951.16667
766.431	952.16667
770.084	963.16667
773.734	951.83333
777.382	972.83333
781.027	992.83333
784.669	994.83333
788.308	992.5
791.944	992.83333
795.577	1013.16667
799.208	997.83333
802.835	1007.5
806.46	1027.16667
810.082	1049.16667
813.701	1019.83333
817.317	1050.5
820.931	1055.5
824.542	1036.5
828.149	1012.83333
831.754	1000.5
835.357	994.83333
838.956	1004.83333
842.553	985.83333
846.146	977.83333
849.737	966.83333
853.326	986.83333
856.911	962.5
860.493	997.5
864.073	990.16667
867.65	1003.5
871.225	1010.83333
874.796	1008.16667
878.365	992.16667
881.931	1005.5
885.494	1020.16667
889.054	1015.16667
892.612	1023.83333
896.166	1002.5
899.719	994.83333
903.268	975.83333
906.814	981.16667
910.358	990.5
913.899	973.16667
917.438	970.83333
920.973	948.16667
924.506	974.16667
928.036	987.5
931.564	1013.16667
935.088	1014.5
938.61	996.83333
942.129	1003.16667
945.646	1013.5
949.16	1026.16667
952.671	1055.5
956.179	1070.5
959.685	1066.83333
963.188	1086.5
966.688	1078.83333
970.185	1037.5
973.68	1004.83333
977.173	999.16667
980.662	967.16667
984.149	989.16667
987.633	956.83333
991.114	978.5
994.593	995.16667
998.069	1016.5
1001.542	1047.5
1005.013	1026.5
1008.481	961.83333
1011.947	958.5
1015.409	941.16667
1018.869	961.83333
1022.327	958.16667
1025.782	938.5
1029.234	928.5
1032.683	932.16667
1036.13	900.5
1039.574	868.5
1043.016	861.16667
1046.455	847.5
1049.891	834.16667
1053.325	843.5
1056.756	828.16667
1060.184	827.83333
1063.61	819.16667
1067.033	848.5
1070.454	831.83333
1073.872	854.5
1077.287	837.83333
1080.7	840.5
1084.11	846.83333
1087.517	830.83333
1090.922	823.83333
1094.325	809.16667
1097.724	797.16667
1101.122	812.16667
1104.516	808.83333
1107.908	795.5
1111.298	799.5
1114.684	825.16667
1118.069	825.83333
1121.45	839.83333
1124.83	834.16667
1128.206	838.83333
1131.58	835.83333
1134.951	855.5
1138.32	882.83333
1141.687	910.83333
1145.05	934.83333
1148.412	930.16667
1151.77	923.83333
1155.126	928.83333
1158.48	905.5
1161.831	916.83333
1165.18	919.83333
1168.525	945.5
1171.869	949.83333
1175.21	935.16667
1178.548	973.5
1181.884	972.5
1185.217	962.83333
1188.548	993.16667
1191.877	1019.83333
1195.202	1045.16667
1198.526	1088.83333
1201.846	1072.83333
1205.165	1068.83333
1208.48	1066.5
1211.794	1069.5
1215.104	1081.16667
1218.413	1049.83333
1221.719	1061.5
1225.022	1024.5
1228.323	1028.16667
1231.621	1029.83333
1234.917	1032.16667
1238.21	1036.16667
1241.501	1024.16667
1244.79	1019.16667
1248.076	992.16667
1251.359	1013.83333
1254.64	1061.16667
1257.919	1029.5
1261.195	1035.83333
1264.468	1071.5
1267.74	1080.83333
1271.008	1076.5
1274.275	1080.83333
1277.538	1056.5
1280.8	1073.83333
1284.059	1083.5
1287.315	1077.83333
1290.569	1072.5
1293.821	1098.16667
1297.07	1089.83333
1300.317	1097.16667
1303.562	1104.83333
1306.803	1093.16667
1310.043	1093.16667
1313.28	1093.83333
1316.515	1097.83333
1319.747	1095.16667
1322.977	1085.16667
1326.204	1074.5
1329.429	1070.83333
1332.652	1071.83333
1335.872	1074.83333
1339.09	1048.83333
1342.306	1057.5
1345.519	1047.5
1348.729	1026.5
1351.938	1054.83333
1355.144	1034.83333
1358.347	1019.83333
1361.548	1016.16667
1364.747	1013.5
1367.944	1008.16667
1371.138	998.83333
1374.329	1000.83333
1377.518	1000.83333
1380.705	1000.16667
1383.89	987.83333
1387.072	949.83333
1390.252	929.83333
1393.429	911.5
1396.605	879.83333
1399.777	840.83333
1402.948	855.16667
1406.116	830.5
1409.282	832.16667
1412.445	827.83333
1415.606	831.16667
1418.765	832.5
1421.921	847.16667
1425.075	861.83333
1428.227	892.83333
1431.376	933.16667
1434.524	964.83333
1437.668	984.83333
1440.811	991.5
1443.951	999.83333
1447.089	1002.83333
1450.224	998.16667
1453.357	996.5
1456.488	995.16667
1459.617	975.5
1462.743	976.5
1465.867	949.5
1468.989	941.83333
1472.108	939.16667
1475.225	919.5
1478.34	891.16667
1481.453	893.16667
1484.563	907.16667
1487.671	917.83333
1490.776	926.16667
1493.88	925.83333
1496.981	938.83333
1500.08	955.5
1503.176	947.83333
1506.271	982.16667
1509.363	981.5
1512.452	982.5
1515.54	989.83333
1518.625	1011.16667
1521.708	1043.83333
1524.789	1070.5
1527.867	1099.16667
1530.944	1157.5
1534.018	1180.5
1537.089	1220.16667
1540.159	1220.16667
1543.226	1217.83333
1546.291	1171.83333
1549.354	1172.83333
1552.415	1143.83333
1555.473	1127.5
1558.529	1109.16667
1561.583	1094.5
1564.634	1086.83333
1567.684	1097.5
1570.731	1088.83333
1573.776	1122.83333
1576.819	1145.16667
1579.859	1161.16667
1582.898	1174.5
1585.934	1189.5
1588.968	1197.83333
1591.999	1150.83333
1595.029	1168.16667
1598.056	1182.83333
1601.081	1206.5
1604.104	1187.16667
1607.125	1170.16667
1610.144	1160.5
1613.16	1133.5
1616.174	1108.5
1619.186	1103.83333
1622.196	1082.16667
1625.203	1062.5
1628.209	1051.5
1631.212	1056.16667
1634.213	1058.16667
1637.212	1080.83333
1640.209	1086.83333
1643.203	1048.16667
1646.196	1024.83333
1649.186	947.5
1652.174	933.16667
1655.16	896.16667
1658.144	890.16667
1661.125	841.83333
1664.105	793.5
1667.082	769.16667
1670.057	714.5
1673.03	677.83333
1676.001	643.16667
1678.97	605.5
1681.937	564.16667
1684.901	541.5
1687.863	537.16667
1690.824	499.16667
1693.782	515.5
1696.738	474.16667
1699.692	480.83333
1702.643	453.83333
1705.593	456.16667
1708.54	448.83333
1711.486	462.83333
1714.429	441.5
1717.37	447.5
1720.309	426.16667
1723.246	439.5
1726.181	420.5
1729.113	418.5
1732.044	427.16667
1734.972	422.83333
1737.899	429.83333
1740.823	428.16667
1743.745	441.5
1746.665	392.83333
1749.583	392.5
1752.499	398.83333
1755.413	386.16667
1758.325	379.16667
1761.235	382.16667
1764.142	374.16667
1767.048	366.5
1769.951	370.83333
1772.852	360.16667
1775.752	380.5
1778.649	369.83333
1781.544	385.5
1784.437	357.5
1787.328	366.16667
1790.217	367.16667
1793.104	341.5
1795.989	347.5
1798.872	339.5
1801.753	371.83333
1804.631	353.16667
1807.508	355.5
1810.383	353.5
1813.255	352.5
1816.126	345.83333
1818.994	342.83333
1821.861	343.83333
1824.725	347.16667
1827.587	345.83333
1830.448	342.83333
1833.306	330.16667
1836.162	340.83333
1839.017	341.83333
1841.869	335.16667
1844.719	336.83333
1847.567	320.16667
1850.414	317.83333
1853.258	321.83333
1856.1	341.16667
1858.94	338.5
1861.778	324.16667
1864.614	309.5
1867.448	326.16667
1870.28	313.16667
1873.111	330.83333
1875.939	322.83333
1878.765	331.16667
1881.589	325.5
1884.411	319.16667
1887.231	324.83333
1890.049	323.5
1892.865	333.16667
1895.68	308.83333
1898.492	324.5
1901.302	309.5
1904.11	310.5
1906.916	311.5
1909.721	310.16667
1912.523	314.5
1915.323	300.16667
1918.122	296.83333
1920.918	314.83333
1923.712	294.83333
1926.505	306.5
1929.295	280.5
1932.084	307.5
1934.87	304.83333
1937.655	294.5
1940.438	297.16667
1943.218	300.83333
1945.997	297.16667
1948.774	301.83333
1951.549	302.5
1954.322	292.83333
1957.093	292.16667
1959.862	286.16667
1962.629	293.5
1965.394	290.83333
1968.157	280.5
1970.918	296.16667
1973.678	284.83333
1976.435	289.83333
1979.19	284.16667
1981.944	275.5
1984.696	279.83333
1987.445	272.83333
1990.193	284.5
1992.939	294.16667
1995.683	284.5
1998.425	263.16667
2001.165	302.83333
2003.903	263.16667
2006.639	276.16667
2009.374	282.5
2012.106	285.5
2014.837	254.5
2017.566	284.83333
2020.292	278.5
2023.017	265.5
2025.74	265.83333
2028.461	258.16667
2031.18	271.16667
2033.898	267.16667
2036.613	265.83333
2039.327	264.83333
2042.038	257.16667
2044.748	268.83333
2047.456	270.5
2050.162	253.5
2052.866	258.5
2055.568	270.5
2058.268	259.83333
2060.967	271.16667
2063.663	251.83333
2066.358	252.83333
2069.051	248.16667
2071.742	251.16667
2074.431	263.5
2077.118	249.83333
2079.804	249.5
2082.487	258.16667
2085.169	263.5
2087.849	267.5
2090.527	244.16667
2093.203	255.5
2095.877	259.5
2098.55	254.83333
2101.22	258.16667
2103.889	269.16667
2106.556	253.5
2109.221	269.16667
2111.884	255.83333
2114.546	276.16667
2117.205	283.16667
2119.863	307.83333
2122.519	302.83333
2125.173	324.16667
2127.825	356.16667
2130.475	364.5
2133.124	341.16667
2135.771	332.5
2138.416	349.16667
2141.059	312.16667
2143.7	314.5
2146.339	289.16667
2148.977	259.5
2151.613	274.83333
2154.247	265.83333
2156.879	262.83333
2159.51	247.16667
2162.138	254.5
2164.765	252.83333
2167.39	236.83333
2170.013	270.16667
2172.634	259.83333
2175.254	245.5
2177.872	279.5
2180.488	234.5
2183.102	244.5
2185.714	242.83333
2188.325	229.16667
2190.934	241.16667
2193.541	247.5
2196.146	239.16667
2198.75	226.5
2201.351	222.5
2203.951	217.83333
2206.549	227.5
2209.146	222.16667
2211.74	212.83333
2214.333	223.5
2216.924	212.16667
2219.514	215.83333
2222.101	215.5
2224.687	231.83333
2227.271	202.16667
2229.853	215.16667
2232.433	202.83333
2235.012	218.83333
2237.589	218.16667
2240.164	230.5
2242.738	214.5
2245.309	199.5
2247.879	214.5
2250.448	219.5
2253.014	200.16667
2255.579	192.83333
2258.142	196.83333
2260.703	199.5
2263.262	198.16667
2265.82	193.5
2268.376	202.83333
2270.93	201.5
2273.483	188.16667
2276.033	202.16667
2278.583	191.5
2281.13	188.83333
2283.675	185.5
2286.219	190.16667
2288.761	197.83333
2291.302	196.83333
2293.841	198.16667
2296.377	181.16667
2298.913	190.5
2301.446	202.5
2303.978	185.83333
2306.508	187.5
2309.037	195.5
2311.563	186.83333
2314.088	195.5
2316.612	177.5
2319.133	191.16667
2321.653	190.16667
2324.171	185.5
2326.688	194.16667
2329.202	187.16667
2331.715	187.16667
2334.227	187.5
2336.736	178.16667
2339.244	180.83333
2341.751	169.83333
2344.255	186.16667
2346.758	181.5
2349.259	174.16667
2351.759	179.16667
2354.257	168.16667
2356.753	171.5
2359.247	175.16667
2361.74	172.83333
2364.231	177.16667
2366.721	183.16667
2369.209	170.16667
2371.695	168.83333
2374.179	164.83333
2376.662	158.83333
2379.143	183.5
2381.622	173.5
2384.1	179.16667
2386.576	176.16667
2389.051	179.16667
2391.524	181.5
2393.995	174.83333
2396.464	170.5
2398.932	164.16667
2401.398	173.16667
2403.863	163.5
2406.325	166.5
2408.787	171.5
2411.246	169.16667
2413.704	164.83333
2416.16	166.5
2418.615	164.5
2421.068	168.83333
2423.519	166.83333
2425.969	156.5
2428.417	171.5
2430.863	190.83333
2433.308	172.5
2435.751	165.16667
2438.193	162.16667
2440.633	167.5
2443.071	175.5
2445.508	157.5
2447.943	161.83333
2450.376	159.16667
2452.808	161.5
2455.238	163.5
2457.667	178.83333
2460.093	150.5
2462.519	148.5
2464.942	152.16667
2467.365	163.16667
2469.785	160.5
2472.204	151.5
2474.621	149.83333
2477.037	173.83333
2479.451	148.83333
2481.863	146.83333
2484.274	145.16667
2486.683	156.16667
2489.091	168.16667
2491.497	157.16667
2493.901	158.5
2496.304	153.83333
2498.705	167.16667
2501.105	151.5
2503.503	170.83333
2505.899	142.16667
2508.294	172.83333
2510.687	147.5
2513.079	150.16667
2515.469	141.83333
2517.858	145.5
2520.245	169.16667
2522.63	146.16667
2525.014	138.16667
2527.396	142.5
2529.776	147.5
2532.156	149.5
2534.533	139.83333
2536.909	138.83333
2539.283	129.5
2541.656	140.83333
2544.027	151.5
2546.397	154.83333
2548.765	145.16667
2551.131	145.5
2553.496	145.5
2555.86	150.16667
2558.221	155.16667
2560.582	140.83333
2562.94	135.16667
2565.298	147.5
2567.653	156.16667
2570.007	134.83333
2572.36	153.5
2574.711	135.83333
2577.06	153.16667
2579.408	146.16667
2581.754	147.5
2584.099	142.5
2586.442	138.83333
2588.784	148.83333
2591.124	142.83333
2593.463	139.5
2595.8	146.83333
2598.135	126.16667
2600.469	129.5
2602.802	151.83333
2605.133	152.16667
2607.462	133.5
2609.79	126.16667
2612.116	146.16667
2614.441	136.16667
2616.764	139.83333
2619.086	138.5
2621.406	133.16667
2623.725	150.83333
2626.042	138.5
2628.358	127.5
2630.672	137.5
2632.985	152.16667
2635.296	144.16667
2637.606	137.83333
2639.914	131.16667
2642.22	134.5
2644.525	133.83333
2646.829	138.16667
2649.131	147.83333
2651.432	140.5
2653.731	132.83333
2656.028	142.5
2658.324	142.16667
2660.619	127.83333
2662.912	142.5
2665.204	123.83333
2667.494	134.5
2669.782	129.16667
2672.07	146.16667
2674.355	143.83333
2676.639	143.83333
2678.922	134.16667
2681.203	132.83333
2683.483	129.5
2685.761	124.5
2688.038	140.83333
2690.313	148.5
2692.587	133.16667
2694.859	133.83333
2697.13	137.83333
2699.399	135.83333
2701.667	140.5
2703.933	137.83333
2706.198	147.5
2708.461	140.16667
2710.723	148.83333
2712.984	137.83333
2715.243	145.83333
2717.5	139.5
2719.757	149.5
2722.011	136.83333
2724.264	148.5
2726.516	156.5
2728.766	139.16667
2731.015	148.5
2733.262	146.16667
2735.508	140.83333
2737.753	147.83333
2739.996	131.16667
2742.237	129.83333
2744.477	146.83333
2746.716	154.83333
2748.953	145.16667
2751.189	144.5
2753.423	145.16667
2755.656	131.5
2757.887	131.83333
2760.117	131.5
2762.346	130.16667
2764.573	118.16667
2766.798	128.5
2769.022	128.83333
2771.245	124.83333
2773.467	130.16667
2775.686	130.16667
2777.905	137.83333
2780.122	134.5
2782.337	132.83333
2784.552	130.16667
2786.764	130.83333
2788.976	126.83333
2791.186	134.5
2793.394	128.5
2795.601	139.83333
2797.807	147.16667
2800.011	142.5
2802.214	142.83333
2804.415	140.5
2806.615	144.16667
2808.814	143.5
2811.011	146.5
2813.206	146.5
2815.401	154.5
2817.594	149.5
2819.785	154.16667
2821.975	137.16667
2824.164	148.5
2826.351	142.5
2828.537	163.5
2830.722	159.83333
2832.905	153.16667
2835.086	167.5
2837.267	183.83333
2839.445	180.16667
2841.623	181.16667
2843.799	176.5
2845.974	197.5
2848.147	196.83333
2850.319	206.16667
2852.489	216.83333
2854.659	226.83333
2856.826	224.83333
2858.993	244.16667
2861.158	219.83333
2863.321	225.16667
2865.483	234.83333
2867.644	226.16667
2869.804	233.16667
2871.962	226.16667
2874.118	231.83333
2876.274	229.83333
2878.428	232.83333
2880.58	239.5
2882.731	227.83333
2884.881	235.16667
2887.03	243.5
2889.177	226.5
2891.322	247.16667
2893.467	220.16667
2895.61	234.16667
2897.751	249.16667
2899.892	231.5
2902.03	244.5
2904.168	240.5
2906.304	242.83333
2908.439	260.83333
2910.572	241.16667
2912.704	250.16667
2914.835	253.16667
2916.965	251.83333
2919.093	262.16667
2921.219	230.83333
2923.345	263.5
2925.469	253.83333
2927.591	242.5
2929.712	233.5
2931.832	242.83333
2933.951	231.16667
2936.068	228.16667
2938.184	220.5
2940.299	215.16667
2942.412	210.83333
2944.524	195.5
2946.634	207.5
2948.744	175.83333
2950.851	214.16667
2952.958	185.16667
2955.063	193.83333
2957.167	180.83333
2959.269	169.83333
2961.371	196.83333
2963.471	165.5
2965.569	174.83333
2967.666	155.83333
2969.762	153.83333
2971.857	151.5
2973.95	147.5
2976.042	155.83333
2978.133	145.83333
2980.222	147.5
2982.31	129.83333
2984.396	118.16667
2986.482	124.83333
2988.566	130.5
2990.648	128.83333
2992.73	127.83333
2994.81	115.83333
2996.889	125.5
2998.966	129.83333
3001.042	135.16667
3003.117	121.5
3005.191	123.5
3007.263	130.83333
3009.334	121.83333
3011.403	126.16667
3013.472	116.83333
3015.539	133.83333
3017.604	138.83333
3019.669	110.5
3021.732	113.5
3023.794	115.83333
3025.854	110.83333
3027.914	106.83333
3029.971	107.5
3032.028	111.16667
3034.083	115.5
3036.137	112.83333
3038.19	101.16667
3040.242	96.16667
3042.292	101.16667
3044.341	104.5
3046.388	116.5
3048.435	92.5
3050.48	111.5
3052.524	100.16667
3054.566	88.5
3056.607	96.83333
3058.647	95.5
3060.686	84.5
3062.723	79.16667
3064.759	83.83333
3066.794	0.5
3068.828	-0.83333
3070.86	4.5
