-0.839	138.95833
3.438	159.625
7.711	66.625
11.981	44.29167
16.247	30.625
20.509	40.29167
24.768	36.29167
29.024	47.29167
33.276	31.625
37.524	43.95833
41.769	27.95833
46.01	28.29167
50.247	43.95833
54.481	54.625
58.712	57.29167
62.939	37.625
67.162	52.95833
71.382	48.95833
75.599	38.625
79.812	45.625
84.021	64.29167
88.227	40.95833
92.429	53.95833
96.628	38.95833
100.823	55.29167
105.015	54.95833
109.204	44.625
113.388	58.95833
117.57	47.29167
121.748	60.95833
125.922	49.625
130.093	65.95833
134.261	62.95833
138.425	55.95833
142.585	82.95833
146.742	65.29167
150.896	80.625
155.046	80.625
159.193	119.625
163.336	175.95833
167.476	300.625
171.613	547.625
175.746	873.625
179.875	1292.29167
184.002	1666.29167
188.124	1988.625
192.244	2076.29167
196.36	2126.625
200.472	2107.29167
204.581	2106.29167
208.687	2045.625
212.79	2061.29167
216.889	2101.95833
220.984	2134.29167
225.077	2149.95833
229.165	2183.95833
233.251	2189.95833
237.333	2206.625
241.412	2194.625
245.487	2181.95833
249.559	2161.625
253.628	2143.95833
257.694	2119.29167
261.756	2133.625
265.814	2060.95833
269.87	2001.95833
273.922	1946.29167
277.97	1887.625
282.016	1851.29167
286.058	1809.95833
290.097	1809.95833
294.132	1804.95833
298.164	1807.95833
302.193	1763.29167
306.219	1677.625
310.241	1567.29167
314.26	1478.625
318.276	1393.29167
322.288	1346.625
326.297	1281.625
330.303	1263.29167
334.305	1267.29167
338.305	1238.95833
342.301	1227.95833
346.294	1229.625
350.283	1225.29167
354.269	1198.95833
358.252	1203.29167
362.232	1196.95833
366.209	1212.95833
370.182	1196.29167
374.152	1200.625
378.119	1202.29167
382.083	1189.625
386.043	1221.625
390	1190.95833
393.954	1227.625
397.905	1203.625
401.852	1232.95833
405.797	1203.95833
409.738	1220.95833
413.676	1226.95833
417.61	1247.95833
421.542	1201.95833
425.47	1165.625
429.396	1147.625
433.318	1132.625
437.236	1142.95833
441.152	1173.625
445.065	1130.29167
448.974	1130.95833
452.88	1119.29167
456.783	1123.95833
460.683	1112.95833
464.58	1124.625
468.473	1127.625
472.364	1132.29167
476.251	1118.29167
480.135	1119.95833
484.016	1132.29167
487.894	1155.625
491.769	1143.625
495.641	1148.625
499.509	1158.625
503.375	1138.95833
507.237	1138.625
511.096	1147.95833
514.952	1150.95833
518.805	1153.625
522.655	1168.625
526.502	1144.625
530.346	1138.95833
534.187	1142.625
538.024	1135.29167
541.859	1119.95833
545.69	1148.625
549.519	1149.625
553.344	1131.625
557.166	1107.95833
560.985	1110.625
564.802	1121.95833
568.615	1093.625
572.425	1083.29167
576.232	1069.625
580.036	1072.95833
583.836	1078.625
587.634	1079.95833
591.429	1073.625
595.221	1097.29167
599.01	1093.29167
602.796	1103.625
606.578	1103.29167
610.358	1104.95833
614.135	1113.95833
617.909	1095.29167
621.679	1087.625
625.447	1078.95833
629.212	1086.625
632.973	1082.29167
636.732	1077.29167
640.488	1080.95833
644.241	1066.29167
647.991	1052.95833
651.737	1091.29167
655.481	1052.95833
659.222	1066.29167
662.96	1067.95833
666.695	1073.625
670.427	1077.29167
674.156	1088.29167
677.882	1081.625
681.605	1087.29167
685.325	1042.625
689.043	1092.625
692.757	1051.625
696.468	1072.95833
700.177	1068.95833
703.882	1046.625
707.585	1038.29167
711.284	1033.29167
714.981	1022.625
718.675	1028.625
722.366	1038.625
726.054	1010.625
729.739	1016.625
733.421	1042.29167
737.1	1028.95833
740.777	1042.95833
744.45	1042.625
748.121	1038.29167
751.789	1067.29167
755.453	1048.95833
759.115	1061.95833
762.774	1061.29167
766.431	1061.29167
770.084	1076.95833
773.734	1077.625
777.382	1103.625
781.027	1088.95833
784.669	1087.625
788.308	1077.625
791.944	1083.29167
795.577	1097.29167
799.208	1113.95833
802.835	1102.29167
806.46	1109.625
810.082	1101.29167
813.701	1131.95833
817.317	1128.95833
820.931	1124.29167
824.542	1129.625
828.149	1096.95833
831.754	1100.625
835.357	1083.95833
838.956	1097.95833
842.553	1102.29167
846.146	1080.625
849.737	1065.625
853.326	1070.95833
856.911	1081.29167
860.493	1094.625
864.073	1088.625
867.65	1135.29167
871.225	1130.625
874.796	1110.625
878.365	1099.625
881.931	1119.625
885.494	1117.95833
889.054	1098.625
892.612	1113.29167
896.166	1103.95833
899.719	1076.95833
903.268	1074.625
906.814	1067.625
910.358	1062.625
913.899	1041.95833
917.438	1052.29167
920.973	1037.29167
924.506	1056.29167
928.036	1072.95833
931.564	1083.95833
935.088	1102.29167
938.61	1093.29167
942.129	1101.625
945.646	1094.95833
949.16	1110.95833
952.671	1114.29167
956.179	1135.625
959.685	1130.95833
963.188	1145.29167
966.688	1139.625
970.185	1100.29167
973.68	1073.95833
977.173	1068.625
980.662	1050.625
984.149	1057.625
987.633	1040.29167
991.114	1055.625
994.593	1085.625
998.069	1091.625
1001.542	1130.95833
1005.013	1124.29167
1008.481	1047.29167
1011.947	1033.95833
1015.409	1026.29167
1018.869	1034.95833
1022.327	1033.625
1025.782	1005.95833
1029.234	1003.29167
1032.683	1002.95833
1036.13	978.29167
1039.574	935.95833
1043.016	928.29167
1046.455	902.29167
1049.891	891.625
1053.325	909.95833
1056.756	896.95833
1060.184	911.95833
1063.61	886.95833
1067.033	895.625
1070.454	906.29167
1073.872	918.625
1077.287	894.95833
1080.7	904.29167
1084.11	900.625
1087.517	900.95833
1090.922	890.625
1094.325	867.29167
1097.724	882.95833
1101.122	870.95833
1104.516	867.29167
1107.908	863.29167
1111.298	888.29167
1114.684	878.95833
1118.069	881.29167
1121.45	898.95833
1124.83	875.625
1128.206	903.29167
1131.58	912.625
1134.951	913.95833
1138.32	941.29167
1141.687	975.95833
1145.05	996.29167
1148.412	995.29167
1151.77	991.29167
1155.126	999.625
1158.48	970.29167
1161.831	992.625
1165.18	997.95833
1168.525	1004.29167
1171.869	1023.625
1175.21	1007.625
1178.548	1021.95833
1181.884	1040.29167
1185.217	1043.95833
1188.548	1078.625
1191.877	1076.29167
1195.202	1121.625
1198.526	1126.29167
1201.846	1137.95833
1205.165	1129.625
1208.48	1134.29167
1211.794	1129.95833
1215.104	1138.95833
1218.413	1095.625
1221.719	1098.95833
1225.022	1097.29167
1228.323	1061.95833
1231.621	1071.29167
1234.917	1084.95833
1238.21	1102.95833
1241.501	1074.95833
1244.79	1058.29167
1248.076	1052.95833
1251.359	1078.95833
1254.64	1108.29167
1257.919	1083.95833
1261.195	1098.625
1264.468	1121.625
1267.74	1140.95833
1271.008	1142.95833
1274.275	1136.625
1277.538	1146.625
1280.8	1117.29167
1284.059	1118.625
1287.315	1134.95833
1290.569	1116.29167
1293.821	1135.29167
1297.07	1135.29167
1300.317	1145.29167
1303.562	1147.625
1306.803	1127.625
1310.043	1136.95833
1313.28	1124.29167
1316.515	1123.625
1319.747	1131.95833
1322.977	1109.625
1326.204	1107.29167
1329.429	1091.625
1332.652	1101.29167
1335.872	1088.625
1339.09	1083.625
1342.306	1092.29167
1345.519	1081.95833
1348.729	1065.625
1351.938	1072.625
1355.144	1072.625
1358.347	1048.29167
1361.548	1038.29167
1364.747	1039.625
1367.944	1016.29167
1371.138	1026.29167
1374.329	1034.95833
1377.518	1043.95833
1380.705	1044.625
1383.89	1036.95833
1387.072	1008.625
1390.252	984.625
1393.429	941.95833
1396.605	924.625
1399.777	894.95833
1402.948	894.625
1406.116	874.625
1409.282	868.29167
1412.445	856.625
1415.606	888.95833
1418.765	882.625
1421.921	906.625
1425.075	906.95833
1428.227	938.95833
1431.376	966.95833
1434.524	995.625
1437.668	1022.625
1440.811	1024.625
1443.951	1026.95833
1447.089	1022.625
1450.224	1027.29167
1453.357	1035.29167
1456.488	1030.625
1459.617	1018.95833
1462.743	1000.29167
1465.867	976.95833
1468.989	979.625
1472.108	954.95833
1475.225	945.29167
1478.34	932.29167
1481.453	926.29167
1484.563	932.625
1487.671	953.625
1490.776	973.29167
1493.88	960.29167
1496.981	989.95833
1500.08	998.95833
1503.176	999.29167
1506.271	1005.625
1509.363	1025.95833
1512.452	1038.95833
1515.54	1051.625
1518.625	1045.29167
1521.708	1097.29167
1524.789	1123.625
1527.867	1146.625
1530.944	1195.95833
1534.018	1225.625
1537.089	1289.29167
1540.159	1294.29167
1543.226	1288.95833
1546.291	1246.625
1549.354	1232.625
1552.415	1198.625
1555.473	1174.29167
1558.529	1148.95833
1561.583	1156.29167
1564.634	1139.95833
1567.684	1156.95833
1570.731	1144.29167
1573.776	1161.95833
1576.819	1163.95833
1579.859	1190.29167
1582.898	1204.29167
1585.934	1232.95833
1588.968	1227.29167
1591.999	1206.95833
1595.029	1197.29167
1598.056	1204.95833
1601.081	1218.625
1604.104	1213.29167
1607.125	1192.29167
1610.144	1182.95833
1613.16	1151.29167
1616.174	1143.95833
1619.186	1116.29167
1622.196	1089.625
1625.203	1068.29167
1628.209	1068.95833
1631.212	1055.625
1634.213	1061.95833
1637.212	1071.29167
1640.209	1074.29167
1643.203	1041.95833
1646.196	1000.95833
1649.186	963.625
1652.174	935.29167
1655.16	901.625
1658.144	891.29167
1661.125	846.625
1664.105	802.95833
1667.082	783.29167
1670.057	742.29167
1673.03	708.29167
1676.001	659.625
1678.97	627.95833
1681.937	608.95833
1684.901	570.95833
1687.863	567.29167
1690.824	525.95833
1693.782	541.625
1696.738	505.29167
1699.692	502.625
1702.643	484.95833
1705.593	493.625
1708.54	467.29167
1711.486	494.95833
1714.429	467.29167
1717.37	487.29167
1720.309	451.625
1723.246	466.95833
1726.181	443.29167
1729.113	457.95833
1732.044	449.95833
1734.972	444.29167
1737.899	459.95833
1740.823	460.29167
1743.745	477.29167
1746.665	437.625
1749.583	431.29167
1752.499	419.29167
1755.413	425.625
1758.325	400.29167
1761.235	416.95833
1764.142	407.625
1767.048	399.95833
1769.951	400.625
1772.852	400.625
1775.752	415.29167
1778.649	428.29167
1781.544	419.625
1784.437	389.95833
1787.328	396.29167
1790.217	401.95833
1793.104	365.95833
1795.989	373.29167
1798.872	371.95833
1801.753	394.29167
1804.631	381.29167
1807.508	390.95833
1810.383	378.95833
1813.255	377.95833
1816.126	363.95833
1818.994	377.29167
1821.861	369.625
1824.725	381.95833
1827.587	370.625
1830.448	371.29167
1833.306	359.95833
1836.162	377.95833
1839.017	362.29167
1841.869	368.625
1844.719	355.625
1847.567	341.95833
1850.414	340.625
1853.258	343.29167
1856.1	357.625
1858.94	361.29167
1861.778	358.95833
1864.614	343.29167
1867.448	352.29167
1870.28	336.29167
1873.111	367.29167
1875.939	343.95833
1878.765	358.95833
1881.589	346.95833
1884.411	353.625
1887.231	354.29167
1890.049	342.29167
1892.865	352.95833
1895.68	338.29167
1898.492	345.29167
1901.302	340.29167
1904.11	338.95833
1906.916	345.95833
1909.721	335.625
1912.523	336.29167
1915.323	329.95833
1918.122	320.625
1920.918	343.29167
1923.712	325.29167
1926.505	334.625
1929.295	321.29167
1932.084	328.625
1934.87	325.625
1937.655	315.625
1940.438	314.29167
1943.218	316.95833
1945.997	323.95833
1948.774	332.625
1951.549	326.95833
1954.322	319.29167
1957.093	321.95833
1959.862	306.29167
1962.629	314.29167
1965.394	316.29167
1968.157	297.95833
1970.918	323.29167
1973.678	295.29167
1976.435	320.29167
1979.19	309.29167
1981.944	293.625
1984.696	303.95833
1987.445	306.625
1990.193	302.29167
1992.939	318.95833
1995.683	299.625
1998.425	287.29167
2001.165	320.29167
2003.903	286.29167
2006.639	300.29167
2009.374	304.29167
2012.106	302.625
2014.837	274.95833
2017.566	307.625
2020.292	295.29167
2023.017	289.95833
2025.74	280.95833
2028.461	291.29167
2031.18	284.95833
2033.898	282.625
2036.613	285.625
2039.327	291.95833
2042.038	272.625
2044.748	286.95833
2047.456	288.29167
2050.162	268.95833
2052.866	278.625
2055.568	303.625
2058.268	271.95833
2060.967	286.29167
2063.663	267.625
2066.358	272.29167
2069.051	275.29167
2071.742	274.625
2074.431	284.625
2077.118	275.29167
2079.804	265.95833
2082.487	266.625
2085.169	285.29167
2087.849	291.625
2090.527	267.29167
2093.203	272.95833
2095.877	275.95833
2098.55	274.29167
2101.22	288.29167
2103.889	282.625
2106.556	271.625
2109.221	286.29167
2111.884	278.29167
2114.546	306.625
2117.205	307.625
2119.863	339.95833
2122.519	330.95833
2125.173	355.29167
2127.825	385.29167
2130.475	387.625
2133.124	376.95833
2135.771	368.95833
2138.416	378.29167
2141.059	346.95833
2143.7	343.29167
2146.339	324.29167
2148.977	291.95833
2151.613	305.29167
2154.247	297.95833
2156.879	294.29167
2159.51	277.95833
2162.138	281.95833
2164.765	275.29167
2167.39	268.29167
2170.013	287.95833
2172.634	288.625
2175.254	266.29167
2177.872	303.625
2180.488	256.95833
2183.102	258.625
2185.714	256.29167
2188.325	253.29167
2190.934	254.29167
2193.541	265.625
2196.146	255.625
2198.75	241.625
2201.351	236.625
2203.951	228.29167
2206.549	246.95833
2209.146	237.625
2211.74	233.625
2214.333	247.625
2216.924	234.95833
2219.514	236.95833
2222.101	228.95833
2224.687	248.95833
2227.271	222.29167
2229.853	231.95833
2232.433	213.95833
2235.012	235.29167
2237.589	226.95833
2240.164	253.95833
2242.738	226.95833
2245.309	213.29167
2247.879	241.625
2250.448	229.29167
2253.014	223.29167
2255.579	216.29167
2258.142	223.29167
2260.703	222.95833
2263.262	214.95833
2265.82	209.625
2268.376	228.625
2270.93	211.95833
2273.483	207.625
2276.033	219.95833
2278.583	205.29167
2281.13	207.95833
2283.675	209.29167
2286.219	202.29167
2288.761	209.625
2291.302	211.29167
2293.841	218.95833
2296.377	203.625
2298.913	215.625
2301.446	219.625
2303.978	207.29167
2306.508	202.625
2309.037	212.95833
2311.563	201.95833
2314.088	212.95833
2316.612	197.625
2319.133	205.95833
2321.653	200.95833
2324.171	193.95833
2326.688	211.625
2329.202	205.625
2331.715	203.625
2334.227	194.29167
2336.736	195.29167
2339.244	193.29167
2341.751	185.29167
2344.255	203.29167
2346.758	194.95833
2349.259	186.95833
2351.759	196.95833
2354.257	185.625
2356.753	182.95833
2359.247	180.95833
2361.74	195.95833
2364.231	194.625
2366.721	190.95833
2369.209	189.625
2371.695	190.625
2374.179	188.625
2376.662	175.29167
2379.143	199.29167
2381.622	192.29167
2384.1	189.29167
2386.576	187.29167
2389.051	197.95833
2391.524	202.29167
2393.995	193.29167
2396.464	184.95833
2398.932	188.29167
2401.398	187.625
2403.863	185.625
2406.325	178.29167
2408.787	188.625
2411.246	184.29167
2413.704	179.95833
2416.16	177.625
2418.615	179.95833
2421.068	185.625
2423.519	175.29167
2425.969	172.95833
2428.417	187.95833
2430.863	203.95833
2433.308	188.95833
2435.751	188.95833
2438.193	179.625
2440.633	179.625
2443.071	186.625
2445.508	176.625
2447.943	179.29167
2450.376	175.95833
2452.808	184.95833
2455.238	168.29167
2457.667	200.625
2460.093	180.29167
2462.519	159.95833
2464.942	167.625
2467.365	178.625
2469.785	178.95833
2472.204	172.95833
2474.621	171.625
2477.037	190.95833
2479.451	168.625
2481.863	164.29167
2484.274	161.625
2486.683	172.625
2489.091	183.95833
2491.497	177.625
2493.901	173.95833
2496.304	172.29167
2498.705	178.95833
2501.105	167.29167
2503.503	187.29167
2505.899	160.29167
2508.294	188.95833
2510.687	166.95833
2513.079	164.95833
2515.469	155.95833
2517.858	169.29167
2520.245	178.29167
2522.63	169.625
2525.014	162.29167
2527.396	160.29167
2529.776	165.29167
2532.156	167.95833
2534.533	152.95833
2536.909	155.95833
2539.283	149.625
2541.656	156.29167
2544.027	173.95833
2546.397	160.95833
2548.765	159.29167
2551.131	167.29167
2553.496	162.29167
2555.86	168.625
2558.221	167.625
2560.582	160.95833
2562.94	150.625
2565.298	158.29167
2567.653	167.95833
2570.007	153.625
2572.36	160.29167
2574.711	154.625
2577.06	178.95833
2579.408	163.95833
2581.754	159.29167
2584.099	160.95833
2586.442	157.95833
2588.784	167.625
2591.124	158.625
2593.463	155.29167
2595.8	162.625
2598.135	144.95833
2600.469	149.95833
2602.802	170.625
2605.133	164.29167
2607.462	149.29167
2609.79	144.95833
2612.116	169.625
2614.441	155.625
2616.764	160.95833
2619.086	156.625
2621.406	159.29167
2623.725	168.625
2626.042	154.29167
2628.358	149.625
2630.672	156.625
2632.985	164.29167
2635.296	161.95833
2637.606	154.95833
2639.914	153.29167
2642.22	148.625
2644.525	152.95833
2646.829	158.95833
2649.131	165.625
2651.432	161.29167
2653.731	154.625
2656.028	167.625
2658.324	163.95833
2660.619	145.95833
2662.912	162.95833
2665.204	142.95833
2667.494	158.95833
2669.782	149.95833
2672.07	169.29167
2674.355	167.29167
2676.639	164.95833
2678.922	155.29167
2681.203	166.625
2683.483	151.95833
2685.761	143.95833
2688.038	172.95833
2690.313	174.95833
2692.587	156.95833
2694.859	152.95833
2697.13	157.29167
2699.399	162.95833
2701.667	167.625
2703.933	163.95833
2706.198	167.625
2708.461	165.95833
2710.723	165.95833
2712.984	162.95833
2715.243	167.625
2717.5	160.29167
2719.757	163.29167
2722.011	164.29167
2724.264	171.625
2726.516	174.625
2728.766	159.29167
2731.015	167.625
2733.262	167.29167
2735.508	168.29167
2737.753	164.625
2739.996	151.29167
2742.237	151.29167
2744.477	167.29167
2746.716	177.625
2748.953	167.625
2751.189	168.625
2753.423	166.625
2755.656	157.95833
2757.887	155.625
2760.117	159.29167
2762.346	151.29167
2764.573	143.95833
2766.798	152.29167
2769.022	156.29167
2771.245	150.625
2773.467	157.95833
2775.686	155.29167
2777.905	159.625
2780.122	158.625
2782.337	162.29167
2784.552	150.95833
2786.764	159.29167
2788.976	152.625
2791.186	160.29167
2793.394	157.625
2795.601	167.625
2797.807	166.625
2800.011	161.29167
2802.214	170.625
2804.415	161.95833
2806.615	163.95833
2808.814	161.95833
2811.011	167.29167
2813.206	168.625
2815.401	180.29167
2817.594	180.625
2819.785	176.29167
2821.975	174.625
2824.164	177.95833
2826.351	168.625
2828.537	187.95833
2830.722	184.95833
2832.905	181.29167
2835.086	191.625
2837.267	205.29167
2839.445	204.625
2841.623	204.625
2843.799	210.29167
2845.974	219.95833
2848.147	217.95833
2850.319	224.95833
2852.489	234.95833
2854.659	239.95833
2856.826	243.625
2858.993	261.95833
2861.158	237.29167
2863.321	250.625
2865.483	266.95833
2867.644	260.95833
2869.804	256.95833
2871.962	255.95833
2874.118	263.625
2876.274	273.29167
2878.428	266.625
2880.58	265.625
2882.731	249.625
2884.881	255.29167
2887.03	264.95833
2889.177	255.625
2891.322	260.29167
2893.467	250.29167
2895.61	256.29167
2897.751	268.95833
2899.892	264.29167
2902.03	263.29167
2904.168	259.625
2906.304	259.625
2908.439	275.625
2910.572	256.625
2912.704	263.95833
2914.835	274.625
2916.965	271.29167
2919.093	289.95833
2921.219	251.625
2923.345	279.29167
2925.469	274.625
2927.591	269.29167
2929.712	253.625
2931.832	265.95833
2933.951	256.625
2936.068	251.625
2938.184	244.95833
2940.299	237.95833
2942.412	231.95833
2944.524	215.625
2946.634	227.625
2948.744	202.29167
2950.851	237.95833
2952.958	199.95833
2955.063	222.625
2957.167	199.95833
2959.269	189.29167
2961.371	223.95833
2963.471	191.95833
2965.569	208.29167
2967.666	182.625
2969.762	185.29167
2971.857	172.29167
2973.95	174.29167
2976.042	181.29167
2978.133	174.95833
2980.222	172.95833
2982.31	162.95833
2984.396	148.625
2986.482	153.29167
2988.566	161.625
2990.648	154.29167
2992.73	151.95833
2994.81	145.95833
2996.889	159.29167
2998.966	151.29167
3001.042	161.625
3003.117	146.625
3005.191	154.95833
3007.263	152.625
3009.334	145.95833
3011.403	158.625
3013.472	141.625
3015.539	162.29167
3017.604	170.625
3019.669	132.625
3021.732	141.29167
3023.794	144.625
3025.854	129.95833
3027.914	135.625
3029.971	129.625
3032.028	140.29167
3034.083	141.625
3036.137	139.625
3038.19	126.29167
3040.242	121.29167
3042.292	117.95833
3044.341	121.625
3046.388	136.29167
3048.435	115.29167
3050.48	138.95833
3052.524	125.29167
3054.566	111.95833
3056.607	123.29167
3058.647	117.95833
3060.686	110.625
3062.723	106.29167
3064.759	105.625
3066.794	1.625
3068.828	1.625
3070.86	1.29167
