-0.839	143.75
3.438	159.08333
7.711	64.75
11.981	43.41667
16.247	33.08333
20.509	39.08333
24.768	35.08333
29.024	42.75
33.276	33.41667
37.524	40.75
41.769	30.08333
46.01	29.75
50.247	47.41667
54.481	54.41667
58.712	57.08333
62.939	38.41667
67.162	53.75
71.382	46.08333
75.599	38.08333
79.812	47.75
84.021	62.75
88.227	46.41667
92.429	54.41667
96.628	40.08333
100.823	54.08333
105.015	58.41667
109.204	52.08333
113.388	60.41667
117.57	44.08333
121.748	60.08333
125.922	50.08333
130.093	69.08333
134.261	66.08333
138.425	56.41667
142.585	93.41667
146.742	66.75
150.896	81.75
155.046	80.08333
159.193	118.08333
163.336	172.41667
167.476	307.08333
171.613	542.75
175.746	879.41667
179.875	1301.41667
184.002	1668.08333
188.124	2001.41667
192.244	2104.08333
196.36	2129.75
200.472	2120.75
204.581	2121.08333
208.687	2076.41667
212.79	2077.41667
216.889	2100.08333
220.984	2151.75
225.077	2170.41667
229.165	2203.08333
233.251	2199.08333
237.333	2206.08333
241.412	2210.41667
245.487	2202.41667
249.559	2171.41667
253.628	2169.75
257.694	2149.08333
261.756	2150.08333
265.814	2083.75
269.87	2019.08333
273.922	1956.75
277.97	1913.75
282.016	1870.08333
286.058	1821.08333
290.097	1834.75
294.132	1841.41667
298.164	1830.75
302.193	1767.75
306.219	1684.75
310.241	1593.41667
314.26	1485.75
318.276	1398.08333
322.288	1364.75
326.297	1320.08333
330.303	1283.08333
334.305	1264.08333
338.305	1248.41667
342.301	1248.75
346.294	1245.41667
350.283	1232.08333
354.269	1224.75
358.252	1204.41667
362.232	1232.08333
366.209	1218.75
370.182	1209.75
374.152	1219.08333
378.119	1221.41667
382.083	1197.41667
386.043	1226.08333
390	1209.41667
393.954	1215.41667
397.905	1233.41667
401.852	1231.41667
405.797	1203.41667
409.738	1226.41667
413.676	1230.75
417.61	1267.75
421.542	1213.75
425.47	1172.75
429.396	1167.08333
433.318	1149.75
437.236	1165.08333
441.152	1183.41667
445.065	1135.08333
448.974	1155.41667
452.88	1135.75
456.783	1128.08333
460.683	1122.08333
464.58	1142.41667
468.473	1137.41667
472.364	1138.41667
476.251	1137.75
480.135	1136.75
484.016	1154.75
487.894	1156.75
491.769	1162.08333
495.641	1148.41667
499.509	1153.41667
503.375	1163.75
507.237	1154.75
511.096	1143.08333
514.952	1160.41667
518.805	1168.75
522.655	1159.75
526.502	1149.75
530.346	1152.41667
534.187	1148.08333
538.024	1138.08333
541.859	1142.75
545.69	1161.41667
549.519	1155.75
553.344	1135.08333
557.166	1112.75
560.985	1120.08333
564.802	1107.75
568.615	1101.08333
572.425	1086.75
576.232	1079.41667
580.036	1082.75
583.836	1097.08333
587.634	1090.08333
591.429	1084.41667
595.221	1121.08333
599.01	1114.75
602.796	1104.41667
606.578	1108.75
610.358	1120.75
614.135	1117.41667
617.909	1101.75
621.679	1104.41667
625.447	1089.41667
629.212	1099.08333
632.973	1117.08333
636.732	1094.41667
640.488	1101.41667
644.241	1083.41667
647.991	1071.08333
651.737	1111.08333
655.481	1068.75
659.222	1086.08333
662.96	1093.41667
666.695	1094.75
670.427	1090.41667
674.156	1095.41667
677.882	1104.75
681.605	1085.08333
685.325	1069.75
689.043	1093.41667
692.757	1087.08333
696.468	1080.41667
700.177	1062.41667
703.882	1060.41667
707.585	1051.08333
711.284	1063.41667
714.981	1043.75
718.675	1043.41667
722.366	1051.08333
726.054	1034.75
729.739	1040.75
733.421	1037.08333
737.1	1027.08333
740.777	1058.75
744.45	1055.75
748.121	1057.41667
751.789	1100.75
755.453	1060.75
759.115	1076.75
762.774	1057.08333
766.431	1070.41667
770.084	1084.41667
773.734	1069.08333
777.382	1099.08333
781.027	1093.75
784.669	1106.41667
788.308	1084.08333
791.944	1106.75
795.577	1108.41667
799.208	1118.08333
802.835	1113.41667
806.46	1129.41667
810.082	1133.08333
813.701	1118.41667
817.317	1145.41667
820.931	1128.41667
824.542	1155.75
828.149	1113.08333
831.754	1096.75
835.357	1103.75
838.956	1115.08333
842.553	1100.08333
846.146	1098.41667
849.737	1076.41667
853.326	1101.75
856.911	1068.08333
860.493	1097.75
864.073	1102.41667
867.65	1138.08333
871.225	1153.08333
874.796	1110.41667
878.365	1108.41667
881.931	1122.41667
885.494	1136.41667
889.054	1111.08333
892.612	1124.75
896.166	1110.41667
899.719	1084.41667
903.268	1072.75
906.814	1085.41667
910.358	1082.41667
913.899	1063.41667
917.438	1065.75
920.973	1044.75
924.506	1061.41667
928.036	1084.75
931.564	1101.75
935.088	1111.08333
938.61	1102.08333
942.129	1099.75
945.646	1108.08333
949.16	1113.41667
952.671	1135.08333
956.179	1165.41667
959.685	1143.08333
963.188	1150.75
966.688	1147.08333
970.185	1126.08333
973.68	1088.08333
977.173	1092.08333
980.662	1053.08333
984.149	1080.08333
987.633	1054.75
991.114	1060.75
994.593	1079.41667
998.069	1100.08333
1001.542	1128.75
1005.013	1131.75
1008.481	1062.08333
1011.947	1049.75
1015.409	1025.75
1018.869	1040.75
1022.327	1046.75
1025.782	1018.41667
1029.234	1012.08333
1032.683	1002.75
1036.13	979.08333
1039.574	943.75
1043.016	933.75
1046.455	913.41667
1049.891	907.41667
1053.325	928.75
1056.756	902.08333
1060.184	913.41667
1063.61	897.08333
1067.033	916.75
1070.454	907.41667
1073.872	941.08333
1077.287	906.41667
1080.7	912.41667
1084.11	911.08333
1087.517	914.08333
1090.922	900.41667
1094.325	880.75
1097.724	874.75
1101.122	879.75
1104.516	873.41667
1107.908	868.75
1111.298	876.75
1114.684	893.75
1118.069	894.08333
1121.45	903.75
1124.83	901.75
1128.206	897.08333
1131.58	904.08333
1134.951	928.08333
1138.32	935.08333
1141.687	982.08333
1145.05	1010.41667
1148.412	1014.41667
1151.77	994.08333
1155.126	992.41667
1158.48	981.75
1161.831	989.75
1165.18	995.08333
1168.525	1008.41667
1171.869	1028.75
1175.21	1020.41667
1178.548	1036.75
1181.884	1044.75
1185.217	1047.08333
1188.548	1061.75
1191.877	1075.41667
1195.202	1121.75
1198.526	1141.08333
1201.846	1148.08333
1205.165	1147.41667
1208.48	1137.41667
1211.794	1127.75
1215.104	1147.75
1218.413	1124.08333
1221.719	1113.41667
1225.022	1087.41667
1228.323	1083.75
1231.621	1098.08333
1234.917	1097.41667
1238.21	1100.75
1241.501	1075.08333
1244.79	1073.08333
1248.076	1065.41667
1251.359	1082.41667
1254.64	1131.41667
1257.919	1106.41667
1261.195	1130.41667
1264.468	1134.08333
1267.74	1150.75
1271.008	1149.75
1274.275	1148.08333
1277.538	1139.75
1280.8	1127.08333
1284.059	1126.41667
1287.315	1143.41667
1290.569	1140.08333
1293.821	1151.41667
1297.07	1165.08333
1300.317	1155.08333
1303.562	1153.41667
1306.803	1157.08333
1310.043	1134.75
1313.28	1139.08333
1316.515	1136.41667
1319.747	1145.41667
1322.977	1111.75
1326.204	1113.08333
1329.429	1103.75
1332.652	1116.41667
1335.872	1103.41667
1339.09	1099.75
1342.306	1090.41667
1345.519	1087.41667
1348.729	1075.75
1351.938	1085.08333
1355.144	1039.08333
1358.347	1051.41667
1361.548	1054.08333
1364.747	1043.75
1367.944	1015.08333
1371.138	1044.41667
1374.329	1042.75
1377.518	1028.41667
1380.705	1044.75
1383.89	1050.08333
1387.072	1020.75
1390.252	979.08333
1393.429	948.41667
1396.605	931.75
1399.777	886.08333
1402.948	891.41667
1406.116	872.75
1409.282	875.41667
1412.445	873.41667
1415.606	876.08333
1418.765	896.08333
1421.921	904.08333
1425.075	911.41667
1428.227	943.75
1431.376	969.08333
1434.524	1009.41667
1437.668	1011.08333
1440.811	1027.41667
1443.951	1039.08333
1447.089	1046.75
1450.224	1033.75
1453.357	1043.08333
1456.488	1029.08333
1459.617	1017.41667
1462.743	1008.41667
1465.867	973.41667
1468.989	985.41667
1472.108	964.08333
1475.225	956.75
1478.34	955.75
1481.453	938.41667
1484.563	949.75
1487.671	957.41667
1490.776	972.08333
1493.88	966.75
1496.981	989.08333
1500.08	1002.08333
1503.176	1007.41667
1506.271	1018.08333
1509.363	1038.08333
1512.452	1036.08333
1515.54	1051.08333
1518.625	1053.41667
1521.708	1093.08333
1524.789	1126.41667
1527.867	1159.08333
1530.944	1214.41667
1534.018	1241.08333
1537.089	1302.08333
1540.159	1293.41667
1543.226	1291.41667
1546.291	1250.41667
1549.354	1240.08333
1552.415	1217.75
1555.473	1188.75
1558.529	1177.41667
1561.583	1168.08333
1564.634	1147.75
1567.684	1162.08333
1570.731	1165.08333
1573.776	1165.41667
1576.819	1193.08333
1579.859	1195.41667
1582.898	1210.41667
1585.934	1219.75
1588.968	1227.75
1591.999	1198.08333
1595.029	1201.41667
1598.056	1231.41667
1601.081	1231.75
1604.104	1228.08333
1607.125	1201.08333
1610.144	1205.75
1613.16	1163.08333
1616.174	1139.41667
1619.186	1134.75
1622.196	1113.41667
1625.203	1084.41667
1628.209	1080.75
1631.212	1067.41667
1634.213	1079.08333
1637.212	1081.75
1640.209	1084.41667
1643.203	1061.41667
1646.196	1022.41667
1649.186	969.08333
1652.174	947.75
1655.16	907.75
1658.144	890.08333
1661.125	857.75
1664.105	825.41667
1667.082	786.41667
1670.057	738.75
1673.03	697.75
1676.001	676.08333
1678.97	636.75
1681.937	609.75
1684.901	571.75
1687.863	562.08333
1690.824	544.75
1693.782	537.75
1696.738	505.08333
1699.692	507.08333
1702.643	497.75
1705.593	490.08333
1708.54	480.75
1711.486	487.08333
1714.429	464.41667
1717.37	490.41667
1720.309	456.08333
1723.246	473.75
1726.181	451.08333
1729.113	458.41667
1732.044	456.75
1734.972	441.08333
1737.899	467.75
1740.823	462.08333
1743.745	481.08333
1746.665	435.41667
1749.583	433.41667
1752.499	431.41667
1755.413	431.41667
1758.325	410.08333
1761.235	420.41667
1764.142	409.08333
1767.048	399.41667
1769.951	403.08333
1772.852	405.41667
1775.752	418.75
1778.649	432.08333
1781.544	428.41667
1784.437	385.08333
1787.328	398.75
1790.217	392.41667
1793.104	371.75
1795.989	383.75
1798.872	367.75
1801.753	393.75
1804.631	381.08333
1807.508	385.75
1810.383	383.41667
1813.255	392.75
1816.126	380.75
1818.994	376.08333
1821.861	368.75
1824.725	377.41667
1827.587	376.75
1830.448	364.75
1833.306	360.41667
1836.162	371.75
1839.017	365.75
1841.869	363.75
1844.719	366.75
1847.567	345.41667
1850.414	350.41667
1853.258	350.41667
1856.1	366.75
1858.94	356.08333
1861.778	360.75
1864.614	349.08333
1867.448	361.41667
1870.28	337.08333
1873.111	369.08333
1875.939	349.08333
1878.765	368.41667
1881.589	344.08333
1884.411	348.08333
1887.231	354.41667
1890.049	340.41667
1892.865	349.08333
1895.68	341.41667
1898.492	349.41667
1901.302	341.08333
1904.11	340.41667
1906.916	340.75
1909.721	330.08333
1912.523	342.75
1915.323	325.41667
1918.122	326.75
1920.918	334.08333
1923.712	323.41667
1926.505	337.08333
1929.295	310.08333
1932.084	330.41667
1934.87	330.08333
1937.655	322.08333
1940.438	321.75
1943.218	326.41667
1945.997	328.41667
1948.774	327.41667
1951.549	330.41667
1954.322	322.41667
1957.093	327.08333
1959.862	310.08333
1962.629	322.08333
1965.394	313.08333
1968.157	308.08333
1970.918	319.08333
1973.678	306.75
1976.435	325.75
1979.19	309.41667
1981.944	303.41667
1984.696	299.75
1987.445	298.08333
1990.193	308.08333
1992.939	327.41667
1995.683	304.41667
1998.425	282.75
2001.165	322.75
2003.903	291.41667
2006.639	304.75
2009.374	310.08333
2012.106	300.75
2014.837	276.75
2017.566	308.41667
2020.292	302.75
2023.017	294.75
2025.74	291.41667
2028.461	284.41667
2031.18	299.41667
2033.898	286.41667
2036.613	291.41667
2039.327	296.41667
2042.038	280.41667
2044.748	288.08333
2047.456	291.75
2050.162	275.41667
2052.866	275.08333
2055.568	292.41667
2058.268	280.41667
2060.967	291.41667
2063.663	273.41667
2066.358	276.08333
2069.051	275.75
2071.742	277.08333
2074.431	283.75
2077.118	274.08333
2079.804	262.08333
2082.487	271.41667
2085.169	290.41667
2087.849	302.75
2090.527	268.41667
2093.203	280.08333
2095.877	274.41667
2098.55	277.75
2101.22	287.75
2103.889	289.08333
2106.556	274.41667
2109.221	295.08333
2111.884	283.41667
2114.546	298.08333
2117.205	303.08333
2119.863	333.08333
2122.519	334.08333
2125.173	358.08333
2127.825	397.08333
2130.475	387.08333
2133.124	380.75
2135.771	359.41667
2138.416	377.41667
2141.059	349.41667
2143.7	346.75
2146.339	325.75
2148.977	288.75
2151.613	305.08333
2154.247	295.75
2156.879	300.75
2159.51	281.41667
2162.138	280.75
2164.765	278.75
2167.39	261.08333
2170.013	303.08333
2172.634	283.75
2175.254	273.08333
2177.872	302.41667
2180.488	259.41667
2183.102	267.08333
2185.714	260.75
2188.325	247.41667
2190.934	262.75
2193.541	263.08333
2196.146	258.08333
2198.75	241.75
2201.351	241.75
2203.951	231.75
2206.549	256.75
2209.146	238.41667
2211.74	238.08333
2214.333	247.41667
2216.924	231.08333
2219.514	244.41667
2222.101	233.08333
2224.687	251.41667
2227.271	224.08333
2229.853	227.08333
2232.433	215.08333
2235.012	243.08333
2237.589	237.08333
2240.164	246.41667
2242.738	225.75
2245.309	219.75
2247.879	241.75
2250.448	233.08333
2253.014	217.41667
2255.579	211.75
2258.142	221.41667
2260.703	217.41667
2263.262	211.41667
2265.82	205.41667
2268.376	226.41667
2270.93	210.41667
2273.483	206.75
2276.033	218.41667
2278.583	208.75
2281.13	208.08333
2283.675	199.41667
2286.219	209.08333
2288.761	216.41667
2291.302	209.41667
2293.841	221.75
2296.377	199.41667
2298.913	212.41667
2301.446	220.08333
2303.978	207.08333
2306.508	199.41667
2309.037	207.41667
2311.563	204.75
2314.088	205.75
2316.612	194.75
2319.133	205.75
2321.653	202.75
2324.171	202.08333
2326.688	212.08333
2329.202	200.75
2331.715	202.41667
2334.227	202.41667
2336.736	200.75
2339.244	196.41667
2341.751	180.75
2344.255	203.75
2346.758	196.41667
2349.259	191.75
2351.759	198.41667
2354.257	187.75
2356.753	185.41667
2359.247	185.75
2361.74	190.75
2364.231	185.75
2366.721	201.08333
2369.209	192.08333
2371.695	186.08333
2374.179	194.08333
2376.662	180.08333
2379.143	197.08333
2381.622	191.75
2384.1	195.08333
2386.576	187.75
2389.051	200.75
2391.524	200.41667
2393.995	191.08333
2396.464	184.08333
2398.932	181.08333
2401.398	186.75
2403.863	183.75
2406.325	175.41667
2408.787	186.08333
2411.246	183.41667
2413.704	186.41667
2416.16	182.08333
2418.615	176.41667
2421.068	187.75
2423.519	181.08333
2425.969	180.41667
2428.417	194.08333
2430.863	203.75
2433.308	195.41667
2435.751	184.41667
2438.193	182.08333
2440.633	184.41667
2443.071	189.08333
2445.508	180.41667
2447.943	180.41667
2450.376	171.75
2452.808	182.75
2455.238	166.75
2457.667	204.08333
2460.093	168.41667
2462.519	165.41667
2464.942	170.08333
2467.365	183.08333
2469.785	177.08333
2472.204	168.41667
2474.621	168.75
2477.037	189.41667
2479.451	168.75
2481.863	162.41667
2484.274	164.08333
2486.683	173.41667
2489.091	184.41667
2491.497	174.41667
2493.901	173.75
2496.304	171.08333
2498.705	184.41667
2501.105	167.75
2503.503	197.75
2505.899	170.08333
2508.294	189.75
2510.687	164.75
2513.079	166.75
2515.469	167.41667
2517.858	167.75
2520.245	183.41667
2522.63	170.41667
2525.014	161.75
2527.396	163.41667
2529.776	161.08333
2532.156	173.08333
2534.533	155.08333
2536.909	153.08333
2539.283	148.41667
2541.656	159.08333
2544.027	176.41667
2546.397	163.08333
2548.765	160.75
2551.131	164.41667
2553.496	164.75
2555.86	174.75
2558.221	174.41667
2560.582	158.75
2562.94	148.41667
2565.298	172.41667
2567.653	168.75
2570.007	153.75
2572.36	169.08333
2574.711	157.75
2577.06	171.41667
2579.408	161.41667
2581.754	158.08333
2584.099	160.41667
2586.442	158.75
2588.784	164.08333
2591.124	157.41667
2593.463	158.75
2595.8	164.41667
2598.135	147.75
2600.469	149.41667
2602.802	168.75
2605.133	168.75
2607.462	151.41667
2609.79	144.75
2612.116	164.41667
2614.441	156.08333
2616.764	161.41667
2619.086	157.75
2621.406	153.41667
2623.725	165.41667
2626.042	159.75
2628.358	152.08333
2630.672	160.75
2632.985	165.41667
2635.296	159.41667
2637.606	162.75
2639.914	152.08333
2642.22	163.08333
2644.525	153.41667
2646.829	154.75
2649.131	178.08333
2651.432	160.41667
2653.731	156.08333
2656.028	167.08333
2658.324	163.08333
2660.619	146.08333
2662.912	171.08333
2665.204	152.75
2667.494	162.75
2669.782	147.41667
2672.07	167.75
2674.355	169.41667
2676.639	159.41667
2678.922	150.08333
2681.203	163.75
2683.483	157.75
2685.761	143.41667
2688.038	167.41667
2690.313	169.75
2692.587	157.41667
2694.859	153.41667
2697.13	156.41667
2699.399	164.08333
2701.667	167.08333
2703.933	155.08333
2706.198	168.08333
2708.461	175.08333
2710.723	166.75
2712.984	164.08333
2715.243	173.08333
2717.5	163.08333
2719.757	168.41667
2722.011	159.75
2724.264	180.08333
2726.516	178.41667
2728.766	159.75
2731.015	168.08333
2733.262	157.41667
2735.508	163.75
2737.753	167.41667
2739.996	153.41667
2742.237	155.41667
2744.477	178.08333
2746.716	174.41667
2748.953	170.75
2751.189	173.08333
2753.423	164.41667
2755.656	153.08333
2757.887	152.75
2760.117	153.08333
2762.346	156.75
2764.573	141.41667
2766.798	151.75
2769.022	157.08333
2771.245	149.08333
2773.467	156.08333
2775.686	155.75
2777.905	160.08333
2780.122	156.41667
2782.337	163.08333
2784.552	156.75
2786.764	155.75
2788.976	151.08333
2791.186	154.41667
2793.394	156.75
2795.601	163.75
2797.807	171.08333
2800.011	158.41667
2802.214	170.41667
2804.415	169.41667
2806.615	171.75
2808.814	167.75
2811.011	169.08333
2813.206	168.08333
2815.401	178.08333
2817.594	171.41667
2819.785	183.08333
2821.975	166.75
2824.164	173.08333
2826.351	165.75
2828.537	189.41667
2830.722	183.75
2832.905	175.75
2835.086	190.41667
2837.267	203.75
2839.445	206.41667
2841.623	206.75
2843.799	210.08333
2845.974	212.75
2848.147	222.08333
2850.319	231.75
2852.489	247.08333
2854.659	243.08333
2856.826	244.41667
2858.993	268.75
2861.158	240.41667
2863.321	244.41667
2865.483	267.41667
2867.644	254.75
2869.804	255.75
2871.962	250.75
2874.118	255.08333
2876.274	267.08333
2878.428	261.08333
2880.58	264.41667
2882.731	249.75
2884.881	254.41667
2887.03	263.41667
2889.177	255.41667
2891.322	267.41667
2893.467	253.41667
2895.61	253.08333
2897.751	274.08333
2899.892	259.41667
2902.03	271.08333
2904.168	259.08333
2906.304	262.08333
2908.439	279.41667
2910.572	265.75
2912.704	269.41667
2914.835	271.41667
2916.965	272.75
2919.093	284.75
2921.219	260.08333
2923.345	291.08333
2925.469	269.75
2927.591	260.08333
2929.712	257.41667
2931.832	262.75
2933.951	248.75
2936.068	247.41667
2938.184	246.41667
2940.299	238.08333
2942.412	235.75
2944.524	218.75
2946.634	225.08333
2948.744	203.75
2950.851	240.75
2952.958	208.75
2955.063	209.75
2957.167	199.41667
2959.269	192.75
2961.371	224.75
2963.471	189.08333
2965.569	206.75
2967.666	182.41667
2969.762	185.75
2971.857	178.08333
2973.95	169.75
2976.042	177.41667
2978.133	173.75
2980.222	170.41667
2982.31	164.41667
2984.396	145.75
2986.482	150.75
2988.566	158.08333
2990.648	152.75
2992.73	157.08333
2994.81	137.75
2996.889	157.08333
2998.966	156.75
3001.042	166.75
3003.117	149.08333
3005.191	150.75
3007.263	155.75
3009.334	148.41667
3011.403	154.08333
3013.472	148.75
3015.539	156.08333
3017.604	167.75
3019.669	135.75
3021.732	137.08333
3023.794	145.75
3025.854	133.75
3027.914	134.75
3029.971	132.08333
3032.028	140.08333
3034.083	139.75
3036.137	139.75
3038.19	129.41667
3040.242	123.08333
3042.292	120.41667
3044.341	132.08333
3046.388	140.41667
3048.435	118.08333
3050.48	133.75
3052.524	124.08333
3054.566	110.41667
3056.607	123.08333
3058.647	119.75
3060.686	110.08333
3062.723	101.75
3064.759	104.08333
3066.794	0.41667
3068.828	1.41667
3070.86	1.41667
