-0.839	137.83333
3.438	153.83333
7.711	63.5
11.981	42.83333
16.247	29.5
20.509	38.83333
24.768	38.16667
29.024	41.5
33.276	32.83333
37.524	40.5
41.769	30.16667
46.01	26.5
50.247	47.16667
54.481	48.83333
58.712	54.83333
62.939	34.5
67.162	52.5
71.382	45.5
75.599	38.83333
79.812	46.5
84.021	62.16667
88.227	41.83333
92.429	51.5
96.628	38.5
100.823	50.5
105.015	52.16667
109.204	46.16667
113.388	56.5
117.57	44.5
121.748	58.16667
125.922	48.16667
130.093	66.5
134.261	65.83333
138.425	55.5
142.585	83.83333
146.742	63.16667
150.896	81.16667
155.046	72.83333
159.193	108.16667
163.336	164.16667
167.476	277.83333
171.613	508.83333
175.746	802.83333
179.875	1173.5
184.002	1526.5
188.124	1809.16667
192.244	1909.83333
196.36	1922.5
200.472	1912.16667
204.581	1882.5
208.687	1844.83333
212.79	1862.16667
216.889	1865.5
220.984	1907.16667
225.077	1908.5
229.165	1908.16667
233.251	1936.83333
237.333	1943.5
241.412	1938.16667
245.487	1946.16667
249.559	1882.5
253.628	1883.5
257.694	1847.16667
261.756	1855.16667
265.814	1814.16667
269.87	1770.83333
273.922	1738.16667
277.97	1679.16667
282.016	1656.83333
286.058	1618.16667
290.097	1651.5
294.132	1648.5
298.164	1657.16667
302.193	1585.16667
306.219	1512.83333
310.241	1425.16667
314.26	1328.16667
318.276	1259.5
322.288	1237.5
326.297	1203.83333
330.303	1166.16667
334.305	1155.5
338.305	1135.83333
342.301	1129.5
346.294	1129.16667
350.283	1119.5
354.269	1128.5
358.252	1117.5
362.232	1118.83333
366.209	1121.83333
370.182	1115.16667
374.152	1093.83333
378.119	1107.16667
382.083	1102.5
386.043	1124.16667
390	1096.16667
393.954	1112.16667
397.905	1116.16667
401.852	1127.83333
405.797	1100.16667
409.738	1109.83333
413.676	1128.5
417.61	1117.16667
421.542	1103.83333
425.47	1080.5
429.396	1072.16667
433.318	1068.16667
437.236	1067.83333
441.152	1100.83333
445.065	1053.5
448.974	1053.16667
452.88	1059.16667
456.783	1038.16667
460.683	1033.16667
464.58	1033.5
468.473	1047.16667
472.364	1053.83333
476.251	1045.16667
480.135	1050.83333
484.016	1072.5
487.894	1063.83333
491.769	1069.83333
495.641	1065.83333
499.509	1066.16667
503.375	1063.5
507.237	1067.16667
511.096	1068.5
514.952	1066.16667
518.805	1072.16667
522.655	1076.16667
526.502	1048.83333
530.346	1060.5
534.187	1069.16667
538.024	1038.16667
541.859	1056.5
545.69	1071.83333
549.519	1051.5
553.344	1048.83333
557.166	1024.5
560.985	1028.5
564.802	1030.5
568.615	1017.83333
572.425	986.16667
576.232	1004.83333
580.036	996.16667
583.836	1002.83333
587.634	998.83333
591.429	992.5
595.221	1037.83333
599.01	1022.83333
602.796	1015.5
606.578	1029.5
610.358	1034.16667
614.135	1012.5
617.909	1012.16667
621.679	1019.16667
625.447	1014.83333
629.212	1020.83333
632.973	1010.5
636.732	1010.16667
640.488	1020.83333
644.241	989.16667
647.991	978.5
651.737	1001.83333
655.481	991.83333
659.222	992.5
662.96	992.83333
666.695	997.16667
670.427	1005.83333
674.156	1011.83333
677.882	1008.16667
681.605	1000.16667
685.325	983.16667
689.043	1012.83333
692.757	985.5
696.468	998.5
700.177	985.5
703.882	975.16667
707.585	969.5
711.284	966.83333
714.981	959.5
718.675	958.5
722.366	971.16667
726.054	958.5
729.739	955.83333
733.421	962.83333
737.1	954.16667
740.777	966.5
744.45	970.5
748.121	957.5
751.789	984.83333
755.453	978.5
759.115	980.5
762.774	985.83333
766.431	976.16667
770.084	987.5
773.734	979.83333
777.382	1008.16667
781.027	1000.16667
784.669	991.16667
788.308	1001.5
791.944	1007.5
795.577	1018.16667
799.208	1025.5
802.835	1016.83333
806.46	1032.16667
810.082	1043.5
813.701	1042.16667
817.317	1073.16667
820.931	1048.5
824.542	1048.5
828.149	1022.16667
831.754	1011.5
835.357	1001.5
838.956	1017.5
842.553	987.5
846.146	988.16667
849.737	964.5
853.326	986.5
856.911	958.83333
860.493	995.5
864.073	993.16667
867.65	1010.16667
871.225	1021.16667
874.796	1008.16667
878.365	995.16667
881.931	1008.5
885.494	1020.5
889.054	1004.83333
892.612	1010.5
896.166	995.5
899.719	982.83333
903.268	965.5
906.814	975.16667
910.358	971.16667
913.899	960.83333
917.438	959.16667
920.973	937.16667
924.506	956.83333
928.036	980.83333
931.564	992.83333
935.088	1005.83333
938.61	993.5
942.129	978.5
945.646	1000.5
949.16	991.5
952.671	1020.16667
956.179	1049.5
959.685	1030.16667
963.188	1060.16667
966.688	1055.16667
970.185	994.5
973.68	976.5
977.173	964.16667
980.662	955.5
984.149	973.83333
987.633	952.83333
991.114	969.16667
994.593	967.5
998.069	999.16667
1001.542	1023.5
1005.013	991.83333
1008.481	945.5
1011.947	937.83333
1015.409	925.83333
1018.869	934.5
1022.327	931.83333
1025.782	907.5
1029.234	903.5
1032.683	906.83333
1036.13	883.83333
1039.574	847.83333
1043.016	839.83333
1046.455	829.16667
1049.891	819.83333
1053.325	829.16667
1056.756	808.83333
1060.184	832.83333
1063.61	803.83333
1067.033	831.16667
1070.454	818.16667
1073.872	851.83333
1077.287	826.16667
1080.7	832.83333
1084.11	818.16667
1087.517	812.16667
1090.922	808.5
1094.325	799.16667
1097.724	792.16667
1101.122	802.5
1104.516	795.83333
1107.908	768.16667
1111.298	798.83333
1114.684	789.5
1118.069	795.83333
1121.45	829.83333
1124.83	794.5
1128.206	810.5
1131.58	822.16667
1134.951	834.83333
1138.32	849.5
1141.687	870.83333
1145.05	883.5
1148.412	883.83333
1151.77	885.83333
1155.126	885.83333
1158.48	879.5
1161.831	875.5
1165.18	883.16667
1168.525	882.5
1171.869	899.16667
1175.21	904.5
1178.548	912.16667
1181.884	920.83333
1185.217	942.83333
1188.548	948.5
1191.877	948.16667
1195.202	997.16667
1198.526	1006.83333
1201.846	1001.16667
1205.165	1009.16667
1208.48	1007.5
1211.794	1007.5
1215.104	1011.16667
1218.413	991.16667
1221.719	983.16667
1225.022	974.16667
1228.323	949.16667
1231.621	977.83333
1234.917	949.5
1238.21	988.83333
1241.501	974.16667
1244.79	944.5
1248.076	933.5
1251.359	950.5
1254.64	1012.83333
1257.919	960.83333
1261.195	991.16667
1264.468	1004.5
1267.74	1011.83333
1271.008	1008.83333
1274.275	1016.5
1277.538	1007.5
1280.8	1010.16667
1284.059	1004.5
1287.315	1019.16667
1290.569	1013.5
1293.821	1007.16667
1297.07	1024.16667
1300.317	1022.16667
1303.562	1021.83333
1306.803	1017.16667
1310.043	1000.83333
1313.28	1010.16667
1316.515	1006.16667
1319.747	1010.5
1322.977	1002.5
1326.204	999.83333
1329.429	996.16667
1332.652	1005.83333
1335.872	976.83333
1339.09	975.83333
1342.306	985.5
1345.519	966.83333
1348.729	965.16667
1351.938	976.16667
1355.144	967.83333
1358.347	933.83333
1361.548	941.16667
1364.747	956.16667
1367.944	922.83333
1371.138	938.5
1374.329	926.5
1377.518	923.83333
1380.705	918.83333
1383.89	926.16667
1387.072	888.83333
1390.252	861.16667
1393.429	855.5
1396.605	831.5
1399.777	793.83333
1402.948	793.16667
1406.116	782.16667
1409.282	783.83333
1412.445	776.16667
1415.606	796.5
1418.765	796.16667
1421.921	808.83333
1425.075	811.83333
1428.227	826.5
1431.376	864.83333
1434.524	887.83333
1437.668	911.83333
1440.811	910.83333
1443.951	930.5
1447.089	922.16667
1450.224	933.16667
1453.357	923.83333
1456.488	924.83333
1459.617	904.83333
1462.743	889.83333
1465.867	866.83333
1468.989	867.83333
1472.108	864.83333
1475.225	849.16667
1478.34	828.5
1481.453	827.83333
1484.563	831.83333
1487.671	841.5
1490.776	847.16667
1493.88	851.83333
1496.981	870.16667
1500.08	876.5
1503.176	871.5
1506.271	884.5
1509.363	903.16667
1512.452	897.16667
1515.54	897.16667
1518.625	909.5
1521.708	952.5
1524.789	977.16667
1527.867	996.16667
1530.944	1049.83333
1534.018	1078.5
1537.089	1100.83333
1540.159	1109.83333
1543.226	1111.16667
1546.291	1081.83333
1549.354	1067.83333
1552.415	1045.16667
1555.473	1026.83333
1558.529	1017.5
1561.583	1004.16667
1564.634	990.83333
1567.684	996.83333
1570.731	990.83333
1573.776	1024.5
1576.819	1026.83333
1579.859	1022.16667
1582.898	1037.16667
1585.934	1066.16667
1588.968	1064.83333
1591.999	1047.83333
1595.029	1040.5
1598.056	1056.16667
1601.081	1068.83333
1604.104	1067.5
1607.125	1046.5
1610.144	1018.5
1613.16	1009.5
1616.174	981.83333
1619.186	987.16667
1622.196	964.83333
1625.203	932.16667
1628.209	939.5
1631.212	952.83333
1634.213	953.83333
1637.212	978.83333
1640.209	970.5
1643.203	936.5
1646.196	903.5
1649.186	856.16667
1652.174	848.5
1655.16	818.16667
1658.144	802.83333
1661.125	763.5
1664.105	735.5
1667.082	707.5
1670.057	657.5
1673.03	629.83333
1676.001	611.16667
1678.97	570.5
1681.937	545.16667
1684.901	517.83333
1687.863	510.16667
1690.824	485.83333
1693.782	491.16667
1696.738	457.16667
1699.692	466.5
1702.643	441.16667
1705.593	437.16667
1708.54	443.83333
1711.486	448.83333
1714.429	426.83333
1717.37	437.5
1720.309	421.16667
1723.246	436.16667
1726.181	410.16667
1729.113	404.83333
1732.044	424.5
1734.972	405.83333
1737.899	424.16667
1740.823	419.83333
1743.745	436.83333
1746.665	393.16667
1749.583	389.83333
1752.499	377.5
1755.413	382.83333
1758.325	374.83333
1761.235	386.16667
1764.142	364.16667
1767.048	366.5
1769.951	370.83333
1772.852	366.5
1775.752	377.83333
1778.649	373.5
1781.544	382.16667
1784.437	346.83333
1787.328	363.5
1790.217	362.83333
1793.104	331.5
1795.989	344.83333
1798.872	343.16667
1801.753	357.5
1804.631	346.83333
1807.508	354.16667
1810.383	349.5
1813.255	352.83333
1816.126	342.5
1818.994	334.16667
1821.861	338.5
1824.725	342.83333
1827.587	343.83333
1830.448	339.16667
1833.306	331.5
1836.162	349.5
1839.017	340.83333
1841.869	330.5
1844.719	321.83333
1847.567	311.5
1850.414	311.83333
1853.258	306.83333
1856.1	326.5
1858.94	332.83333
1861.778	328.5
1864.614	312.16667
1867.448	323.5
1870.28	302.5
1873.111	328.5
1875.939	321.83333
1878.765	329.83333
1881.589	311.5
1884.411	320.83333
1887.231	317.5
1890.049	316.5
1892.865	325.5
1895.68	312.5
1898.492	314.16667
1901.302	309.16667
1904.11	310.16667
1906.916	312.83333
1909.721	304.83333
1912.523	319.16667
1915.323	295.16667
1918.122	293.5
1920.918	313.83333
1923.712	294.5
1926.505	303.16667
1929.295	281.5
1932.084	307.16667
1934.87	298.83333
1937.655	293.83333
1940.438	297.16667
1943.218	289.16667
1945.997	301.5
1948.774	302.5
1951.549	302.16667
1954.322	290.16667
1957.093	292.16667
1959.862	287.16667
1962.629	283.16667
1965.394	294.16667
1968.157	279.83333
1970.918	291.16667
1973.678	277.16667
1976.435	288.16667
1979.19	275.83333
1981.944	272.16667
1984.696	281.83333
1987.445	278.16667
1990.193	277.83333
1992.939	290.83333
1995.683	284.5
1998.425	258.5
2001.165	294.83333
2003.903	264.16667
2006.639	273.5
2009.374	272.83333
2012.106	273.16667
2014.837	248.16667
2017.566	276.5
2020.292	273.16667
2023.017	267.83333
2025.74	261.5
2028.461	258.16667
2031.18	264.16667
2033.898	259.16667
2036.613	264.5
2039.327	271.16667
2042.038	259.83333
2044.748	264.16667
2047.456	263.5
2050.162	248.5
2052.866	251.83333
2055.568	269.16667
2058.268	255.16667
2060.967	264.83333
2063.663	244.83333
2066.358	252.83333
2069.051	240.16667
2071.742	255.16667
2074.431	266.16667
2077.118	253.16667
2079.804	241.5
2082.487	245.16667
2085.169	256.5
2087.849	275.16667
2090.527	245.83333
2093.203	255.16667
2095.877	256.83333
2098.55	248.83333
2101.22	255.16667
2103.889	266.5
2106.556	248.5
2109.221	263.5
2111.884	249.83333
2114.546	275.5
2117.205	270.16667
2119.863	300.16667
2122.519	293.16667
2125.173	314.5
2127.825	346.5
2130.475	346.83333
2133.124	326.83333
2135.771	316.83333
2138.416	336.83333
2141.059	300.5
2143.7	305.83333
2146.339	279.83333
2148.977	254.16667
2151.613	270.16667
2154.247	264.16667
2156.879	253.16667
2159.51	245.83333
2162.138	253.5
2164.765	241.83333
2167.39	236.5
2170.013	257.16667
2172.634	248.83333
2175.254	237.16667
2177.872	272.16667
2180.488	234.5
2183.102	240.5
2185.714	246.83333
2188.325	225.16667
2190.934	228.16667
2193.541	235.83333
2196.146	234.83333
2198.75	216.16667
2201.351	216.16667
2203.951	207.5
2206.549	228.83333
2209.146	214.83333
2211.74	215.16667
2214.333	228.5
2216.924	204.16667
2219.514	214.5
2222.101	211.16667
2224.687	223.83333
2227.271	203.16667
2229.853	214.83333
2232.433	195.16667
2235.012	215.5
2237.589	208.83333
2240.164	225.16667
2242.738	206.16667
2245.309	196.16667
2247.879	222.83333
2250.448	211.16667
2253.014	200.16667
2255.579	198.5
2258.142	200.83333
2260.703	193.16667
2263.262	192.5
2265.82	185.83333
2268.376	204.5
2270.93	194.83333
2273.483	184.83333
2276.033	202.83333
2278.583	185.16667
2281.13	187.83333
2283.675	192.83333
2286.219	192.5
2288.761	195.16667
2291.302	188.16667
2293.841	199.83333
2296.377	183.16667
2298.913	192.5
2301.446	201.5
2303.978	186.5
2306.508	193.83333
2309.037	191.5
2311.563	192.83333
2314.088	187.5
2316.612	174.16667
2319.133	189.16667
2321.653	192.16667
2324.171	181.16667
2326.688	190.5
2329.202	187.16667
2331.715	184.83333
2334.227	181.5
2336.736	182.83333
2339.244	180.16667
2341.751	166.16667
2344.255	190.5
2346.758	179.16667
2349.259	171.83333
2351.759	179.83333
2354.257	167.83333
2356.753	172.5
2359.247	172.83333
2361.74	177.5
2364.231	173.5
2366.721	187.5
2369.209	176.83333
2371.695	173.5
2374.179	169.16667
2376.662	163.5
2379.143	184.5
2381.622	170.5
2384.1	180.83333
2386.576	166.83333
2389.051	185.16667
2391.524	182.83333
2393.995	178.83333
2396.464	169.83333
2398.932	165.16667
2401.398	173.5
2403.863	164.16667
2406.325	170.16667
2408.787	175.16667
2411.246	174.83333
2413.704	165.16667
2416.16	169.16667
2418.615	166.83333
2421.068	170.5
2423.519	166.83333
2425.969	159.16667
2428.417	176.16667
2430.863	191.83333
2433.308	180.83333
2435.751	172.16667
2438.193	168.83333
2440.633	167.16667
2443.071	172.16667
2445.508	165.83333
2447.943	163.16667
2450.376	159.5
2452.808	169.5
2455.238	152.83333
2457.667	187.16667
2460.093	160.16667
2462.519	152.5
2464.942	156.5
2467.365	162.16667
2469.785	162.5
2472.204	159.16667
2474.621	157.5
2477.037	173.83333
2479.451	151.83333
2481.863	149.5
2484.274	148.83333
2486.683	158.5
2489.091	169.16667
2491.497	161.83333
2493.901	161.83333
2496.304	155.16667
2498.705	167.5
2501.105	161.16667
2503.503	176.16667
2505.899	150.83333
2508.294	172.5
2510.687	151.5
2513.079	167.5
2515.469	146.16667
2517.858	153.83333
2520.245	169.83333
2522.63	152.16667
2525.014	148.16667
2527.396	146.16667
2529.776	149.83333
2532.156	159.16667
2534.533	147.16667
2536.909	145.16667
2539.283	134.83333
2541.656	147.5
2544.027	163.83333
2546.397	161.16667
2548.765	145.83333
2551.131	149.5
2553.496	158.83333
2555.86	153.5
2558.221	155.5
2560.582	146.16667
2562.94	143.83333
2565.298	155.5
2567.653	154.5
2570.007	135.16667
2572.36	163.83333
2574.711	146.5
2577.06	157.83333
2579.408	152.5
2581.754	149.83333
2584.099	152.5
2586.442	145.16667
2588.784	153.83333
2591.124	146.16667
2593.463	149.5
2595.8	151.16667
2598.135	136.16667
2600.469	143.16667
2602.802	154.83333
2605.133	155.83333
2607.462	143.16667
2609.79	135.5
2612.116	155.83333
2614.441	149.16667
2616.764	149.83333
2619.086	148.5
2621.406	145.5
2623.725	159.5
2626.042	149.5
2628.358	145.83333
2630.672	150.16667
2632.985	154.5
2635.296	148.5
2637.606	152.83333
2639.914	138.83333
2642.22	146.5
2644.525	149.16667
2646.829	146.83333
2649.131	165.16667
2651.432	153.16667
2653.731	143.5
2656.028	158.5
2658.324	155.83333
2660.619	139.16667
2662.912	156.16667
2665.204	135.83333
2667.494	152.83333
2669.782	145.83333
2672.07	157.83333
2674.355	154.5
2676.639	154.16667
2678.922	144.16667
2681.203	154.5
2683.483	141.83333
2685.761	134.16667
2688.038	156.5
2690.313	156.83333
2692.587	150.16667
2694.859	143.83333
2697.13	151.83333
2699.399	152.16667
2701.667	163.16667
2703.933	154.16667
2706.198	162.16667
2708.461	159.16667
2710.723	157.16667
2712.984	154.5
2715.243	161.83333
2717.5	150.16667
2719.757	155.83333
2722.011	153.5
2724.264	164.16667
2726.516	171.5
2728.766	150.16667
2731.015	157.5
2733.262	154.83333
2735.508	153.5
2737.753	157.16667
2739.996	141.5
2742.237	147.16667
2744.477	159.83333
2746.716	165.16667
2748.953	159.5
2751.189	163.16667
2753.423	160.5
2755.656	145.5
2757.887	143.83333
2760.117	149.5
2762.346	144.16667
2764.573	134.83333
2766.798	146.16667
2769.022	151.5
2771.245	142.5
2773.467	147.83333
2775.686	142.83333
2777.905	149.83333
2780.122	151.16667
2782.337	153.16667
2784.552	148.83333
2786.764	146.83333
2788.976	143.16667
2791.186	153.5
2793.394	147.5
2795.601	158.16667
2797.807	162.5
2800.011	159.5
2802.214	156.16667
2804.415	157.16667
2806.615	158.5
2808.814	159.5
2811.011	160.5
2813.206	159.5
2815.401	168.5
2817.594	168.16667
2819.785	172.5
2821.975	154.5
2824.164	163.83333
2826.351	163.5
2828.537	175.83333
2830.722	175.83333
2832.905	170.83333
2835.086	176.5
2837.267	200.5
2839.445	193.5
2841.623	193.5
2843.799	195.16667
2845.974	196.5
2848.147	201.5
2850.319	218.83333
2852.489	218.5
2854.659	222.16667
2856.826	220.5
2858.993	248.5
2861.158	221.83333
2863.321	227.16667
2865.483	248.83333
2867.644	244.16667
2869.804	238.83333
2871.962	228.5
2874.118	230.83333
2876.274	240.5
2878.428	238.16667
2880.58	240.16667
2882.731	223.83333
2884.881	236.16667
2887.03	239.83333
2889.177	234.5
2891.322	249.83333
2893.467	234.16667
2895.61	229.5
2897.751	247.83333
2899.892	240.83333
2902.03	244.5
2904.168	241.83333
2906.304	242.5
2908.439	257.16667
2910.572	241.5
2912.704	248.5
2914.835	249.5
2916.965	248.16667
2919.093	264.16667
2921.219	240.16667
2923.345	271.83333
2925.469	248.5
2927.591	243.5
2929.712	237.83333
2931.832	251.5
2933.951	239.5
2936.068	232.5
2938.184	228.83333
2940.299	221.16667
2942.412	223.83333
2944.524	206.5
2946.634	217.16667
2948.744	188.16667
2950.851	227.5
2952.958	192.5
2955.063	199.5
2957.167	193.83333
2959.269	179.5
2961.371	210.83333
2963.471	181.83333
2965.569	201.16667
2967.666	174.83333
2969.762	174.5
2971.857	165.16667
2973.95	164.83333
2976.042	176.83333
2978.133	162.16667
2980.222	161.83333
2982.31	149.83333
2984.396	139.16667
2986.482	141.5
2988.566	155.5
2990.648	150.83333
2992.73	152.5
2994.81	137.16667
2996.889	153.83333
2998.966	147.5
3001.042	157.83333
3003.117	142.83333
3005.191	148.83333
3007.263	152.83333
3009.334	146.83333
3011.403	155.5
3013.472	140.16667
3015.539	153.5
3017.604	160.5
3019.669	130.83333
3021.732	134.83333
3023.794	142.5
3025.854	133.5
3027.914	130.83333
3029.971	131.16667
3032.028	131.5
3034.083	140.16667
3036.137	135.16667
3038.19	121.83333
3040.242	122.83333
3042.292	117.5
3044.341	121.16667
3046.388	136.16667
3048.435	115.5
3050.48	137.16667
3052.524	127.83333
3054.566	112.5
3056.607	119.83333
3058.647	115.83333
3060.686	108.83333
3062.723	100.83333
3064.759	103.83333
3066.794	0.83333
3068.828	1.5
3070.86	1.83333
