-0.839	143.83333
3.438	163.83333
7.711	68.5
11.981	43.16667
16.247	32.16667
20.509	38.5
24.768	36.5
29.024	43.83333
33.276	34.83333
37.524	41.16667
41.769	33.16667
46.01	28.16667
50.247	45.16667
54.481	53.16667
58.712	59.16667
62.939	38.5
67.162	54.5
71.382	45.83333
75.599	37.5
79.812	41.83333
84.021	66.5
88.227	43.16667
92.429	51.16667
96.628	39.16667
100.823	57.16667
105.015	51.83333
109.204	49.16667
113.388	59.5
117.57	43.16667
121.748	63.83333
125.922	47.83333
130.093	66.5
134.261	68.5
138.425	56.5
142.585	87.16667
146.742	66.16667
150.896	81.83333
155.046	77.5
159.193	116.5
163.336	174.83333
167.476	294.16667
171.613	531.83333
175.746	868.16667
179.875	1240.83333
184.002	1616.83333
188.124	1920.5
192.244	2002.5
196.36	2034.83333
200.472	1996.16667
204.581	1984.83333
208.687	1944.83333
212.79	1937.83333
216.889	1974.83333
220.984	1982.83333
225.077	2010.5
229.165	2017.5
233.251	2031.5
237.333	2034.16667
241.412	2019.83333
245.487	1995.83333
249.559	1972.16667
253.628	1965.83333
257.694	1934.16667
261.756	1939.16667
265.814	1921.16667
269.87	1853.16667
273.922	1805.5
277.97	1742.5
282.016	1722.5
286.058	1670.5
290.097	1670.83333
294.132	1676.16667
298.164	1694.5
302.193	1627.5
306.219	1549.83333
310.241	1458.5
314.26	1346.16667
318.276	1256.83333
322.288	1214.5
326.297	1181.5
330.303	1144.16667
334.305	1130.16667
338.305	1114.16667
342.301	1097.5
346.294	1106.16667
350.283	1094.5
354.269	1082.5
358.252	1088.5
362.232	1078.5
366.209	1083.16667
370.182	1072.16667
374.152	1073.83333
378.119	1082.5
382.083	1070.5
386.043	1084.5
390	1049.16667
393.954	1066.5
397.905	1053.16667
401.852	1066.83333
405.797	1063.83333
409.738	1041.5
413.676	1046.5
417.61	1040.16667
421.542	1040.83333
425.47	1028.83333
429.396	1011.5
433.318	1007.83333
437.236	1007.5
441.152	1027.16667
445.065	984.5
448.974	1004.5
452.88	997.5
456.783	985.83333
460.683	968.16667
464.58	990.5
468.473	979.5
472.364	992.83333
476.251	989.83333
480.135	986.83333
484.016	1008.5
487.894	1017.16667
491.769	1007.83333
495.641	991.16667
499.509	1006.5
503.375	1009.5
507.237	996.16667
511.096	1001.83333
514.952	1008.16667
518.805	987.5
522.655	1004.83333
526.502	982.16667
530.346	999.5
534.187	1011.5
538.024	993.83333
541.859	987.83333
545.69	1004.5
549.519	999.16667
553.344	991.83333
557.166	972.16667
560.985	960.83333
564.802	976.83333
568.615	964.16667
572.425	938.16667
576.232	940.83333
580.036	947.16667
583.836	945.16667
587.634	956.83333
591.429	946.16667
595.221	963.16667
599.01	970.16667
602.796	966.5
606.578	972.5
610.358	971.83333
614.135	965.83333
617.909	980.5
621.679	953.5
625.447	953.5
629.212	957.83333
632.973	944.83333
636.732	950.16667
640.488	950.5
644.241	944.16667
647.991	937.83333
651.737	979.16667
655.481	941.83333
659.222	958.5
662.96	953.16667
666.695	960.5
670.427	960.83333
674.156	970.5
677.882	950.5
681.605	957.83333
685.325	933.5
689.043	954.5
692.757	938.83333
696.468	948.16667
700.177	933.16667
703.882	929.83333
707.585	908.16667
711.284	927.16667
714.981	925.16667
718.675	903.16667
722.366	937.5
726.054	915.83333
729.739	914.5
733.421	915.16667
737.1	920.5
740.777	935.5
744.45	914.83333
748.121	928.5
751.789	950.5
755.453	928.5
759.115	944.5
762.774	946.16667
766.431	940.83333
770.084	959.83333
773.734	966.5
777.382	992.16667
781.027	986.16667
784.669	981.5
788.308	977.16667
791.944	995.5
795.577	1003.83333
799.208	1005.5
802.835	996.16667
806.46	1010.16667
810.082	1025.5
813.701	1017.16667
817.317	1035.16667
820.931	1037.16667
824.542	1043.83333
828.149	1011.5
831.754	993.83333
835.357	990.83333
838.956	995.83333
842.553	1000.16667
846.146	963.83333
849.737	956.83333
853.326	968.83333
856.911	949.16667
860.493	976.83333
864.073	980.5
867.65	989.16667
871.225	1023.16667
874.796	991.16667
878.365	995.83333
881.931	1011.16667
885.494	1021.5
889.054	1006.83333
892.612	1013.83333
896.166	1001.83333
899.719	991.16667
903.268	970.83333
906.814	986.5
910.358	972.5
913.899	962.16667
917.438	957.16667
920.973	943.5
924.506	968.83333
928.036	979.5
931.564	1008.5
935.088	1024.5
938.61	1009.5
942.129	996.16667
945.646	1004.16667
949.16	1016.83333
952.671	1036.16667
956.179	1070.5
959.685	1068.5
963.188	1089.83333
966.688	1069.16667
970.185	1033.5
973.68	997.83333
977.173	984.83333
980.662	976.16667
984.149	995.16667
987.633	954.16667
991.114	972.5
994.593	983.83333
998.069	1008.5
1001.542	1043.5
1005.013	1022.5
1008.481	959.5
1011.947	945.83333
1015.409	925.83333
1018.869	952.5
1022.327	946.5
1025.782	924.5
1029.234	927.5
1032.683	925.5
1036.13	898.83333
1039.574	873.16667
1043.016	842.16667
1046.455	845.16667
1049.891	824.83333
1053.325	827.5
1056.756	829.5
1060.184	812.5
1063.61	817.83333
1067.033	826.83333
1070.454	827.5
1073.872	855.16667
1077.287	820.5
1080.7	837.16667
1084.11	834.5
1087.517	829.16667
1090.922	822.83333
1094.325	802.83333
1097.724	803.83333
1101.122	803.83333
1104.516	802.83333
1107.908	799.16667
1111.298	797.83333
1114.684	817.83333
1118.069	820.83333
1121.45	840.16667
1124.83	807.5
1128.206	816.83333
1131.58	835.16667
1134.951	857.5
1138.32	870.16667
1141.687	902.5
1145.05	912.16667
1148.412	919.83333
1151.77	918.83333
1155.126	913.16667
1158.48	908.83333
1161.831	915.5
1165.18	909.16667
1168.525	940.5
1171.869	929.16667
1175.21	931.83333
1178.548	957.5
1181.884	966.16667
1185.217	965.83333
1188.548	996.16667
1191.877	1000.83333
1195.202	1046.5
1198.526	1075.16667
1201.846	1049.5
1205.165	1060.16667
1208.48	1066.5
1211.794	1069.16667
1215.104	1069.5
1218.413	1062.16667
1221.719	1043.5
1225.022	1028.16667
1228.323	994.83333
1231.621	1013.16667
1234.917	1015.5
1238.21	1033.5
1241.501	1010.83333
1244.79	998.5
1248.076	982.5
1251.359	1015.16667
1254.64	1054.16667
1257.919	1030.16667
1261.195	1039.5
1264.468	1067.16667
1267.74	1065.83333
1271.008	1069.16667
1274.275	1081.5
1277.538	1075.5
1280.8	1067.83333
1284.059	1062.5
1287.315	1090.5
1290.569	1080.5
1293.821	1082.5
1297.07	1091.83333
1300.317	1094.83333
1303.562	1104.16667
1306.803	1075.16667
1310.043	1082.16667
1313.28	1095.5
1316.515	1087.83333
1319.747	1080.83333
1322.977	1082.16667
1326.204	1077.5
1329.429	1071.5
1332.652	1073.5
1335.872	1064.16667
1339.09	1039.83333
1342.306	1036.5
1345.519	1034.83333
1348.729	1021.5
1351.938	1044.83333
1355.144	1016.16667
1358.347	997.5
1361.548	1010.16667
1364.747	1011.16667
1367.944	981.5
1371.138	986.83333
1374.329	992.16667
1377.518	992.83333
1380.705	991.16667
1383.89	991.5
1387.072	954.83333
1390.252	926.16667
1393.429	920.83333
1396.605	880.16667
1399.777	832.5
1402.948	842.5
1406.116	821.83333
1409.282	824.83333
1412.445	822.5
1415.606	838.5
1418.765	825.5
1421.921	850.5
1425.075	851.83333
1428.227	877.83333
1431.376	918.16667
1434.524	954.83333
1437.668	980.83333
1440.811	983.83333
1443.951	991.16667
1447.089	1007.5
1450.224	992.16667
1453.357	988.5
1456.488	992.5
1459.617	966.16667
1462.743	971.5
1465.867	929.5
1468.989	936.83333
1472.108	919.83333
1475.225	919.5
1478.34	893.16667
1481.453	907.5
1484.563	897.16667
1487.671	907.5
1490.776	926.5
1493.88	928.16667
1496.981	943.83333
1500.08	964.83333
1503.176	943.5
1506.271	972.83333
1509.363	982.5
1512.452	983.83333
1515.54	989.16667
1518.625	1003.16667
1521.708	1038.16667
1524.789	1058.83333
1527.867	1099.5
1530.944	1150.83333
1534.018	1173.83333
1537.089	1212.83333
1540.159	1203.16667
1543.226	1206.83333
1546.291	1174.16667
1549.354	1149.83333
1552.415	1142.83333
1555.473	1126.83333
1558.529	1100.16667
1561.583	1093.5
1564.634	1080.16667
1567.684	1085.83333
1570.731	1094.83333
1573.776	1119.5
1576.819	1121.83333
1579.859	1145.5
1582.898	1160.83333
1585.934	1183.5
1588.968	1192.83333
1591.999	1167.16667
1595.029	1175.16667
1598.056	1182.83333
1601.081	1173.83333
1604.104	1195.83333
1607.125	1148.83333
1610.144	1158.5
1613.16	1120.83333
1616.174	1112.16667
1619.186	1083.5
1622.196	1076.5
1625.203	1043.83333
1628.209	1037.83333
1631.212	1036.83333
1634.213	1059.16667
1637.212	1080.5
1640.209	1074.5
1643.203	1045.16667
1646.196	1016.5
1649.186	958.16667
1652.174	940.5
1655.16	891.16667
1658.144	880.83333
1661.125	827.5
1664.105	785.5
1667.082	756.16667
1670.057	699.83333
1673.03	679.16667
1676.001	645.16667
1678.97	593.83333
1681.937	563.5
1684.901	546.83333
1687.863	526.83333
1690.824	492.5
1693.782	504.16667
1696.738	472.5
1699.692	468.5
1702.643	449.16667
1705.593	459.16667
1708.54	451.16667
1711.486	461.16667
1714.429	426.83333
1717.37	446.5
1720.309	431.83333
1723.246	428.83333
1726.181	413.16667
1729.113	417.16667
1732.044	420.5
1734.972	412.83333
1737.899	423.83333
1740.823	417.16667
1743.745	438.16667
1746.665	406.5
1749.583	402.16667
1752.499	388.16667
1755.413	385.5
1758.325	377.5
1761.235	386.16667
1764.142	372.5
1767.048	368.83333
1769.951	372.5
1772.852	366.5
1775.752	371.83333
1778.649	375.16667
1781.544	377.83333
1784.437	347.5
1787.328	365.16667
1790.217	367.5
1793.104	334.16667
1795.989	349.83333
1798.872	330.16667
1801.753	360.5
1804.631	339.5
1807.508	355.83333
1810.383	348.83333
1813.255	346.83333
1816.126	344.5
1818.994	340.16667
1821.861	344.16667
1824.725	342.83333
1827.587	345.5
1830.448	336.16667
1833.306	329.83333
1836.162	343.83333
1839.017	330.5
1841.869	336.5
1844.719	330.16667
1847.567	317.16667
1850.414	313.5
1853.258	318.5
1856.1	334.16667
1858.94	334.5
1861.778	318.5
1864.614	315.83333
1867.448	319.16667
1870.28	306.16667
1873.111	333.16667
1875.939	319.16667
1878.765	340.16667
1881.589	316.16667
1884.411	319.16667
1887.231	325.83333
1890.049	322.5
1892.865	318.83333
1895.68	309.5
1898.492	320.5
1901.302	316.5
1904.11	311.5
1906.916	307.83333
1909.721	299.83333
1912.523	313.5
1915.323	298.5
1918.122	297.83333
1920.918	311.16667
1923.712	294.83333
1926.505	302.16667
1929.295	283.5
1932.084	294.5
1934.87	296.83333
1937.655	301.5
1940.438	290.83333
1943.218	290.5
1945.997	294.16667
1948.774	300.83333
1951.549	313.5
1954.322	294.16667
1957.093	296.5
1959.862	291.16667
1962.629	284.5
1965.394	286.16667
1968.157	282.83333
1970.918	298.83333
1973.678	278.5
1976.435	298.5
1979.19	282.16667
1981.944	277.5
1984.696	278.16667
1987.445	273.5
1990.193	282.16667
1992.939	292.5
1995.683	280.83333
1998.425	260.5
2001.165	294.5
2003.903	267.83333
2006.639	277.16667
2009.374	280.5
2012.106	277.83333
2014.837	257.83333
2017.566	276.16667
2020.292	277.5
2023.017	267.83333
2025.74	263.83333
2028.461	257.83333
2031.18	261.83333
2033.898	257.83333
2036.613	272.83333
2039.327	263.83333
2042.038	256.5
2044.748	261.5
2047.456	267.5
2050.162	244.16667
2052.866	259.83333
2055.568	268.5
2058.268	255.83333
2060.967	266.5
2063.663	250.5
2066.358	253.16667
2069.051	241.5
2071.742	250.5
2074.431	263.16667
2077.118	247.5
2079.804	240.83333
2082.487	251.5
2085.169	263.16667
2087.849	267.5
2090.527	242.83333
2093.203	255.16667
2095.877	258.5
2098.55	253.16667
2101.22	262.5
2103.889	266.16667
2106.556	259.83333
2109.221	260.16667
2111.884	254.83333
2114.546	277.83333
2117.205	277.5
2119.863	309.5
2122.519	307.83333
2125.173	325.5
2127.825	357.83333
2130.475	352.5
2133.124	355.16667
2135.771	330.83333
2138.416	339.16667
2141.059	313.5
2143.7	311.5
2146.339	294.5
2148.977	259.83333
2151.613	276.83333
2154.247	267.16667
2156.879	264.83333
2159.51	246.5
2162.138	252.83333
2164.765	248.16667
2167.39	239.5
2170.013	260.16667
2172.634	263.16667
2175.254	240.16667
2177.872	277.16667
2180.488	236.5
2183.102	238.5
2185.714	243.16667
2188.325	229.16667
2190.934	237.83333
2193.541	237.83333
2196.146	232.16667
2198.75	215.16667
2201.351	224.83333
2203.951	210.5
2206.549	225.83333
2209.146	225.16667
2211.74	215.16667
2214.333	223.83333
2216.924	210.16667
2219.514	220.5
2222.101	215.16667
2224.687	226.5
2227.271	208.16667
2229.853	206.16667
2232.433	195.16667
2235.012	222.16667
2237.589	216.16667
2240.164	227.16667
2242.738	209.16667
2245.309	199.5
2247.879	218.16667
2250.448	219.5
2253.014	198.16667
2255.579	193.16667
2258.142	195.5
2260.703	207.83333
2263.262	192.83333
2265.82	191.16667
2268.376	198.83333
2270.93	189.16667
2273.483	190.16667
2276.033	205.16667
2278.583	188.5
2281.13	188.16667
2283.675	186.5
2286.219	189.16667
2288.761	195.16667
2291.302	190.83333
2293.841	198.5
2296.377	181.83333
2298.913	190.5
2301.446	198.16667
2303.978	185.83333
2306.508	190.5
2309.037	194.5
2311.563	191.83333
2314.088	188.16667
2316.612	171.16667
2319.133	186.5
2321.653	188.83333
2324.171	181.16667
2326.688	186.16667
2329.202	182.16667
2331.715	182.16667
2334.227	180.83333
2336.736	188.16667
2339.244	177.83333
2341.751	169.16667
2344.255	185.16667
2346.758	183.5
2349.259	173.5
2351.759	179.5
2354.257	170.5
2356.753	167.16667
2359.247	169.5
2361.74	174.5
2364.231	171.16667
2366.721	184.83333
2369.209	171.83333
2371.695	173.83333
2374.179	167.16667
2376.662	157.16667
2379.143	183.83333
2381.622	170.16667
2384.1	175.5
2386.576	168.83333
2389.051	183.5
2391.524	179.16667
2393.995	179.83333
2396.464	169.83333
2398.932	166.5
2401.398	171.16667
2403.863	160.83333
2406.325	159.16667
2408.787	176.83333
2411.246	166.16667
2413.704	167.16667
2416.16	160.83333
2418.615	168.5
2421.068	168.83333
2423.519	158.16667
2425.969	156.83333
2428.417	179.5
2430.863	184.16667
2433.308	174.16667
2435.751	162.83333
2438.193	162.5
2440.633	163.16667
2443.071	169.5
2445.508	154.83333
2447.943	155.16667
2450.376	151.16667
2452.808	163.5
2455.238	153.16667
2457.667	183.83333
2460.093	152.83333
2462.519	141.83333
2464.942	151.16667
2467.365	155.16667
2469.785	166.83333
2472.204	147.83333
2474.621	150.83333
2477.037	172.83333
2479.451	145.16667
2481.863	144.83333
2484.274	150.16667
2486.683	148.16667
2489.091	168.16667
2491.497	158.5
2493.901	157.16667
2496.304	149.16667
2498.705	169.16667
2501.105	155.5
2503.503	173.83333
2505.899	142.16667
2508.294	166.16667
2510.687	145.16667
2513.079	147.83333
2515.469	142.83333
2517.858	147.16667
2520.245	164.16667
2522.63	152.5
2525.014	142.5
2527.396	145.5
2529.776	139.5
2532.156	149.83333
2534.533	138.5
2536.909	137.5
2539.283	133.5
2541.656	144.16667
2544.027	159.16667
2546.397	150.16667
2548.765	144.5
2551.131	143.83333
2553.496	150.16667
2555.86	145.5
2558.221	150.83333
2560.582	135.16667
2562.94	134.16667
2565.298	144.5
2567.653	154.83333
2570.007	133.5
2572.36	153.5
2574.711	136.16667
2577.06	155.16667
2579.408	140.5
2581.754	137.5
2584.099	140.16667
2586.442	137.83333
2588.784	144.5
2591.124	140.16667
2593.463	137.16667
2595.8	145.5
2598.135	126.5
2600.469	130.16667
2602.802	149.5
2605.133	146.16667
2607.462	128.16667
2609.79	123.5
2612.116	146.83333
2614.441	131.16667
2616.764	138.5
2619.086	139.5
2621.406	133.5
2623.725	147.16667
2626.042	136.5
2628.358	134.83333
2630.672	135.83333
2632.985	142.16667
2635.296	137.83333
2637.606	132.83333
2639.914	129.16667
2642.22	135.83333
2644.525	138.83333
2646.829	135.16667
2649.131	152.16667
2651.432	143.16667
2653.731	134.5
2656.028	142.5
2658.324	141.5
2660.619	123.16667
2662.912	147.16667
2665.204	124.16667
2667.494	136.83333
2669.782	133.5
2672.07	148.16667
2674.355	149.16667
2676.639	131.5
2678.922	133.16667
2681.203	143.83333
2683.483	127.5
2685.761	121.83333
2688.038	145.16667
2690.313	148.16667
2692.587	137.83333
2694.859	132.16667
2697.13	132.5
2699.399	140.16667
2701.667	144.83333
2703.933	137.5
2706.198	141.83333
2708.461	149.5
2710.723	143.83333
2712.984	139.5
2715.243	150.5
2717.5	139.5
2719.757	151.16667
2722.011	142.5
2724.264	145.83333
2726.516	151.83333
2728.766	136.5
2731.015	142.16667
2733.262	139.5
2735.508	142.16667
2737.753	145.5
2739.996	129.5
2742.237	138.16667
2744.477	144.83333
2746.716	155.83333
2748.953	149.5
2751.189	152.5
2753.423	148.83333
2755.656	128.83333
2757.887	130.16667
2760.117	130.5
2762.346	125.5
2764.573	122.5
2766.798	132.16667
2769.022	132.83333
2771.245	128.83333
2773.467	130.5
2775.686	130.83333
2777.905	133.5
2780.122	131.16667
2782.337	134.83333
2784.552	126.5
2786.764	129.83333
2788.976	129.16667
2791.186	138.83333
2793.394	135.16667
2795.601	141.5
2797.807	144.83333
2800.011	139.16667
2802.214	142.5
2804.415	137.83333
2806.615	134.16667
2808.814	145.16667
2811.011	144.5
2813.206	141.5
2815.401	149.83333
2817.594	152.83333
2819.785	156.83333
2821.975	137.83333
2824.164	143.5
2826.351	148.16667
2828.537	163.83333
2830.722	161.16667
2832.905	156.16667
2835.086	165.16667
2837.267	182.5
2839.445	178.83333
2841.623	182.83333
2843.799	182.5
2845.974	191.83333
2848.147	188.83333
2850.319	209.16667
2852.489	217.5
2854.659	217.16667
2856.826	214.5
2858.993	241.16667
2861.158	219.83333
2863.321	218.16667
2865.483	243.16667
2867.644	243.16667
2869.804	237.83333
2871.962	225.16667
2874.118	238.16667
2876.274	228.5
2878.428	227.16667
2880.58	230.5
2882.731	220.16667
2884.881	229.16667
2887.03	233.5
2889.177	233.16667
2891.322	240.83333
2893.467	226.5
2895.61	228.5
2897.751	239.16667
2899.892	236.83333
2902.03	242.16667
2904.168	232.16667
2906.304	240.5
2908.439	264.16667
2910.572	235.5
2912.704	246.83333
2914.835	247.83333
2916.965	243.83333
2919.093	265.83333
2921.219	237.16667
2923.345	264.5
2925.469	249.5
2927.591	240.83333
2929.712	228.5
2931.832	245.5
2933.951	235.16667
2936.068	225.83333
2938.184	225.5
2940.299	214.5
2942.412	220.16667
2944.524	199.83333
2946.634	203.5
2948.744	182.83333
2950.851	214.5
2952.958	182.5
2955.063	189.83333
2957.167	180.83333
2959.269	166.5
2961.371	193.5
2963.471	168.5
2965.569	179.83333
2967.666	152.5
2969.762	157.16667
2971.857	150.83333
2973.95	145.5
2976.042	154.16667
2978.133	145.5
2980.222	149.16667
2982.31	132.16667
2984.396	121.16667
2986.482	122.5
2988.566	132.16667
2990.648	128.83333
2992.73	126.83333
2994.81	113.5
2996.889	127.5
2998.966	129.16667
3001.042	136.83333
3003.117	120.16667
3005.191	126.5
3007.263	127.5
3009.334	125.16667
3011.403	129.5
3013.472	116.16667
3015.539	133.16667
3017.604	140.16667
3019.669	108.5
3021.732	111.83333
3023.794	116.16667
3025.854	103.16667
3027.914	104.16667
3029.971	106.5
3032.028	108.83333
3034.083	114.83333
3036.137	113.5
3038.19	103.5
3040.242	94.83333
3042.292	97.5
3044.341	97.83333
3046.388	119.16667
3048.435	94.16667
3050.48	108.83333
3052.524	98.83333
3054.566	84.83333
3056.607	95.83333
3058.647	93.5
3060.686	88.16667
3062.723	84.16667
3064.759	82.83333
3066.794	-1.16667
3068.828	-0.16667
3070.86	4.16667
