-0.839	149.70833
3.438	173.375
7.711	69.70833
11.981	43.04167
16.247	30.375
20.509	35.70833
24.768	33.375
29.024	42.70833
33.276	34.04167
37.524	41.375
41.769	30.70833
46.01	26.375
50.247	43.04167
54.481	55.375
58.712	55.375
62.939	37.04167
67.162	51.70833
71.382	46.04167
75.599	37.375
79.812	44.70833
84.021	63.375
88.227	40.70833
92.429	51.375
96.628	40.70833
100.823	51.375
105.015	49.04167
109.204	49.375
113.388	62.375
117.57	46.04167
121.748	65.04167
125.922	50.375
130.093	65.04167
134.261	65.70833
138.425	57.375
142.585	84.04167
146.742	70.04167
150.896	84.04167
155.046	79.04167
159.193	123.375
163.336	178.375
167.476	315.375
171.613	567.04167
175.746	908.04167
179.875	1338.04167
184.002	1728.04167
188.124	2054.70833
192.244	2143.04167
196.36	2169.70833
200.472	2161.04167
204.581	2124.04167
208.687	2086.04167
212.79	2083.375
216.889	2122.70833
220.984	2145.375
225.077	2160.04167
229.165	2183.375
233.251	2191.70833
237.333	2173.375
241.412	2176.04167
245.487	2152.375
249.559	2113.04167
253.628	2106.70833
257.694	2085.375
261.756	2059.04167
265.814	2051.04167
269.87	1989.375
273.922	1933.04167
277.97	1897.375
282.016	1840.04167
286.058	1808.70833
290.097	1820.04167
294.132	1820.375
298.164	1817.04167
302.193	1784.04167
306.219	1701.375
310.241	1590.70833
314.26	1475.04167
318.276	1392.375
322.288	1332.70833
326.297	1291.70833
330.303	1266.375
334.305	1249.70833
338.305	1236.375
342.301	1221.70833
346.294	1228.04167
350.283	1226.375
354.269	1192.70833
358.252	1206.70833
362.232	1208.70833
366.209	1218.04167
370.182	1199.70833
374.152	1191.375
378.119	1197.375
382.083	1191.70833
386.043	1217.04167
390	1189.04167
393.954	1211.04167
397.905	1200.70833
401.852	1197.70833
405.797	1190.375
409.738	1164.375
413.676	1186.04167
417.61	1176.375
421.542	1175.04167
425.47	1152.70833
429.396	1142.04167
433.318	1131.04167
437.236	1135.375
441.152	1156.04167
445.065	1100.70833
448.974	1118.70833
452.88	1108.04167
456.783	1095.04167
460.683	1093.375
464.58	1103.70833
468.473	1103.70833
472.364	1113.375
476.251	1099.70833
480.135	1103.04167
484.016	1115.375
487.894	1123.04167
491.769	1129.375
495.641	1129.04167
499.509	1133.375
503.375	1120.70833
507.237	1117.04167
511.096	1114.375
514.952	1107.04167
518.805	1092.70833
522.655	1097.04167
526.502	1108.70833
530.346	1111.375
534.187	1115.70833
538.024	1112.70833
541.859	1094.70833
545.69	1121.70833
549.519	1117.70833
553.344	1106.70833
557.166	1089.04167
560.985	1089.375
564.802	1072.04167
568.615	1077.04167
572.425	1043.04167
576.232	1036.70833
580.036	1049.70833
583.836	1032.04167
587.634	1051.375
591.429	1054.04167
595.221	1069.70833
599.01	1073.70833
602.796	1068.375
606.578	1088.375
610.358	1087.70833
614.135	1068.70833
617.909	1090.04167
621.679	1074.375
625.447	1054.04167
629.212	1071.375
632.973	1080.375
636.732	1062.375
640.488	1078.04167
644.241	1055.04167
647.991	1047.70833
651.737	1074.375
655.481	1046.375
659.222	1068.04167
662.96	1061.375
666.695	1091.70833
670.427	1083.04167
674.156	1086.70833
677.882	1069.04167
681.605	1059.375
685.325	1041.04167
689.043	1075.04167
692.757	1049.04167
696.468	1063.04167
700.177	1053.04167
703.882	1020.375
707.585	1014.70833
711.284	1021.375
714.981	1014.375
718.675	1009.70833
722.366	1033.375
726.054	1018.70833
729.739	1006.70833
733.421	1021.375
737.1	1002.70833
740.777	1023.70833
744.45	1022.375
748.121	1019.04167
751.789	1041.04167
755.453	1037.04167
759.115	1038.375
762.774	1045.70833
766.431	1051.04167
770.084	1063.70833
773.734	1057.375
777.382	1083.04167
781.027	1073.70833
784.669	1076.04167
788.308	1065.70833
791.944	1087.70833
795.577	1096.375
799.208	1088.04167
802.835	1101.70833
806.46	1104.04167
810.082	1124.04167
813.701	1142.04167
817.317	1145.70833
820.931	1124.375
824.542	1149.70833
828.149	1121.04167
831.754	1089.04167
835.357	1081.04167
838.956	1090.375
842.553	1075.04167
846.146	1062.04167
849.737	1055.70833
853.326	1058.375
856.911	1050.70833
860.493	1069.70833
864.073	1068.375
867.65	1078.375
871.225	1092.375
874.796	1080.375
878.365	1090.70833
881.931	1103.04167
885.494	1109.375
889.054	1106.04167
892.612	1097.70833
896.166	1086.70833
899.719	1073.375
903.268	1058.70833
906.814	1069.04167
910.358	1053.70833
913.899	1042.70833
917.438	1060.70833
920.973	1031.70833
924.506	1054.70833
928.036	1072.70833
931.564	1105.375
935.088	1112.04167
938.61	1091.04167
942.129	1090.04167
945.646	1105.04167
949.16	1103.375
952.671	1132.70833
956.179	1159.375
959.685	1148.375
963.188	1177.04167
966.688	1164.04167
970.185	1120.375
973.68	1086.70833
977.173	1075.375
980.662	1041.375
984.149	1075.70833
987.633	1047.04167
991.114	1050.375
994.593	1079.375
998.069	1102.04167
1001.542	1118.70833
1005.013	1115.04167
1008.481	1044.70833
1011.947	1046.04167
1015.409	1018.04167
1018.869	1028.375
1022.327	1030.375
1025.782	1015.04167
1029.234	1010.70833
1032.683	1008.70833
1036.13	984.04167
1039.574	954.04167
1043.016	927.375
1046.455	914.70833
1049.891	898.375
1053.325	918.04167
1056.756	901.04167
1060.184	908.375
1063.61	879.375
1067.033	914.04167
1070.454	899.70833
1073.872	912.375
1077.287	902.04167
1080.7	911.375
1084.11	908.70833
1087.517	905.04167
1090.922	895.375
1094.325	883.04167
1097.724	872.04167
1101.122	875.04167
1104.516	870.70833
1107.908	856.70833
1111.298	873.04167
1114.684	885.375
1118.069	881.04167
1121.45	913.70833
1124.83	877.04167
1128.206	901.70833
1131.58	921.375
1134.951	929.375
1138.32	931.70833
1141.687	977.70833
1145.05	989.375
1148.412	1006.375
1151.77	990.04167
1155.126	998.375
1158.48	990.04167
1161.831	987.70833
1165.18	989.04167
1168.525	1010.375
1171.869	1010.375
1175.21	1006.04167
1178.548	1022.04167
1181.884	1045.375
1185.217	1034.70833
1188.548	1060.375
1191.877	1069.375
1195.202	1111.04167
1198.526	1139.70833
1201.846	1121.04167
1205.165	1140.70833
1208.48	1145.04167
1211.794	1136.70833
1215.104	1136.375
1218.413	1133.375
1221.719	1126.70833
1225.022	1103.375
1228.323	1082.375
1231.621	1088.04167
1234.917	1075.70833
1238.21	1093.70833
1241.501	1078.70833
1244.79	1067.375
1248.076	1064.375
1251.359	1085.375
1254.64	1127.70833
1257.919	1115.375
1261.195	1132.375
1264.468	1128.70833
1267.74	1145.375
1271.008	1151.70833
1274.275	1160.70833
1277.538	1144.70833
1280.8	1151.04167
1284.059	1144.70833
1287.315	1153.70833
1290.569	1157.70833
1293.821	1147.375
1297.07	1146.04167
1300.317	1157.04167
1303.562	1183.04167
1306.803	1161.375
1310.043	1159.04167
1313.28	1157.375
1316.515	1159.70833
1319.747	1168.04167
1322.977	1155.375
1326.204	1158.70833
1329.429	1137.70833
1332.652	1158.04167
1335.872	1147.04167
1339.09	1124.70833
1342.306	1120.375
1345.519	1117.375
1348.729	1113.04167
1351.938	1109.375
1355.144	1103.04167
1358.347	1080.70833
1361.548	1087.375
1364.747	1096.70833
1367.944	1062.375
1371.138	1080.04167
1374.329	1075.70833
1377.518	1062.70833
1380.705	1059.375
1383.89	1070.04167
1387.072	1028.375
1390.252	1005.70833
1393.429	976.375
1396.605	934.375
1399.777	907.70833
1402.948	904.70833
1406.116	891.375
1409.282	894.04167
1412.445	899.375
1415.606	902.04167
1418.765	902.70833
1421.921	900.70833
1425.075	915.375
1428.227	955.04167
1431.376	986.04167
1434.524	1023.70833
1437.668	1041.70833
1440.811	1045.375
1443.951	1060.70833
1447.089	1065.375
1450.224	1065.70833
1453.357	1055.04167
1456.488	1059.375
1459.617	1055.70833
1462.743	1043.04167
1465.867	1013.04167
1468.989	1003.04167
1472.108	988.70833
1475.225	981.04167
1478.34	963.04167
1481.453	964.70833
1484.563	963.70833
1487.671	972.70833
1490.776	991.04167
1493.88	987.375
1496.981	1003.04167
1500.08	1027.375
1503.176	1021.70833
1506.271	1032.04167
1509.363	1040.70833
1512.452	1045.04167
1515.54	1054.375
1518.625	1064.375
1521.708	1111.70833
1524.789	1131.04167
1527.867	1159.375
1530.944	1223.04167
1534.018	1233.70833
1537.089	1287.70833
1540.159	1283.70833
1543.226	1267.70833
1546.291	1243.375
1549.354	1231.04167
1552.415	1205.375
1555.473	1178.04167
1558.529	1174.375
1561.583	1148.375
1564.634	1138.70833
1567.684	1152.04167
1570.731	1158.70833
1573.776	1183.375
1576.819	1199.70833
1579.859	1193.70833
1582.898	1236.70833
1585.934	1263.04167
1588.968	1245.04167
1591.999	1217.70833
1595.029	1220.70833
1598.056	1247.70833
1601.081	1254.70833
1604.104	1250.70833
1607.125	1230.04167
1610.144	1217.375
1613.16	1193.04167
1616.174	1172.04167
1619.186	1178.70833
1622.196	1151.04167
1625.203	1120.375
1628.209	1111.70833
1631.212	1107.04167
1634.213	1131.70833
1637.212	1148.04167
1640.209	1153.375
1643.203	1122.375
1646.196	1072.375
1649.186	1028.375
1652.174	986.04167
1655.16	972.375
1658.144	948.04167
1661.125	894.375
1664.105	860.70833
1667.082	808.04167
1670.057	759.70833
1673.03	736.375
1676.001	701.04167
1678.97	650.70833
1681.937	612.375
1684.901	583.70833
1687.863	576.375
1690.824	542.70833
1693.782	554.375
1696.738	505.70833
1699.692	514.04167
1702.643	496.70833
1705.593	492.04167
1708.54	480.70833
1711.486	500.04167
1714.429	474.375
1717.37	482.70833
1720.309	466.04167
1723.246	473.70833
1726.181	454.70833
1729.113	466.04167
1732.044	464.70833
1734.972	454.04167
1737.899	466.375
1740.823	469.70833
1743.745	472.70833
1746.665	436.04167
1749.583	426.375
1752.499	426.04167
1755.413	425.70833
1758.325	404.70833
1761.235	420.70833
1764.142	403.70833
1767.048	402.70833
1769.951	406.04167
1772.852	402.70833
1775.752	412.70833
1778.649	401.70833
1781.544	415.375
1784.437	387.04167
1787.328	404.70833
1790.217	396.04167
1793.104	377.04167
1795.989	382.04167
1798.872	365.04167
1801.753	392.70833
1804.631	394.375
1807.508	388.375
1810.383	380.375
1813.255	379.70833
1816.126	377.375
1818.994	382.04167
1821.861	365.70833
1824.725	382.375
1827.587	377.375
1830.448	370.04167
1833.306	362.375
1836.162	385.04167
1839.017	367.04167
1841.869	365.375
1844.719	363.04167
1847.567	350.70833
1850.414	343.04167
1853.258	352.70833
1856.1	365.04167
1858.94	364.375
1861.778	360.70833
1864.614	345.70833
1867.448	355.375
1870.28	340.375
1873.111	362.375
1875.939	342.70833
1878.765	365.04167
1881.589	347.70833
1884.411	347.04167
1887.231	355.375
1890.049	356.70833
1892.865	358.04167
1895.68	337.375
1898.492	343.70833
1901.302	333.70833
1904.11	338.70833
1906.916	337.375
1909.721	334.70833
1912.523	353.375
1915.323	330.04167
1918.122	326.04167
1920.918	341.04167
1923.712	324.375
1926.505	338.375
1929.295	319.04167
1932.084	328.375
1934.87	330.70833
1937.655	325.375
1940.438	322.04167
1943.218	325.04167
1945.997	324.04167
1948.774	336.04167
1951.549	333.375
1954.322	314.70833
1957.093	318.375
1959.862	313.04167
1962.629	313.04167
1965.394	309.375
1968.157	300.70833
1970.918	319.375
1973.678	308.70833
1976.435	319.70833
1979.19	300.04167
1981.944	302.04167
1984.696	301.375
1987.445	301.70833
1990.193	312.04167
1992.939	315.375
1995.683	307.70833
1998.425	290.04167
2001.165	327.70833
2003.903	294.70833
2006.639	296.70833
2009.374	305.70833
2012.106	307.04167
2014.837	283.375
2017.566	301.375
2020.292	298.70833
2023.017	291.375
2025.74	291.375
2028.461	287.04167
2031.18	295.375
2033.898	277.70833
2036.613	292.70833
2039.327	287.04167
2042.038	282.375
2044.748	290.70833
2047.456	288.70833
2050.162	271.70833
2052.866	282.04167
2055.568	291.04167
2058.268	277.70833
2060.967	295.70833
2063.663	268.375
2066.358	277.375
2069.051	270.04167
2071.742	271.70833
2074.431	282.70833
2077.118	276.70833
2079.804	260.04167
2082.487	273.70833
2085.169	285.70833
2087.849	292.375
2090.527	262.70833
2093.203	280.375
2095.877	272.70833
2098.55	279.04167
2101.22	283.375
2103.889	279.04167
2106.556	268.04167
2109.221	284.70833
2111.884	279.375
2114.546	294.70833
2117.205	293.70833
2119.863	336.375
2122.519	326.04167
2125.173	342.70833
2127.825	380.70833
2130.475	382.375
2133.124	366.04167
2135.771	361.04167
2138.416	364.375
2141.059	332.04167
2143.7	332.04167
2146.339	310.375
2148.977	282.70833
2151.613	294.04167
2154.247	288.70833
2156.879	277.04167
2159.51	270.375
2162.138	274.04167
2164.765	266.375
2167.39	257.04167
2170.013	278.04167
2172.634	274.04167
2175.254	260.70833
2177.872	299.70833
2180.488	252.375
2183.102	259.375
2185.714	253.375
2188.325	250.375
2190.934	261.04167
2193.541	262.04167
2196.146	249.04167
2198.75	242.04167
2201.351	240.04167
2203.951	226.375
2206.549	242.375
2209.146	240.375
2211.74	232.04167
2214.333	248.375
2216.924	222.70833
2219.514	237.04167
2222.101	231.70833
2224.687	241.04167
2227.271	222.70833
2229.853	235.04167
2232.433	215.04167
2235.012	237.04167
2237.589	227.375
2240.164	246.04167
2242.738	227.04167
2245.309	219.375
2247.879	235.04167
2250.448	236.70833
2253.014	214.70833
2255.579	204.375
2258.142	220.70833
2260.703	210.375
2263.262	210.04167
2265.82	206.04167
2268.376	223.70833
2270.93	216.04167
2273.483	205.375
2276.033	216.04167
2278.583	205.375
2281.13	202.70833
2283.675	196.375
2286.219	205.04167
2288.761	211.375
2291.302	209.04167
2293.841	221.375
2296.377	190.375
2298.913	210.04167
2301.446	214.70833
2303.978	205.70833
2306.508	202.375
2309.037	208.375
2311.563	208.375
2314.088	199.375
2316.612	190.375
2319.133	202.70833
2321.653	203.70833
2324.171	190.375
2326.688	206.70833
2329.202	200.04167
2331.715	206.375
2334.227	195.375
2336.736	196.04167
2339.244	190.375
2341.751	182.70833
2344.255	204.70833
2346.758	199.375
2349.259	188.04167
2351.759	193.70833
2354.257	186.375
2356.753	182.375
2359.247	181.70833
2361.74	186.04167
2364.231	186.375
2366.721	197.375
2369.209	182.375
2371.695	187.375
2374.179	175.04167
2376.662	173.04167
2379.143	195.04167
2381.622	185.04167
2384.1	189.70833
2386.576	179.70833
2389.051	191.70833
2391.524	189.70833
2393.995	188.70833
2396.464	177.70833
2398.932	177.375
2401.398	180.70833
2403.863	172.375
2406.325	171.04167
2408.787	185.70833
2411.246	176.04167
2413.704	175.70833
2416.16	174.375
2418.615	178.70833
2421.068	175.70833
2423.519	177.375
2425.969	162.04167
2428.417	188.70833
2430.863	197.04167
2433.308	183.70833
2435.751	177.375
2438.193	174.04167
2440.633	178.375
2443.071	185.375
2445.508	171.04167
2447.943	174.375
2450.376	169.04167
2452.808	173.375
2455.238	164.375
2457.667	195.04167
2460.093	164.04167
2462.519	160.375
2464.942	161.70833
2467.365	171.70833
2469.785	172.375
2472.204	160.70833
2474.621	164.375
2477.037	181.04167
2479.451	158.70833
2481.863	154.70833
2484.274	160.375
2486.683	162.375
2489.091	175.70833
2491.497	164.375
2493.901	169.375
2496.304	163.375
2498.705	170.375
2501.105	164.70833
2503.503	180.375
2505.899	155.04167
2508.294	177.375
2510.687	154.04167
2513.079	159.04167
2515.469	155.04167
2517.858	153.70833
2520.245	173.70833
2522.63	152.70833
2525.014	155.70833
2527.396	155.70833
2529.776	151.375
2532.156	167.375
2534.533	147.375
2536.909	149.375
2539.283	144.70833
2541.656	157.04167
2544.027	167.70833
2546.397	161.70833
2548.765	157.375
2551.131	158.70833
2553.496	159.70833
2555.86	156.70833
2558.221	160.70833
2560.582	148.375
2562.94	143.04167
2565.298	158.04167
2567.653	155.04167
2570.007	139.04167
2572.36	158.70833
2574.711	146.70833
2577.06	167.04167
2579.408	151.04167
2581.754	148.375
2584.099	148.375
2586.442	152.70833
2588.784	150.04167
2591.124	145.04167
2593.463	149.70833
2595.8	153.70833
2598.135	136.70833
2600.469	142.70833
2602.802	155.04167
2605.133	158.04167
2607.462	138.04167
2609.79	135.04167
2612.116	155.375
2614.441	147.04167
2616.764	146.04167
2619.086	147.70833
2621.406	139.375
2623.725	155.375
2626.042	144.04167
2628.358	142.04167
2630.672	147.375
2632.985	151.375
2635.296	145.375
2637.606	147.375
2639.914	139.70833
2642.22	135.04167
2644.525	145.375
2646.829	139.375
2649.131	159.04167
2651.432	153.70833
2653.731	139.70833
2656.028	154.04167
2658.324	149.04167
2660.619	136.375
2662.912	150.70833
2665.204	134.375
2667.494	146.70833
2669.782	137.70833
2672.07	159.375
2674.355	150.70833
2676.639	150.375
2678.922	136.70833
2681.203	147.04167
2683.483	131.70833
2685.761	129.04167
2688.038	154.04167
2690.313	159.04167
2692.587	144.04167
2694.859	140.375
2697.13	140.70833
2699.399	148.375
2701.667	156.04167
2703.933	147.70833
2706.198	160.04167
2708.461	153.375
2710.723	153.04167
2712.984	142.70833
2715.243	161.04167
2717.5	146.70833
2719.757	155.375
2722.011	141.375
2724.264	155.375
2726.516	166.375
2728.766	144.375
2731.015	146.375
2733.262	152.04167
2735.508	149.375
2737.753	151.04167
2739.996	135.04167
2742.237	140.70833
2744.477	154.375
2746.716	158.375
2748.953	150.70833
2751.189	157.375
2753.423	150.375
2755.656	137.04167
2757.887	134.70833
2760.117	141.375
2762.346	136.375
2764.573	124.375
2766.798	130.70833
2769.022	132.70833
2771.245	133.375
2773.467	134.70833
2775.686	131.375
2777.905	143.70833
2780.122	134.70833
2782.337	137.375
2784.552	140.375
2786.764	141.04167
2788.976	133.70833
2791.186	140.70833
2793.394	135.04167
2795.601	152.70833
2797.807	145.70833
2800.011	139.04167
2802.214	155.04167
2804.415	146.04167
2806.615	146.70833
2808.814	152.375
2811.011	151.04167
2813.206	151.70833
2815.401	160.70833
2817.594	159.04167
2819.785	163.70833
2821.975	146.70833
2824.164	157.375
2826.351	156.375
2828.537	166.70833
2830.722	165.70833
2832.905	164.375
2835.086	171.70833
2837.267	189.375
2839.445	181.70833
2841.623	190.04167
2843.799	189.04167
2845.974	196.70833
2848.147	197.70833
2850.319	217.70833
2852.489	222.375
2854.659	229.04167
2856.826	230.70833
2858.993	245.04167
2861.158	225.375
2863.321	240.70833
2865.483	245.04167
2867.644	246.04167
2869.804	241.04167
2871.962	244.70833
2874.118	243.375
2876.274	237.375
2878.428	240.04167
2880.58	248.70833
2882.731	230.375
2884.881	242.375
2887.03	249.04167
2889.177	238.375
2891.322	257.04167
2893.467	236.375
2895.61	237.04167
2897.751	260.04167
2899.892	246.375
2902.03	252.70833
2904.168	246.04167
2906.304	252.04167
2908.439	270.04167
2910.572	248.375
2912.704	256.375
2914.835	261.70833
2916.965	260.375
2919.093	278.375
2921.219	248.70833
2923.345	273.375
2925.469	257.70833
2927.591	254.375
2929.712	239.70833
2931.832	253.70833
2933.951	236.70833
2936.068	238.70833
2938.184	236.375
2940.299	226.70833
2942.412	221.375
2944.524	207.70833
2946.634	209.04167
2948.744	190.70833
2950.851	224.04167
2952.958	189.04167
2955.063	197.70833
2957.167	193.375
2959.269	170.04167
2961.371	201.375
2963.471	172.70833
2965.569	192.04167
2967.666	165.375
2969.762	160.70833
2971.857	157.70833
2973.95	152.375
2976.042	160.04167
2978.133	148.375
2980.222	149.70833
2982.31	140.375
2984.396	128.04167
2986.482	127.375
2988.566	138.70833
2990.648	136.04167
2992.73	135.70833
2994.81	124.70833
2996.889	134.70833
2998.966	133.04167
3001.042	139.70833
3003.117	128.375
3005.191	133.70833
3007.263	129.375
3009.334	126.04167
3011.403	132.375
3013.472	121.375
3015.539	136.375
3017.604	148.04167
3019.669	108.70833
3021.732	115.04167
3023.794	119.375
3025.854	110.70833
3027.914	107.04167
3029.971	116.375
3032.028	116.375
3034.083	122.04167
3036.137	113.04167
3038.19	103.70833
3040.242	101.375
3042.292	99.04167
3044.341	102.70833
3046.388	117.375
3048.435	97.04167
3050.48	119.375
3052.524	102.04167
3054.566	91.70833
3056.607	103.04167
3058.647	101.70833
3060.686	91.375
3062.723	86.375
3064.759	82.70833
3066.794	0.375
3068.828	-0.29167
3070.86	3.04167
