-0.839	124.45833
3.438	144.79167
7.711	62.125
11.981	42.125
16.247	35.125
20.509	38.79167
24.768	36.45833
29.024	46.125
33.276	31.45833
37.524	43.45833
41.769	30.125
46.01	26.125
50.247	45.45833
54.481	52.125
58.712	54.45833
62.939	37.45833
67.162	50.45833
71.382	41.45833
75.599	40.45833
79.812	47.45833
84.021	61.45833
88.227	44.45833
92.429	48.79167
96.628	40.125
100.823	52.79167
105.015	57.45833
109.204	46.45833
113.388	55.125
117.57	45.125
121.748	60.125
125.922	48.125
130.093	65.79167
134.261	67.45833
138.425	52.79167
142.585	82.45833
146.742	69.45833
150.896	79.79167
155.046	74.125
159.193	108.79167
163.336	152.125
167.476	263.79167
171.613	480.45833
175.746	757.79167
179.875	1119.125
184.002	1432.45833
188.124	1740.79167
192.244	1812.45833
196.36	1827.79167
200.472	1829.125
204.581	1811.45833
208.687	1753.79167
212.79	1769.125
216.889	1791.79167
220.984	1821.45833
225.077	1830.125
229.165	1859.79167
233.251	1855.125
237.333	1872.79167
241.412	1865.45833
245.487	1851.79167
249.559	1824.125
253.628	1814.45833
257.694	1811.79167
261.756	1796.45833
265.814	1786.125
269.87	1722.125
273.922	1666.125
277.97	1643.45833
282.016	1618.125
286.058	1583.45833
290.097	1593.79167
294.132	1635.45833
298.164	1617.79167
302.193	1553.125
306.219	1477.45833
310.241	1392.125
314.26	1293.125
318.276	1237.79167
322.288	1196.125
326.297	1155.79167
330.303	1134.125
334.305	1118.125
338.305	1116.125
342.301	1111.125
346.294	1105.125
350.283	1084.79167
354.269	1081.45833
358.252	1079.79167
362.232	1086.79167
366.209	1078.125
370.182	1069.125
374.152	1056.125
378.119	1071.125
382.083	1052.125
386.043	1093.45833
390	1062.45833
393.954	1071.45833
397.905	1069.45833
401.852	1090.125
405.797	1061.79167
409.738	1061.45833
413.676	1082.125
417.61	1079.45833
421.542	1066.79167
425.47	1045.79167
429.396	1031.125
433.318	1014.79167
437.236	1026.125
441.152	1053.125
445.065	1025.45833
448.974	1008.79167
452.88	1010.125
456.783	1016.79167
460.683	988.45833
464.58	1014.79167
468.473	1025.125
472.364	1020.125
476.251	1009.45833
480.135	1017.125
484.016	1038.45833
487.894	1029.79167
491.769	1037.45833
495.641	1023.79167
499.509	1026.79167
503.375	1023.45833
507.237	1024.45833
511.096	1012.45833
514.952	1038.125
518.805	1028.79167
522.655	1021.125
526.502	1010.125
530.346	1023.79167
534.187	1016.45833
538.024	1002.125
541.859	1001.79167
545.69	1026.45833
549.519	1015.125
553.344	1015.45833
557.166	985.79167
560.985	991.125
564.802	988.45833
568.615	966.125
572.425	965.45833
576.232	951.79167
580.036	957.79167
583.836	981.79167
587.634	972.125
591.429	963.79167
595.221	996.45833
599.01	983.45833
602.796	985.79167
606.578	981.45833
610.358	988.79167
614.135	985.79167
617.909	987.45833
621.679	973.79167
625.447	977.79167
629.212	986.125
632.973	971.79167
636.732	975.125
640.488	963.45833
644.241	948.45833
647.991	955.125
651.737	983.79167
655.481	944.79167
659.222	951.79167
662.96	950.79167
666.695	981.125
670.427	962.125
674.156	947.45833
677.882	965.125
681.605	964.45833
685.325	949.79167
689.043	965.125
692.757	948.125
696.468	950.79167
700.177	938.45833
703.882	940.125
707.585	920.45833
711.284	937.45833
714.981	903.125
718.675	915.45833
722.366	934.125
726.054	904.125
729.739	923.45833
733.421	913.45833
737.1	912.125
740.777	922.79167
744.45	925.45833
748.121	929.125
751.789	953.45833
755.453	942.125
759.115	944.79167
762.774	939.125
766.431	937.45833
770.084	941.45833
773.734	955.125
777.382	967.45833
781.027	963.79167
784.669	965.125
788.308	966.79167
791.944	971.45833
795.577	968.125
799.208	969.125
802.835	979.45833
806.46	994.79167
810.082	1003.45833
813.701	989.125
817.317	1009.79167
820.931	1006.79167
824.542	1006.45833
828.149	992.125
831.754	970.125
835.357	973.79167
838.956	983.79167
842.553	968.125
846.146	950.45833
849.737	941.45833
853.326	944.125
856.911	938.79167
860.493	967.79167
864.073	961.125
867.65	993.45833
871.225	993.125
874.796	974.45833
878.365	968.79167
881.931	980.79167
885.494	995.45833
889.054	969.125
892.612	982.79167
896.166	956.79167
899.719	947.79167
903.268	932.125
906.814	943.45833
910.358	932.45833
913.899	929.125
917.438	923.45833
920.973	906.125
924.506	923.125
928.036	940.79167
931.564	951.125
935.088	971.79167
938.61	949.79167
942.129	953.45833
945.646	973.79167
949.16	969.79167
952.671	986.45833
956.179	1009.79167
959.685	998.45833
963.188	1023.125
966.688	1010.79167
970.185	959.125
973.68	938.79167
977.173	934.45833
980.662	915.79167
984.149	933.45833
987.633	900.125
991.114	925.79167
994.593	942.45833
998.069	961.45833
1001.542	983.45833
1005.013	971.125
1008.481	915.45833
1011.947	904.45833
1015.409	885.45833
1018.869	899.79167
1022.327	896.79167
1025.782	876.79167
1029.234	874.45833
1032.683	877.45833
1036.13	857.125
1039.574	826.79167
1043.016	802.45833
1046.455	807.45833
1049.891	790.45833
1053.325	791.79167
1056.756	793.45833
1060.184	795.125
1063.61	782.79167
1067.033	793.45833
1070.454	782.125
1073.872	807.125
1077.287	784.79167
1080.7	797.125
1084.11	782.45833
1087.517	773.79167
1090.922	791.125
1094.325	769.79167
1097.724	760.125
1101.122	759.125
1104.516	755.125
1107.908	738.45833
1111.298	752.79167
1114.684	774.125
1118.069	768.79167
1121.45	786.79167
1124.83	761.45833
1128.206	775.45833
1131.58	782.125
1134.951	806.45833
1138.32	805.45833
1141.687	836.125
1145.05	857.125
1148.412	847.79167
1151.77	838.125
1155.126	851.45833
1158.48	840.79167
1161.831	859.79167
1165.18	849.79167
1168.525	863.125
1171.869	874.79167
1175.21	869.125
1178.548	866.125
1181.884	884.45833
1185.217	891.45833
1188.548	914.79167
1191.877	915.79167
1195.202	949.45833
1198.526	972.125
1201.846	972.79167
1205.165	985.45833
1208.48	966.45833
1211.794	964.79167
1215.104	984.45833
1218.413	954.45833
1221.719	965.125
1225.022	943.79167
1228.323	924.79167
1231.621	948.79167
1234.917	932.45833
1238.21	943.79167
1241.501	920.125
1244.79	916.45833
1248.076	907.125
1251.359	919.79167
1254.64	968.79167
1257.919	942.125
1261.195	941.45833
1264.468	958.125
1267.74	975.125
1271.008	977.45833
1274.275	987.125
1277.538	975.125
1280.8	972.125
1284.059	956.79167
1287.315	986.45833
1290.569	971.79167
1293.821	981.45833
1297.07	993.79167
1300.317	987.79167
1303.562	998.125
1306.803	988.125
1310.043	977.45833
1313.28	974.125
1316.515	988.45833
1319.747	976.125
1322.977	966.45833
1326.204	962.125
1329.429	955.79167
1332.652	966.125
1335.872	958.125
1339.09	938.79167
1342.306	933.125
1345.519	938.125
1348.729	930.125
1351.938	936.45833
1355.144	925.79167
1358.347	913.45833
1361.548	911.79167
1364.747	919.79167
1367.944	898.45833
1371.138	897.125
1374.329	898.45833
1377.518	895.45833
1380.705	898.79167
1383.89	894.79167
1387.072	854.79167
1390.252	846.125
1393.429	813.79167
1396.605	811.45833
1399.777	775.45833
1402.948	779.79167
1406.116	763.45833
1409.282	764.79167
1412.445	773.45833
1415.606	773.125
1418.765	760.125
1421.921	776.45833
1425.075	784.45833
1428.227	816.45833
1431.376	843.79167
1434.524	863.125
1437.668	878.125
1440.811	890.79167
1443.951	894.45833
1447.089	906.125
1450.224	884.79167
1453.357	881.125
1456.488	888.79167
1459.617	870.45833
1462.743	869.45833
1465.867	841.79167
1468.989	843.125
1472.108	834.125
1475.225	815.45833
1478.34	802.79167
1481.453	809.125
1484.563	799.79167
1487.671	822.45833
1490.776	825.45833
1493.88	823.45833
1496.981	848.45833
1500.08	861.45833
1503.176	851.45833
1506.271	853.45833
1509.363	869.79167
1512.452	873.79167
1515.54	881.79167
1518.625	893.45833
1521.708	933.125
1524.789	938.45833
1527.867	977.125
1530.944	1016.45833
1534.018	1044.45833
1537.089	1079.125
1540.159	1078.45833
1543.226	1095.45833
1546.291	1066.45833
1549.354	1044.79167
1552.415	1025.79167
1555.473	1008.79167
1558.529	994.125
1561.583	979.125
1564.634	981.45833
1567.684	967.45833
1570.731	970.125
1573.776	992.45833
1576.819	998.45833
1579.859	1007.79167
1582.898	1035.45833
1585.934	1041.125
1588.968	1036.79167
1591.999	1022.79167
1595.029	1021.45833
1598.056	1028.45833
1601.081	1040.125
1604.104	1048.79167
1607.125	1037.125
1610.144	1023.79167
1613.16	979.79167
1616.174	968.45833
1619.186	959.125
1622.196	938.79167
1625.203	914.125
1628.209	920.45833
1631.212	904.125
1634.213	915.125
1637.212	930.79167
1640.209	935.125
1643.203	893.125
1646.196	866.79167
1649.186	841.45833
1652.174	811.79167
1655.16	799.45833
1658.144	771.125
1661.125	741.125
1664.105	705.45833
1667.082	682.125
1670.057	639.45833
1673.03	611.125
1676.001	584.45833
1678.97	548.125
1681.937	527.79167
1684.901	499.45833
1687.863	493.45833
1690.824	468.125
1693.782	465.79167
1696.738	431.45833
1699.692	437.45833
1702.643	417.45833
1705.593	420.79167
1708.54	423.125
1711.486	433.79167
1714.429	406.79167
1717.37	415.79167
1720.309	401.125
1723.246	409.79167
1726.181	394.125
1729.113	390.125
1732.044	398.45833
1734.972	382.79167
1737.899	403.79167
1740.823	405.125
1743.745	423.45833
1746.665	375.45833
1749.583	371.125
1752.499	367.45833
1755.413	367.125
1758.325	353.125
1761.235	366.45833
1764.142	350.79167
1767.048	348.45833
1769.951	351.79167
1772.852	353.125
1775.752	365.79167
1778.649	360.79167
1781.544	367.45833
1784.437	337.125
1787.328	339.125
1790.217	342.125
1793.104	320.125
1795.989	326.79167
1798.872	321.125
1801.753	351.45833
1804.631	321.45833
1807.508	335.125
1810.383	336.125
1813.255	333.79167
1816.126	327.79167
1818.994	333.45833
1821.861	318.45833
1824.725	326.45833
1827.587	323.125
1830.448	319.79167
1833.306	305.79167
1836.162	329.45833
1839.017	317.79167
1841.869	313.45833
1844.719	310.79167
1847.567	300.79167
1850.414	295.45833
1853.258	301.45833
1856.1	315.79167
1858.94	324.125
1861.778	306.45833
1864.614	299.125
1867.448	305.45833
1870.28	293.125
1873.111	317.125
1875.939	296.79167
1878.765	318.125
1881.589	302.45833
1884.411	303.45833
1887.231	311.45833
1890.049	308.79167
1892.865	314.79167
1895.68	288.45833
1898.492	302.79167
1901.302	298.79167
1904.11	289.79167
1906.916	294.45833
1909.721	286.45833
1912.523	291.79167
1915.323	287.125
1918.122	279.45833
1920.918	298.79167
1923.712	279.125
1926.505	288.79167
1929.295	265.79167
1932.084	285.79167
1934.87	287.45833
1937.655	274.79167
1940.438	276.45833
1943.218	279.45833
1945.997	288.125
1948.774	289.45833
1951.549	284.125
1954.322	280.79167
1957.093	281.125
1959.862	277.125
1962.629	276.45833
1965.394	273.79167
1968.157	264.125
1970.918	278.79167
1973.678	266.79167
1976.435	283.79167
1979.19	264.125
1981.944	257.45833
1984.696	259.79167
1987.445	261.45833
1990.193	267.125
1992.939	280.45833
1995.683	266.45833
1998.425	248.125
2001.165	283.45833
2003.903	247.125
2006.639	255.125
2009.374	270.79167
2012.106	268.45833
2014.837	244.45833
2017.566	264.125
2020.292	259.79167
2023.017	250.45833
2025.74	247.45833
2028.461	238.79167
2031.18	252.125
2033.898	247.125
2036.613	249.79167
2039.327	254.79167
2042.038	244.125
2044.748	252.45833
2047.456	254.125
2050.162	243.125
2052.866	245.79167
2055.568	253.45833
2058.268	240.125
2060.967	253.45833
2063.663	230.125
2066.358	233.125
2069.051	238.79167
2071.742	239.79167
2074.431	246.45833
2077.118	229.79167
2079.804	226.125
2082.487	236.79167
2085.169	256.45833
2087.849	258.79167
2090.527	231.125
2093.203	240.125
2095.877	242.125
2098.55	238.125
2101.22	247.45833
2103.889	246.79167
2106.556	241.125
2109.221	258.125
2111.884	242.79167
2114.546	267.125
2117.205	268.45833
2119.863	291.79167
2122.519	291.45833
2125.173	305.125
2127.825	332.79167
2130.475	331.45833
2133.124	325.79167
2135.771	310.125
2138.416	326.79167
2141.059	289.79167
2143.7	293.79167
2146.339	265.79167
2148.977	253.125
2151.613	264.45833
2154.247	251.79167
2156.879	251.125
2159.51	233.125
2162.138	240.79167
2164.765	234.45833
2167.39	226.45833
2170.013	243.45833
2172.634	243.79167
2175.254	226.125
2177.872	266.45833
2180.488	221.45833
2183.102	226.79167
2185.714	227.79167
2188.325	214.45833
2190.934	224.125
2193.541	231.45833
2196.146	213.45833
2198.75	213.125
2201.351	209.45833
2203.951	197.79167
2206.549	214.125
2209.146	210.79167
2211.74	205.79167
2214.333	208.79167
2216.924	191.79167
2219.514	206.79167
2222.101	198.79167
2224.687	220.79167
2227.271	194.125
2229.853	194.45833
2232.433	186.45833
2235.012	209.45833
2237.589	203.79167
2240.164	213.45833
2242.738	196.125
2245.309	191.125
2247.879	209.125
2250.448	198.79167
2253.014	184.79167
2255.579	184.125
2258.142	187.45833
2260.703	187.125
2263.262	186.45833
2265.82	175.45833
2268.376	196.79167
2270.93	183.79167
2273.483	180.79167
2276.033	193.45833
2278.583	174.79167
2281.13	179.45833
2283.675	166.45833
2286.219	180.125
2288.761	187.45833
2291.302	180.125
2293.841	190.79167
2296.377	170.79167
2298.913	179.125
2301.446	188.45833
2303.978	176.79167
2306.508	176.125
2309.037	183.125
2311.563	181.79167
2314.088	181.45833
2316.612	165.79167
2319.133	180.125
2321.653	180.45833
2324.171	174.125
2326.688	178.79167
2329.202	169.125
2331.715	180.79167
2334.227	175.79167
2336.736	175.45833
2339.244	167.79167
2341.751	155.79167
2344.255	174.45833
2346.758	169.125
2349.259	164.45833
2351.759	170.125
2354.257	162.125
2356.753	160.125
2359.247	163.79167
2361.74	166.79167
2364.231	160.45833
2366.721	172.79167
2369.209	155.125
2371.695	165.45833
2374.179	157.125
2376.662	146.79167
2379.143	174.125
2381.622	163.79167
2384.1	163.79167
2386.576	157.45833
2389.051	171.125
2391.524	171.79167
2393.995	160.125
2396.464	154.125
2398.932	156.79167
2401.398	161.45833
2403.863	149.45833
2406.325	154.45833
2408.787	157.125
2411.246	153.45833
2413.704	162.79167
2416.16	149.79167
2418.615	152.45833
2421.068	159.125
2423.519	152.45833
2425.969	147.79167
2428.417	163.45833
2430.863	175.125
2433.308	169.79167
2435.751	205.79167
2438.193	158.125
2440.633	160.45833
2443.071	158.125
2445.508	149.45833
2447.943	149.125
2450.376	144.125
2452.808	154.45833
2455.238	143.79167
2457.667	180.79167
2460.093	145.45833
2462.519	139.79167
2464.942	139.125
2467.365	153.125
2469.785	151.45833
2472.204	145.45833
2474.621	145.45833
2477.037	163.125
2479.451	133.79167
2481.863	129.125
2484.274	143.45833
2486.683	146.125
2489.091	156.125
2491.497	152.45833
2493.901	151.125
2496.304	142.79167
2498.705	157.79167
2501.105	143.125
2503.503	162.45833
2505.899	138.45833
2508.294	162.125
2510.687	140.79167
2513.079	146.45833
2515.469	137.79167
2517.858	140.45833
2520.245	150.79167
2522.63	142.45833
2525.014	141.125
2527.396	134.45833
2529.776	132.79167
2532.156	144.45833
2534.533	132.45833
2536.909	126.79167
2539.283	122.125
2541.656	136.125
2544.027	149.79167
2546.397	140.45833
2548.765	133.79167
2551.131	141.125
2553.496	141.45833
2555.86	138.45833
2558.221	145.125
2560.582	130.79167
2562.94	123.125
2565.298	138.45833
2567.653	146.45833
2570.007	122.79167
2572.36	142.79167
2574.711	128.125
2577.06	144.79167
2579.408	132.45833
2581.754	134.125
2584.099	130.125
2586.442	133.45833
2588.784	136.45833
2591.124	130.79167
2593.463	126.125
2595.8	139.45833
2598.135	122.79167
2600.469	126.125
2602.802	139.79167
2605.133	141.125
2607.462	123.125
2609.79	116.79167
2612.116	140.125
2614.441	131.79167
2616.764	135.45833
2619.086	128.45833
2621.406	130.125
2623.725	138.45833
2626.042	130.125
2628.358	119.45833
2630.672	134.125
2632.985	135.125
2635.296	129.79167
2637.606	127.45833
2639.914	122.45833
2642.22	127.45833
2644.525	127.79167
2646.829	128.79167
2649.131	139.79167
2651.432	138.45833
2653.731	126.45833
2656.028	140.45833
2658.324	136.125
2660.619	116.79167
2662.912	131.79167
2665.204	115.79167
2667.494	137.45833
2669.782	120.125
2672.07	135.79167
2674.355	135.45833
2676.639	134.125
2678.922	124.125
2681.203	130.125
2683.483	123.45833
2685.761	118.45833
2688.038	135.79167
2690.313	139.45833
2692.587	125.79167
2694.859	127.45833
2697.13	124.79167
2699.399	127.79167
2701.667	136.45833
2703.933	135.79167
2706.198	137.79167
2708.461	138.125
2710.723	140.79167
2712.984	131.45833
2715.243	136.125
2717.5	130.45833
2719.757	138.45833
2722.011	133.79167
2724.264	138.79167
2726.516	149.125
2728.766	125.125
2731.015	136.125
2733.262	132.125
2735.508	127.79167
2737.753	133.125
2739.996	125.45833
2742.237	123.79167
2744.477	144.79167
2746.716	146.79167
2748.953	139.79167
2751.189	139.79167
2753.423	140.125
2755.656	122.125
2757.887	118.79167
2760.117	122.45833
2762.346	117.125
2764.573	111.79167
2766.798	125.79167
2769.022	119.45833
2771.245	114.79167
2773.467	120.79167
2775.686	121.125
2777.905	125.45833
2780.122	126.45833
2782.337	127.45833
2784.552	121.79167
2786.764	125.45833
2788.976	118.125
2791.186	125.45833
2793.394	131.45833
2795.601	133.79167
2797.807	135.79167
2800.011	130.79167
2802.214	139.125
2804.415	127.45833
2806.615	131.45833
2808.814	138.45833
2811.011	141.45833
2813.206	136.125
2815.401	145.79167
2817.594	145.125
2819.785	145.79167
2821.975	130.125
2824.164	141.125
2826.351	136.45833
2828.537	153.79167
2830.722	147.125
2832.905	148.125
2835.086	147.125
2837.267	171.125
2839.445	167.45833
2841.623	163.79167
2843.799	168.125
2845.974	174.79167
2848.147	183.125
2850.319	188.125
2852.489	194.45833
2854.659	203.125
2856.826	200.45833
2858.993	215.45833
2861.158	197.125
2863.321	200.79167
2865.483	220.125
2867.644	215.125
2869.804	216.45833
2871.962	210.79167
2874.118	213.125
2876.274	212.79167
2878.428	217.45833
2880.58	217.45833
2882.731	202.125
2884.881	207.125
2887.03	213.45833
2889.177	209.45833
2891.322	215.125
2893.467	203.125
2895.61	207.45833
2897.751	220.45833
2899.892	206.79167
2902.03	218.79167
2904.168	214.79167
2906.304	211.45833
2908.439	233.125
2910.572	207.79167
2912.704	213.79167
2914.835	224.125
2916.965	225.45833
2919.093	233.79167
2921.219	210.125
2923.345	230.125
2925.469	222.125
2927.591	211.125
2929.712	203.79167
2931.832	216.125
2933.951	203.79167
2936.068	199.79167
2938.184	197.79167
2940.299	193.125
2942.412	188.45833
2944.524	177.45833
2946.634	186.79167
2948.744	160.79167
2950.851	198.79167
2952.958	162.125
2955.063	172.45833
2957.167	161.45833
2959.269	148.45833
2961.371	179.125
2963.471	149.45833
2965.569	162.79167
2967.666	140.79167
2969.762	144.79167
2971.857	139.125
2973.95	128.45833
2976.042	144.125
2978.133	133.45833
2980.222	133.79167
2982.31	116.45833
2984.396	109.125
2986.482	118.79167
2988.566	124.45833
2990.648	113.45833
2992.73	117.45833
2994.81	106.45833
2996.889	123.79167
2998.966	118.79167
3001.042	122.79167
3003.117	110.45833
3005.191	116.79167
3007.263	121.125
3009.334	119.125
3011.403	119.79167
3013.472	112.45833
3015.539	123.79167
3017.604	128.125
3019.669	103.79167
3021.732	104.125
3023.794	115.79167
3025.854	99.79167
3027.914	94.45833
3029.971	98.45833
3032.028	101.125
3034.083	106.125
3036.137	103.45833
3038.19	92.79167
3040.242	90.45833
3042.292	89.79167
3044.341	92.45833
3046.388	113.45833
3048.435	88.125
3050.48	108.79167
3052.524	93.125
3054.566	82.79167
3056.607	96.45833
3058.647	89.45833
3060.686	78.125
3062.723	73.79167
3064.759	78.79167
3066.794	1.45833
3068.828	0.45833
3070.86	4.125
