-0.839	125.125
3.438	146.79167
7.711	64.45833
11.981	41.79167
16.247	30.45833
20.509	38.45833
24.768	34.79167
29.024	43.45833
33.276	31.45833
37.524	41.125
41.769	30.79167
46.01	25.79167
50.247	46.45833
54.481	51.125
58.712	55.125
62.939	36.45833
67.162	50.45833
71.382	46.79167
75.599	38.125
79.812	41.79167
84.021	60.79167
88.227	42.79167
92.429	53.79167
96.628	35.79167
100.823	55.125
105.015	53.79167
109.204	45.79167
113.388	57.125
117.57	42.79167
121.748	65.125
125.922	52.45833
130.093	63.125
134.261	63.79167
138.425	52.79167
142.585	87.79167
146.742	65.45833
150.896	75.125
155.046	77.45833
159.193	116.79167
163.336	167.79167
167.476	277.79167
171.613	499.45833
175.746	807.125
179.875	1184.125
184.002	1542.79167
188.124	1843.125
192.244	1948.79167
196.36	1970.45833
200.472	1949.125
204.581	1938.125
208.687	1916.45833
212.79	1912.125
216.889	1938.79167
220.984	1971.79167
225.077	2003.45833
229.165	2017.125
233.251	2045.125
237.333	2025.79167
241.412	2028.45833
245.487	2031.45833
249.559	1987.125
253.628	1970.125
257.694	1957.45833
261.756	1965.45833
265.814	1905.125
269.87	1870.79167
273.922	1810.125
277.97	1812.125
282.016	1763.79167
286.058	1713.125
290.097	1761.125
294.132	1770.125
298.164	1764.45833
302.193	1707.45833
306.219	1621.79167
310.241	1538.79167
314.26	1431.125
318.276	1361.45833
322.288	1333.79167
326.297	1305.125
330.303	1269.79167
334.305	1258.125
338.305	1261.79167
342.301	1232.125
346.294	1243.45833
350.283	1217.79167
354.269	1212.45833
358.252	1205.79167
362.232	1228.125
366.209	1217.125
370.182	1213.125
374.152	1211.125
378.119	1211.45833
382.083	1212.79167
386.043	1238.45833
390	1213.45833
393.954	1211.79167
397.905	1219.125
401.852	1229.45833
405.797	1202.125
409.738	1221.79167
413.676	1227.125
417.61	1230.79167
421.542	1210.45833
425.47	1185.125
429.396	1181.79167
433.318	1155.79167
437.236	1173.125
441.152	1207.125
445.065	1155.45833
448.974	1158.45833
452.88	1144.125
456.783	1144.125
460.683	1132.125
464.58	1154.45833
468.473	1150.125
472.364	1156.79167
476.251	1152.79167
480.135	1147.45833
484.016	1167.79167
487.894	1165.79167
491.769	1166.79167
495.641	1153.79167
499.509	1179.125
503.375	1175.125
507.237	1149.79167
511.096	1159.125
514.952	1163.79167
518.805	1149.125
522.655	1160.125
526.502	1145.79167
530.346	1152.45833
534.187	1145.79167
538.024	1144.45833
541.859	1129.125
545.69	1154.79167
549.519	1138.79167
553.344	1142.125
557.166	1119.125
560.985	1128.79167
564.802	1116.79167
568.615	1098.125
572.425	1089.79167
576.232	1086.79167
580.036	1082.125
583.836	1100.45833
587.634	1089.125
591.429	1089.45833
595.221	1119.125
599.01	1105.79167
602.796	1102.45833
606.578	1111.125
610.358	1115.45833
614.135	1114.45833
617.909	1105.45833
621.679	1114.45833
625.447	1097.45833
629.212	1091.79167
632.973	1098.79167
636.732	1098.79167
640.488	1097.125
644.241	1078.125
647.991	1078.45833
651.737	1099.79167
655.481	1077.79167
659.222	1091.79167
662.96	1093.45833
666.695	1103.45833
670.427	1095.45833
674.156	1099.125
677.882	1097.45833
681.605	1089.79167
685.325	1069.45833
689.043	1108.79167
692.757	1078.125
696.468	1074.79167
700.177	1070.125
703.882	1054.125
707.585	1037.79167
711.284	1050.125
714.981	1037.79167
718.675	1033.125
722.366	1053.45833
726.054	1021.45833
729.739	1036.45833
733.421	1037.45833
737.1	1036.125
740.777	1042.45833
744.45	1043.45833
748.121	1045.79167
751.789	1070.45833
755.453	1049.125
759.115	1056.79167
762.774	1057.125
766.431	1039.45833
770.084	1074.125
773.734	1065.125
777.382	1075.45833
781.027	1075.125
784.669	1071.125
788.308	1061.125
791.944	1089.125
795.577	1091.45833
799.208	1088.79167
802.835	1093.79167
806.46	1098.45833
810.082	1106.45833
813.701	1116.45833
817.317	1127.45833
820.931	1130.125
824.542	1106.125
828.149	1096.79167
831.754	1080.79167
835.357	1074.125
838.956	1078.45833
842.553	1073.45833
846.146	1060.125
849.737	1046.125
853.326	1045.125
856.911	1036.79167
860.493	1065.79167
864.073	1048.79167
867.65	1087.125
871.225	1097.125
874.796	1073.79167
878.365	1069.45833
881.931	1086.45833
885.494	1088.45833
889.054	1066.45833
892.612	1076.45833
896.166	1066.79167
899.719	1048.79167
903.268	1035.125
906.814	1036.125
910.358	1043.79167
913.899	1039.79167
917.438	1029.125
920.973	1010.125
924.506	1030.79167
928.036	1048.45833
931.564	1056.79167
935.088	1082.45833
938.61	1056.45833
942.129	1050.45833
945.646	1062.125
949.16	1071.125
952.671	1083.45833
956.179	1097.125
959.685	1095.79167
963.188	1140.125
966.688	1105.45833
970.185	1060.79167
973.68	1043.125
977.173	1032.79167
980.662	1015.125
984.149	1041.125
987.633	1014.125
991.114	1033.45833
994.593	1049.45833
998.069	1069.45833
1001.542	1092.79167
1005.013	1078.45833
1008.481	1010.45833
1011.947	1000.125
1015.409	977.45833
1018.869	1001.45833
1022.327	981.125
1025.782	972.79167
1029.234	966.79167
1032.683	956.45833
1036.13	944.45833
1039.574	906.45833
1043.016	897.125
1046.455	878.79167
1049.891	867.79167
1053.325	874.125
1056.756	869.79167
1060.184	871.125
1063.61	855.125
1067.033	885.79167
1070.454	873.45833
1073.872	888.79167
1077.287	865.125
1080.7	873.79167
1084.11	879.125
1087.517	875.79167
1090.922	855.125
1094.325	858.45833
1097.724	824.125
1101.122	845.45833
1104.516	839.125
1107.908	814.79167
1111.298	835.45833
1114.684	840.125
1118.069	841.45833
1121.45	861.79167
1124.83	837.125
1128.206	856.125
1131.58	866.45833
1134.951	875.79167
1138.32	875.45833
1141.687	929.79167
1145.05	945.79167
1148.412	949.125
1151.77	941.79167
1155.126	935.45833
1158.48	921.125
1161.831	934.45833
1165.18	931.125
1168.525	952.125
1171.869	950.125
1175.21	947.79167
1178.548	958.125
1181.884	963.45833
1185.217	959.125
1188.548	986.125
1191.877	996.79167
1195.202	1038.125
1198.526	1046.45833
1201.846	1043.79167
1205.165	1066.125
1208.48	1056.79167
1211.794	1047.79167
1215.104	1057.79167
1218.413	1037.45833
1221.719	1031.79167
1225.022	1020.125
1228.323	1007.45833
1231.621	1024.45833
1234.917	1003.125
1238.21	1030.45833
1241.501	1005.45833
1244.79	984.125
1248.076	979.45833
1251.359	1002.45833
1254.64	1043.125
1257.919	1006.45833
1261.195	1033.45833
1264.468	1035.79167
1267.74	1061.79167
1271.008	1050.125
1274.275	1059.45833
1277.538	1061.125
1280.8	1046.45833
1284.059	1050.45833
1287.315	1062.125
1290.569	1051.125
1293.821	1059.45833
1297.07	1066.45833
1300.317	1061.125
1303.562	1070.79167
1306.803	1061.125
1310.043	1051.125
1313.28	1051.79167
1316.515	1046.79167
1319.747	1065.45833
1322.977	1040.45833
1326.204	1042.79167
1329.429	1029.79167
1332.652	1043.125
1335.872	1037.45833
1339.09	1023.125
1342.306	1036.79167
1345.519	1026.79167
1348.729	1023.45833
1351.938	1016.45833
1355.144	1002.125
1358.347	989.125
1361.548	981.125
1364.747	989.79167
1367.944	973.125
1371.138	985.125
1374.329	969.45833
1377.518	976.45833
1380.705	969.45833
1383.89	970.79167
1387.072	954.45833
1390.252	933.79167
1393.429	892.79167
1396.605	865.125
1399.777	837.125
1402.948	832.79167
1406.116	839.45833
1409.282	820.79167
1412.445	832.45833
1415.606	838.45833
1418.765	832.45833
1421.921	856.79167
1425.075	852.79167
1428.227	873.45833
1431.376	899.79167
1434.524	927.45833
1437.668	952.45833
1440.811	956.79167
1443.951	956.45833
1447.089	963.79167
1450.224	967.79167
1453.357	953.79167
1456.488	952.125
1459.617	944.125
1462.743	938.45833
1465.867	904.45833
1468.989	904.125
1472.108	894.125
1475.225	895.125
1478.34	873.125
1481.453	886.45833
1484.563	871.79167
1487.671	881.45833
1490.776	897.125
1493.88	891.125
1496.981	903.125
1500.08	903.79167
1503.176	914.79167
1506.271	926.125
1509.363	941.45833
1512.452	939.79167
1515.54	957.79167
1518.625	956.45833
1521.708	982.79167
1524.789	1016.45833
1527.867	1044.125
1530.944	1089.79167
1534.018	1105.45833
1537.089	1143.45833
1540.159	1151.125
1543.226	1142.79167
1546.291	1124.79167
1549.354	1079.125
1552.415	1078.125
1555.473	1067.79167
1558.529	1043.45833
1561.583	1056.45833
1564.634	1028.45833
1567.684	1021.125
1570.731	1033.45833
1573.776	1055.45833
1576.819	1060.79167
1579.859	1073.125
1582.898	1074.45833
1585.934	1097.45833
1588.968	1103.125
1591.999	1082.79167
1595.029	1087.45833
1598.056	1078.45833
1601.081	1110.79167
1604.104	1101.125
1607.125	1090.45833
1610.144	1057.45833
1613.16	1041.125
1616.174	1044.45833
1619.186	1013.79167
1622.196	1000.125
1625.203	976.125
1628.209	978.45833
1631.212	983.79167
1634.213	991.45833
1637.212	999.45833
1640.209	1003.125
1643.203	983.45833
1646.196	965.79167
1649.186	902.45833
1652.174	892.45833
1655.16	851.45833
1658.144	856.79167
1661.125	819.45833
1664.105	767.45833
1667.082	743.79167
1670.057	692.79167
1673.03	668.45833
1676.001	639.125
1678.97	597.125
1681.937	565.125
1684.901	541.45833
1687.863	529.45833
1690.824	505.125
1693.782	513.125
1696.738	485.125
1699.692	481.125
1702.643	469.79167
1705.593	467.45833
1708.54	457.45833
1711.486	468.79167
1714.429	446.45833
1717.37	451.79167
1720.309	448.125
1723.246	447.79167
1726.181	434.45833
1729.113	435.125
1732.044	433.79167
1734.972	432.45833
1737.899	437.125
1740.823	438.79167
1743.745	457.45833
1746.665	412.125
1749.583	403.125
1752.499	404.125
1755.413	412.45833
1758.325	391.125
1761.235	404.79167
1764.142	384.125
1767.048	391.125
1769.951	383.125
1772.852	382.45833
1775.752	409.45833
1778.649	401.79167
1781.544	408.45833
1784.437	377.125
1787.328	382.79167
1790.217	372.45833
1793.104	363.125
1795.989	368.45833
1798.872	361.45833
1801.753	376.125
1804.631	361.125
1807.508	376.79167
1810.383	378.45833
1813.255	372.125
1816.126	374.125
1818.994	357.45833
1821.861	359.125
1824.725	363.125
1827.587	376.45833
1830.448	356.79167
1833.306	347.45833
1836.162	357.125
1839.017	351.125
1841.869	351.45833
1844.719	345.45833
1847.567	329.45833
1850.414	335.45833
1853.258	335.125
1856.1	345.125
1858.94	351.45833
1861.778	333.45833
1864.614	330.45833
1867.448	337.125
1870.28	328.45833
1873.111	347.125
1875.939	336.79167
1878.765	352.79167
1881.589	329.45833
1884.411	342.45833
1887.231	340.79167
1890.049	334.125
1892.865	345.79167
1895.68	331.125
1898.492	331.45833
1901.302	323.125
1904.11	323.45833
1906.916	323.79167
1909.721	327.45833
1912.523	334.79167
1915.323	318.125
1918.122	315.79167
1920.918	325.79167
1923.712	310.79167
1926.505	321.45833
1929.295	297.45833
1932.084	317.125
1934.87	321.45833
1937.655	307.79167
1940.438	305.79167
1943.218	314.79167
1945.997	310.79167
1948.774	314.79167
1951.549	323.45833
1954.322	305.125
1957.093	307.125
1959.862	302.79167
1962.629	300.45833
1965.394	299.45833
1968.157	288.125
1970.918	310.45833
1973.678	293.45833
1976.435	308.125
1979.19	297.125
1981.944	290.45833
1984.696	296.79167
1987.445	289.79167
1990.193	287.45833
1992.939	304.125
1995.683	294.79167
1998.425	267.79167
2001.165	307.125
2003.903	280.45833
2006.639	292.45833
2009.374	292.125
2012.106	293.125
2014.837	271.125
2017.566	291.45833
2020.292	284.125
2023.017	278.45833
2025.74	271.79167
2028.461	269.45833
2031.18	273.125
2033.898	271.45833
2036.613	281.45833
2039.327	284.125
2042.038	268.79167
2044.748	277.125
2047.456	277.79167
2050.162	259.45833
2052.866	268.45833
2055.568	281.45833
2058.268	267.79167
2060.967	271.125
2063.663	255.125
2066.358	261.45833
2069.051	261.45833
2071.742	259.125
2074.431	270.125
2077.118	263.45833
2079.804	246.79167
2082.487	255.79167
2085.169	266.125
2087.849	284.125
2090.527	262.45833
2093.203	264.125
2095.877	256.45833
2098.55	263.125
2101.22	275.45833
2103.889	268.125
2106.556	264.125
2109.221	274.45833
2111.884	274.45833
2114.546	288.45833
2117.205	293.45833
2119.863	311.79167
2122.519	308.79167
2125.173	324.79167
2127.825	359.45833
2130.475	361.125
2133.124	342.45833
2135.771	332.125
2138.416	343.125
2141.059	306.45833
2143.7	310.45833
2146.339	297.79167
2148.977	270.79167
2151.613	281.79167
2154.247	282.45833
2156.879	270.45833
2159.51	256.125
2162.138	262.79167
2164.765	258.45833
2167.39	247.45833
2170.013	268.125
2172.634	263.45833
2175.254	249.79167
2177.872	288.79167
2180.488	233.45833
2183.102	246.125
2185.714	250.125
2188.325	238.45833
2190.934	241.45833
2193.541	250.45833
2196.146	237.45833
2198.75	224.45833
2201.351	229.125
2203.951	219.79167
2206.549	235.45833
2209.146	222.45833
2211.74	222.125
2214.333	229.125
2216.924	214.45833
2219.514	223.45833
2222.101	210.45833
2224.687	231.45833
2227.271	204.79167
2229.853	207.45833
2232.433	206.45833
2235.012	222.45833
2237.589	216.45833
2240.164	230.45833
2242.738	212.45833
2245.309	206.125
2247.879	224.45833
2250.448	222.79167
2253.014	208.79167
2255.579	193.79167
2258.142	201.79167
2260.703	205.45833
2263.262	194.45833
2265.82	190.125
2268.376	209.79167
2270.93	199.79167
2273.483	190.79167
2276.033	201.79167
2278.583	188.45833
2281.13	192.79167
2283.675	190.45833
2286.219	191.79167
2288.761	199.125
2291.302	205.45833
2293.841	207.125
2296.377	186.79167
2298.913	196.79167
2301.446	206.79167
2303.978	192.79167
2306.508	195.79167
2309.037	192.79167
2311.563	189.125
2314.088	190.125
2316.612	180.45833
2319.133	192.45833
2321.653	200.79167
2324.171	181.79167
2326.688	195.45833
2329.202	187.79167
2331.715	187.79167
2334.227	186.79167
2336.736	185.79167
2339.244	180.79167
2341.751	162.79167
2344.255	191.79167
2346.758	182.79167
2349.259	175.79167
2351.759	181.45833
2354.257	169.125
2356.753	172.79167
2359.247	177.125
2361.74	175.125
2364.231	178.45833
2366.721	186.79167
2369.209	174.125
2371.695	178.125
2374.179	166.125
2376.662	165.45833
2379.143	184.45833
2381.622	174.79167
2384.1	183.125
2386.576	171.79167
2389.051	186.79167
2391.524	178.79167
2393.995	176.125
2396.464	169.125
2398.932	168.45833
2401.398	169.125
2403.863	163.45833
2406.325	165.125
2408.787	173.125
2411.246	175.79167
2413.704	168.125
2416.16	160.45833
2418.615	166.79167
2421.068	165.79167
2423.519	168.79167
2425.969	160.45833
2428.417	173.125
2430.863	190.45833
2433.308	172.79167
2435.751	170.45833
2438.193	166.125
2440.633	166.125
2443.071	173.45833
2445.508	157.79167
2447.943	165.125
2450.376	150.45833
2452.808	163.125
2455.238	152.79167
2457.667	190.45833
2460.093	155.45833
2462.519	146.125
2464.942	151.79167
2467.365	158.125
2469.785	160.45833
2472.204	152.125
2474.621	158.125
2477.037	172.45833
2479.451	144.45833
2481.863	145.125
2484.274	149.45833
2486.683	152.79167
2489.091	159.79167
2491.497	162.125
2493.901	159.79167
2496.304	150.125
2498.705	164.79167
2501.105	153.79167
2503.503	175.125
2505.899	147.45833
2508.294	172.45833
2510.687	146.125
2513.079	157.79167
2515.469	143.79167
2517.858	149.79167
2520.245	163.125
2522.63	145.79167
2525.014	147.79167
2527.396	143.125
2529.776	144.79167
2532.156	154.79167
2534.533	141.125
2536.909	138.79167
2539.283	132.45833
2541.656	142.125
2544.027	159.45833
2546.397	146.79167
2548.765	139.45833
2551.131	149.125
2553.496	146.45833
2555.86	151.125
2558.221	152.45833
2560.582	142.125
2562.94	134.45833
2565.298	141.45833
2567.653	150.125
2570.007	136.125
2572.36	152.79167
2574.711	141.45833
2577.06	157.125
2579.408	145.125
2581.754	137.45833
2584.099	140.45833
2586.442	135.45833
2588.784	147.79167
2591.124	144.79167
2593.463	136.125
2595.8	138.125
2598.135	126.79167
2600.469	133.125
2602.802	148.45833
2605.133	153.45833
2607.462	130.79167
2609.79	129.125
2612.116	148.125
2614.441	135.125
2616.764	136.79167
2619.086	140.45833
2621.406	138.45833
2623.725	150.45833
2626.042	136.45833
2628.358	133.45833
2630.672	132.79167
2632.985	148.79167
2635.296	137.79167
2637.606	133.79167
2639.914	128.125
2642.22	134.79167
2644.525	137.79167
2646.829	133.125
2649.131	153.79167
2651.432	141.125
2653.731	134.125
2656.028	144.79167
2658.324	138.45833
2660.619	125.125
2662.912	143.125
2665.204	120.45833
2667.494	140.79167
2669.782	127.45833
2672.07	144.45833
2674.355	141.45833
2676.639	136.125
2678.922	130.125
2681.203	137.79167
2683.483	130.45833
2685.761	124.45833
2688.038	149.45833
2690.313	150.45833
2692.587	132.125
2694.859	128.125
2697.13	133.45833
2699.399	135.125
2701.667	143.45833
2703.933	135.79167
2706.198	149.79167
2708.461	143.45833
2710.723	147.125
2712.984	141.79167
2715.243	143.125
2717.5	134.79167
2719.757	146.79167
2722.011	142.79167
2724.264	146.125
2726.516	153.45833
2728.766	136.125
2731.015	142.125
2733.262	142.45833
2735.508	135.79167
2737.753	144.79167
2739.996	130.125
2742.237	133.125
2744.477	142.45833
2746.716	152.45833
2748.953	146.79167
2751.189	149.125
2753.423	136.45833
2755.656	131.79167
2757.887	127.79167
2760.117	134.125
2762.346	121.45833
2764.573	122.45833
2766.798	125.45833
2769.022	126.45833
2771.245	120.45833
2773.467	133.79167
2775.686	127.125
2777.905	130.125
2780.122	129.79167
2782.337	130.79167
2784.552	125.79167
2786.764	131.79167
2788.976	127.45833
2791.186	132.79167
2793.394	129.45833
2795.601	141.45833
2797.807	140.79167
2800.011	139.45833
2802.214	142.125
2804.415	131.125
2806.615	133.45833
2808.814	140.45833
2811.011	141.45833
2813.206	139.125
2815.401	150.45833
2817.594	148.45833
2819.785	148.45833
2821.975	141.125
2824.164	141.45833
2826.351	143.125
2828.537	157.79167
2830.722	158.125
2832.905	147.79167
2835.086	154.79167
2837.267	177.125
2839.445	162.125
2841.623	170.79167
2843.799	178.125
2845.974	185.125
2848.147	183.79167
2850.319	191.79167
2852.489	205.45833
2854.659	208.125
2856.826	203.125
2858.993	221.79167
2861.158	198.125
2863.321	210.45833
2865.483	226.45833
2867.644	216.79167
2869.804	213.45833
2871.962	214.125
2874.118	214.79167
2876.274	219.125
2878.428	220.79167
2880.58	226.45833
2882.731	206.79167
2884.881	213.79167
2887.03	221.45833
2889.177	211.79167
2891.322	227.125
2893.467	213.45833
2895.61	210.45833
2897.751	228.125
2899.892	220.79167
2902.03	228.125
2904.168	212.79167
2906.304	222.45833
2908.439	234.79167
2910.572	218.45833
2912.704	226.79167
2914.835	236.79167
2916.965	232.45833
2919.093	243.125
2921.219	208.125
2923.345	239.45833
2925.469	226.45833
2927.591	225.45833
2929.712	207.125
2931.832	218.45833
2933.951	210.45833
2936.068	206.125
2938.184	205.79167
2940.299	203.79167
2942.412	192.45833
2944.524	180.79167
2946.634	189.45833
2948.744	165.45833
2950.851	197.79167
2952.958	168.125
2955.063	175.79167
2957.167	161.79167
2959.269	154.45833
2961.371	182.45833
2963.471	154.45833
2965.569	166.79167
2967.666	147.125
2969.762	150.125
2971.857	142.45833
2973.95	142.45833
2976.042	146.45833
2978.133	136.45833
2980.222	137.45833
2982.31	124.125
2984.396	114.125
2986.482	118.45833
2988.566	129.45833
2990.648	126.45833
2992.73	117.79167
2994.81	110.79167
2996.889	125.45833
2998.966	119.125
3001.042	127.125
3003.117	114.45833
3005.191	118.79167
3007.263	125.125
3009.334	116.125
3011.403	120.125
3013.472	109.125
3015.539	122.79167
3017.604	134.79167
3019.669	107.125
3021.732	112.125
3023.794	116.125
3025.854	103.125
3027.914	103.125
3029.971	102.125
3032.028	103.79167
3034.083	113.45833
3036.137	111.45833
3038.19	90.79167
3040.242	93.125
3042.292	91.79167
3044.341	99.45833
3046.388	114.125
3048.435	87.125
3050.48	111.45833
3052.524	98.79167
3054.566	85.45833
3056.607	96.125
3058.647	93.125
3060.686	80.125
3062.723	78.125
3064.759	79.79167
3066.794	2.125
3068.828	1.125
3070.86	3.45833
