-0.839	127.20833
3.438	146.54167
7.711	62.20833
11.981	44.20833
16.247	32.20833
20.509	36.54167
24.768	34.54167
29.024	44.875
33.276	31.54167
37.524	39.20833
41.769	29.875
46.01	26.875
50.247	45.54167
54.481	52.54167
58.712	51.54167
62.939	37.875
67.162	52.875
71.382	45.20833
75.599	36.875
79.812	41.875
84.021	61.875
88.227	40.20833
92.429	49.875
96.628	41.54167
100.823	50.875
105.015	52.54167
109.204	47.54167
113.388	57.20833
117.57	41.20833
121.748	62.54167
125.922	51.54167
130.093	64.20833
134.261	61.54167
138.425	53.20833
142.585	83.54167
146.742	67.54167
150.896	79.20833
155.046	70.54167
159.193	103.20833
163.336	151.20833
167.476	263.875
171.613	473.20833
175.746	770.875
179.875	1117.54167
184.002	1440.54167
188.124	1733.54167
192.244	1816.54167
196.36	1828.20833
200.472	1836.54167
204.581	1834.875
208.687	1768.20833
212.79	1784.54167
216.889	1810.20833
220.984	1831.875
225.077	1850.875
229.165	1869.875
233.251	1876.875
237.333	1892.54167
241.412	1885.54167
245.487	1863.875
249.559	1843.20833
253.628	1828.875
257.694	1806.875
261.756	1805.54167
265.814	1764.875
269.87	1714.54167
273.922	1675.875
277.97	1649.875
282.016	1633.875
286.058	1597.875
290.097	1615.54167
294.132	1622.20833
298.164	1624.54167
302.193	1573.20833
306.219	1498.20833
310.241	1392.54167
314.26	1313.875
318.276	1232.875
322.288	1208.20833
326.297	1154.20833
330.303	1145.20833
334.305	1127.875
338.305	1108.875
342.301	1117.54167
346.294	1103.20833
350.283	1091.875
354.269	1107.54167
358.252	1081.875
362.232	1084.20833
366.209	1088.20833
370.182	1071.20833
374.152	1063.20833
378.119	1087.875
382.083	1072.54167
386.043	1082.875
390	1075.20833
393.954	1084.20833
397.905	1073.54167
401.852	1088.875
405.797	1072.875
409.738	1073.54167
413.676	1093.54167
417.61	1090.54167
421.542	1081.875
425.47	1054.20833
429.396	1040.875
433.318	1031.875
437.236	1042.20833
441.152	1069.54167
445.065	1022.20833
448.974	1031.875
452.88	1011.875
456.783	1009.20833
460.683	1001.875
464.58	1022.54167
468.473	1010.54167
472.364	1012.875
476.251	1010.54167
480.135	1027.875
484.016	1041.875
487.894	1031.54167
491.769	1027.875
495.641	1030.20833
499.509	1036.875
503.375	1031.20833
507.237	1032.875
511.096	1029.54167
514.952	1035.875
518.805	1048.54167
522.655	1031.54167
526.502	1019.54167
530.346	1027.875
534.187	1024.20833
538.024	1024.20833
541.859	1012.54167
545.69	1035.54167
549.519	1020.875
553.344	1009.875
557.166	1005.20833
560.985	988.20833
564.802	1000.875
568.615	991.54167
572.425	965.54167
576.232	958.54167
580.036	957.875
583.836	964.20833
587.634	978.875
591.429	965.20833
595.221	1000.875
599.01	978.20833
602.796	990.875
606.578	998.875
610.358	1011.20833
614.135	996.875
617.909	994.875
621.679	982.20833
625.447	974.54167
629.212	977.20833
632.973	988.875
636.732	979.875
640.488	997.20833
644.241	951.875
647.991	954.54167
651.737	983.20833
655.481	947.20833
659.222	963.875
662.96	969.54167
666.695	970.875
670.427	974.875
674.156	979.20833
677.882	967.20833
681.605	970.54167
685.325	949.54167
689.043	971.875
692.757	956.875
696.468	959.875
700.177	949.54167
703.882	929.875
707.585	934.875
711.284	930.20833
714.981	913.875
718.675	921.875
722.366	940.54167
726.054	925.54167
729.739	914.54167
733.421	925.20833
737.1	917.20833
740.777	937.875
744.45	926.20833
748.121	917.875
751.789	950.20833
755.453	938.875
759.115	949.54167
762.774	956.20833
766.431	951.20833
770.084	955.54167
773.734	959.875
777.382	971.20833
781.027	970.20833
784.669	976.54167
788.308	965.54167
791.944	980.54167
795.577	983.54167
799.208	985.54167
802.835	983.875
806.46	994.54167
810.082	1013.875
813.701	999.20833
817.317	1006.875
820.931	1011.54167
824.542	1010.875
828.149	993.54167
831.754	974.54167
835.357	960.20833
838.956	980.875
842.553	966.20833
846.146	968.875
849.737	952.54167
853.326	959.875
856.911	935.54167
860.493	961.875
864.073	962.54167
867.65	989.875
871.225	981.20833
874.796	982.20833
878.365	972.54167
881.931	987.20833
885.494	984.875
889.054	981.54167
892.612	985.54167
896.166	963.20833
899.719	954.54167
903.268	943.54167
906.814	939.54167
910.358	948.54167
913.899	931.875
917.438	944.54167
920.973	901.875
924.506	935.54167
928.036	957.20833
931.564	957.20833
935.088	985.875
938.61	955.20833
942.129	970.875
945.646	971.20833
949.16	967.20833
952.671	993.54167
956.179	1007.54167
959.685	999.875
963.188	1023.54167
966.688	1013.875
970.185	965.20833
973.68	950.875
977.173	949.875
980.662	924.875
984.149	941.875
987.633	919.20833
991.114	939.54167
994.593	948.54167
998.069	959.875
1001.542	980.54167
1005.013	977.54167
1008.481	918.875
1011.947	898.54167
1015.409	887.875
1018.869	905.54167
1022.327	902.20833
1025.782	883.875
1029.234	887.54167
1032.683	876.875
1036.13	859.20833
1039.574	834.875
1043.016	818.54167
1046.455	807.54167
1049.891	789.20833
1053.325	801.875
1056.756	795.20833
1060.184	801.20833
1063.61	773.20833
1067.033	797.54167
1070.454	796.875
1073.872	804.20833
1077.287	787.875
1080.7	797.875
1084.11	795.54167
1087.517	791.54167
1090.922	795.54167
1094.325	761.54167
1097.724	755.875
1101.122	766.20833
1104.516	765.54167
1107.908	762.54167
1111.298	749.54167
1114.684	761.875
1118.069	769.54167
1121.45	792.875
1124.83	773.875
1128.206	776.54167
1131.58	795.20833
1134.951	808.875
1138.32	805.54167
1141.687	856.20833
1145.05	867.54167
1148.412	867.875
1151.77	851.54167
1155.126	867.875
1158.48	841.54167
1161.831	846.875
1165.18	847.54167
1168.525	853.20833
1171.869	870.875
1175.21	873.20833
1178.548	887.54167
1181.884	889.875
1185.217	900.20833
1188.548	920.20833
1191.877	928.20833
1195.202	965.54167
1198.526	987.54167
1201.846	970.20833
1205.165	981.54167
1208.48	984.20833
1211.794	976.54167
1215.104	976.20833
1218.413	965.20833
1221.719	969.875
1225.022	936.875
1228.323	913.875
1231.621	945.20833
1234.917	941.20833
1238.21	963.54167
1241.501	939.875
1244.79	919.875
1248.076	893.875
1251.359	937.20833
1254.64	970.20833
1257.919	954.20833
1261.195	958.54167
1264.468	969.20833
1267.74	979.875
1271.008	976.54167
1274.275	973.875
1277.538	983.20833
1280.8	977.20833
1284.059	985.54167
1287.315	988.875
1290.569	980.20833
1293.821	1003.20833
1297.07	997.20833
1300.317	984.875
1303.562	991.20833
1306.803	981.20833
1310.043	997.875
1313.28	978.20833
1316.515	977.20833
1319.747	985.875
1322.977	977.20833
1326.204	968.54167
1329.429	954.20833
1332.652	966.875
1335.872	954.875
1339.09	938.54167
1342.306	942.54167
1345.519	941.54167
1348.729	938.875
1351.938	952.54167
1355.144	935.20833
1358.347	907.875
1361.548	925.875
1364.747	916.54167
1367.944	885.20833
1371.138	903.875
1374.329	897.20833
1377.518	904.20833
1380.705	905.875
1383.89	891.875
1387.072	870.875
1390.252	844.54167
1393.429	820.20833
1396.605	808.875
1399.777	782.54167
1402.948	781.20833
1406.116	759.20833
1409.282	769.875
1412.445	764.20833
1415.606	769.875
1418.765	772.875
1421.921	794.20833
1425.075	785.875
1428.227	809.875
1431.376	831.875
1434.524	870.875
1437.668	890.875
1440.811	888.875
1443.951	905.54167
1447.089	910.20833
1450.224	905.54167
1453.357	901.875
1456.488	896.875
1459.617	882.875
1462.743	871.20833
1465.867	845.54167
1468.989	852.20833
1472.108	835.875
1475.225	835.875
1478.34	812.54167
1481.453	807.54167
1484.563	813.20833
1487.671	818.54167
1490.776	831.20833
1493.88	827.20833
1496.981	859.875
1500.08	849.20833
1503.176	855.54167
1506.271	878.54167
1509.363	886.54167
1512.452	875.20833
1515.54	887.54167
1518.625	898.875
1521.708	927.875
1524.789	951.875
1527.867	969.875
1530.944	1019.20833
1534.018	1039.20833
1537.089	1083.20833
1540.159	1099.875
1543.226	1090.875
1546.291	1063.54167
1549.354	1058.875
1552.415	1036.875
1555.473	1006.875
1558.529	998.20833
1561.583	1002.875
1564.634	971.54167
1567.684	973.20833
1570.731	970.54167
1573.776	992.54167
1576.819	1008.875
1579.859	1003.54167
1582.898	1009.875
1585.934	1046.875
1588.968	1044.875
1591.999	1028.20833
1595.029	1020.54167
1598.056	1037.20833
1601.081	1052.54167
1604.104	1041.875
1607.125	1016.20833
1610.144	1008.20833
1613.16	970.20833
1616.174	964.875
1619.186	960.20833
1622.196	935.54167
1625.203	910.20833
1628.209	925.54167
1631.212	917.875
1634.213	917.20833
1637.212	931.875
1640.209	942.54167
1643.203	902.20833
1646.196	882.20833
1649.186	824.54167
1652.174	822.54167
1655.16	787.20833
1658.144	776.875
1661.125	748.875
1664.105	721.54167
1667.082	684.20833
1670.057	639.875
1673.03	615.20833
1676.001	575.54167
1678.97	552.20833
1681.937	530.875
1684.901	499.875
1687.863	493.54167
1690.824	460.20833
1693.782	477.875
1696.738	441.54167
1699.692	443.875
1702.643	424.54167
1705.593	427.54167
1708.54	423.875
1711.486	422.20833
1714.429	404.875
1717.37	421.875
1720.309	398.875
1723.246	405.20833
1726.181	398.20833
1729.113	395.875
1732.044	396.875
1734.972	391.54167
1737.899	402.54167
1740.823	407.875
1743.745	413.875
1746.665	373.875
1749.583	384.54167
1752.499	369.20833
1755.413	368.20833
1758.325	353.875
1761.235	371.20833
1764.142	349.54167
1767.048	354.20833
1769.951	347.20833
1772.852	347.54167
1775.752	362.875
1778.649	366.20833
1781.544	369.875
1784.437	333.875
1787.328	353.875
1790.217	352.20833
1793.104	325.875
1795.989	325.20833
1798.872	318.20833
1801.753	341.54167
1804.631	335.20833
1807.508	337.20833
1810.383	328.54167
1813.255	331.54167
1816.126	323.875
1818.994	325.20833
1821.861	320.20833
1824.725	317.875
1827.587	336.54167
1830.448	328.54167
1833.306	314.20833
1836.162	335.20833
1839.017	314.20833
1841.869	314.54167
1844.719	323.875
1847.567	304.54167
1850.414	300.875
1853.258	300.20833
1856.1	319.875
1858.94	321.875
1861.778	310.54167
1864.614	300.54167
1867.448	310.875
1870.28	297.54167
1873.111	317.20833
1875.939	301.20833
1878.765	321.875
1881.589	294.54167
1884.411	300.875
1887.231	314.20833
1890.049	313.20833
1892.865	314.20833
1895.68	298.875
1898.492	305.54167
1901.302	308.20833
1904.11	290.875
1906.916	288.875
1909.721	286.54167
1912.523	300.875
1915.323	294.20833
1918.122	281.20833
1920.918	304.20833
1923.712	278.20833
1926.505	289.875
1929.295	273.54167
1932.084	286.875
1934.87	293.20833
1937.655	283.875
1940.438	277.20833
1943.218	280.875
1945.997	285.20833
1948.774	294.54167
1951.549	294.20833
1954.322	276.20833
1957.093	280.54167
1959.862	270.875
1962.629	274.54167
1965.394	272.54167
1968.157	259.54167
1970.918	284.54167
1973.678	266.20833
1976.435	282.54167
1979.19	270.875
1981.944	258.54167
1984.696	267.54167
1987.445	266.20833
1990.193	267.20833
1992.939	269.20833
1995.683	268.875
1998.425	245.875
2001.165	282.875
2003.903	245.20833
2006.639	255.54167
2009.374	264.20833
2012.106	265.875
2014.837	238.20833
2017.566	265.54167
2020.292	255.54167
2023.017	256.54167
2025.74	244.20833
2028.461	245.20833
2031.18	256.20833
2033.898	246.54167
2036.613	250.54167
2039.327	253.54167
2042.038	245.875
2044.748	249.54167
2047.456	253.875
2050.162	240.20833
2052.866	241.875
2055.568	257.54167
2058.268	243.54167
2060.967	256.54167
2063.663	232.20833
2066.358	237.20833
2069.051	237.20833
2071.742	243.20833
2074.431	253.54167
2077.118	239.875
2079.804	223.20833
2082.487	243.20833
2085.169	255.54167
2087.849	258.875
2090.527	232.20833
2093.203	234.20833
2095.877	242.20833
2098.55	244.54167
2101.22	248.54167
2103.889	256.54167
2106.556	242.20833
2109.221	258.20833
2111.884	247.875
2114.546	263.875
2117.205	267.875
2119.863	300.875
2122.519	286.54167
2125.173	308.20833
2127.825	341.54167
2130.475	328.20833
2133.124	323.20833
2135.771	311.20833
2138.416	325.54167
2141.059	292.54167
2143.7	297.875
2146.339	270.54167
2148.977	244.20833
2151.613	262.20833
2154.247	256.20833
2156.879	256.875
2159.51	232.875
2162.138	240.54167
2164.765	231.20833
2167.39	224.875
2170.013	249.20833
2172.634	247.54167
2175.254	228.20833
2177.872	266.54167
2180.488	223.54167
2183.102	226.20833
2185.714	228.54167
2188.325	216.875
2190.934	224.54167
2193.541	234.54167
2196.146	220.20833
2198.75	208.20833
2201.351	208.20833
2203.951	196.875
2206.549	213.875
2209.146	206.54167
2211.74	200.20833
2214.333	215.54167
2216.924	196.20833
2219.514	203.875
2222.101	198.54167
2224.687	217.875
2227.271	198.875
2229.853	194.20833
2232.433	183.875
2235.012	206.54167
2237.589	200.875
2240.164	212.20833
2242.738	197.875
2245.309	189.875
2247.879	209.54167
2250.448	199.20833
2253.014	182.875
2255.579	180.20833
2258.142	186.20833
2260.703	186.54167
2263.262	183.54167
2265.82	177.20833
2268.376	197.20833
2270.93	184.54167
2273.483	173.875
2276.033	191.54167
2278.583	178.54167
2281.13	175.875
2283.675	176.54167
2286.219	177.875
2288.761	187.54167
2291.302	192.875
2293.841	196.20833
2296.377	167.875
2298.913	181.54167
2301.446	188.20833
2303.978	178.54167
2306.508	175.54167
2309.037	177.875
2311.563	182.54167
2314.088	170.54167
2316.612	162.875
2319.133	179.54167
2321.653	176.875
2324.171	171.875
2326.688	186.54167
2329.202	172.54167
2331.715	178.875
2334.227	176.54167
2336.736	171.875
2339.244	167.20833
2341.751	162.54167
2344.255	176.20833
2346.758	172.54167
2349.259	161.54167
2351.759	171.20833
2354.257	163.20833
2356.753	157.20833
2359.247	160.875
2361.74	169.20833
2364.231	162.875
2366.721	168.54167
2369.209	161.20833
2371.695	159.875
2374.179	159.54167
2376.662	152.54167
2379.143	170.54167
2381.622	155.20833
2384.1	168.875
2386.576	163.54167
2389.051	173.20833
2391.524	173.875
2393.995	166.20833
2396.464	157.875
2398.932	158.875
2401.398	156.20833
2403.863	153.54167
2406.325	151.875
2408.787	158.54167
2411.246	155.20833
2413.704	154.20833
2416.16	151.20833
2418.615	153.20833
2421.068	164.875
2423.519	159.20833
2425.969	147.54167
2428.417	163.20833
2430.863	173.875
2433.308	163.875
2435.751	158.54167
2438.193	155.54167
2440.633	156.875
2443.071	162.54167
2445.508	151.20833
2447.943	150.54167
2450.376	142.20833
2452.808	158.20833
2455.238	144.875
2457.667	176.20833
2460.093	145.54167
2462.519	136.54167
2464.942	138.54167
2467.365	154.20833
2469.785	154.875
2472.204	139.54167
2474.621	146.54167
2477.037	164.54167
2479.451	132.875
2481.863	135.20833
2484.274	137.20833
2486.683	146.20833
2489.091	156.54167
2491.497	151.20833
2493.901	148.20833
2496.304	144.20833
2498.705	154.54167
2501.105	146.54167
2503.503	163.875
2505.899	138.20833
2508.294	153.875
2510.687	144.54167
2513.079	141.20833
2515.469	135.875
2517.858	140.54167
2520.245	151.875
2522.63	144.875
2525.014	134.875
2527.396	134.875
2529.776	137.54167
2532.156	148.20833
2534.533	131.54167
2536.909	132.54167
2539.283	124.54167
2541.656	136.20833
2544.027	150.875
2546.397	135.54167
2548.765	135.20833
2551.131	137.875
2553.496	144.20833
2555.86	139.875
2558.221	144.20833
2560.582	132.20833
2562.94	124.54167
2565.298	137.54167
2567.653	146.54167
2570.007	127.20833
2572.36	140.20833
2574.711	130.20833
2577.06	149.54167
2579.408	140.54167
2581.754	133.20833
2584.099	129.875
2586.442	131.54167
2588.784	137.20833
2591.124	137.54167
2593.463	128.54167
2595.8	137.20833
2598.135	122.54167
2600.469	123.20833
2602.802	142.20833
2605.133	140.54167
2607.462	123.54167
2609.79	118.54167
2612.116	137.875
2614.441	126.875
2616.764	132.54167
2619.086	129.20833
2621.406	126.20833
2623.725	139.875
2626.042	125.54167
2628.358	123.20833
2630.672	129.20833
2632.985	136.54167
2635.296	130.875
2637.606	128.20833
2639.914	129.54167
2642.22	121.875
2644.525	123.875
2646.829	133.54167
2649.131	140.20833
2651.432	136.20833
2653.731	126.875
2656.028	137.54167
2658.324	129.54167
2660.619	117.54167
2662.912	134.875
2665.204	117.875
2667.494	128.54167
2669.782	121.875
2672.07	136.875
2674.355	134.54167
2676.639	134.20833
2678.922	124.20833
2681.203	134.54167
2683.483	123.20833
2685.761	118.54167
2688.038	138.875
2690.313	139.54167
2692.587	125.54167
2694.859	121.20833
2697.13	126.20833
2699.399	134.875
2701.667	131.875
2703.933	127.54167
2706.198	139.20833
2708.461	133.20833
2710.723	133.875
2712.984	131.875
2715.243	144.20833
2717.5	130.20833
2719.757	136.54167
2722.011	133.20833
2724.264	140.20833
2726.516	148.20833
2728.766	121.20833
2731.015	131.20833
2733.262	131.20833
2735.508	130.54167
2737.753	137.875
2739.996	122.875
2742.237	122.54167
2744.477	137.20833
2746.716	147.54167
2748.953	136.875
2751.189	142.54167
2753.423	138.20833
2755.656	127.54167
2757.887	114.20833
2760.117	126.875
2762.346	122.20833
2764.573	110.875
2766.798	121.54167
2769.022	121.54167
2771.245	122.20833
2773.467	122.875
2775.686	120.54167
2777.905	134.20833
2780.122	124.54167
2782.337	129.54167
2784.552	123.875
2786.764	122.875
2788.976	117.20833
2791.186	127.54167
2793.394	124.875
2795.601	138.54167
2797.807	136.54167
2800.011	126.875
2802.214	137.875
2804.415	131.875
2806.615	129.875
2808.814	129.54167
2811.011	136.875
2813.206	138.54167
2815.401	145.875
2817.594	145.54167
2819.785	147.54167
2821.975	131.54167
2824.164	142.875
2826.351	134.875
2828.537	150.875
2830.722	153.20833
2832.905	148.54167
2835.086	153.20833
2837.267	166.875
2839.445	166.20833
2841.623	170.20833
2843.799	172.54167
2845.974	179.875
2848.147	175.875
2850.319	192.875
2852.489	195.54167
2854.659	194.54167
2856.826	193.54167
2858.993	220.875
2861.158	194.20833
2863.321	201.875
2865.483	216.54167
2867.644	214.875
2869.804	213.20833
2871.962	205.875
2874.118	210.20833
2876.274	219.875
2878.428	213.875
2880.58	216.54167
2882.731	197.875
2884.881	210.54167
2887.03	218.20833
2889.177	213.54167
2891.322	213.875
2893.467	200.54167
2895.61	203.54167
2897.751	220.875
2899.892	211.20833
2902.03	212.20833
2904.168	210.54167
2906.304	213.54167
2908.439	232.54167
2910.572	209.875
2912.704	215.54167
2914.835	216.20833
2916.965	218.20833
2919.093	238.20833
2921.219	203.54167
2923.345	237.54167
2925.469	216.20833
2927.591	214.875
2929.712	200.54167
2931.832	212.20833
2933.951	205.20833
2936.068	197.875
2938.184	200.20833
2940.299	194.875
2942.412	190.875
2944.524	170.20833
2946.634	181.54167
2948.744	159.20833
2950.851	196.20833
2952.958	162.20833
2955.063	169.20833
2957.167	162.20833
2959.269	147.54167
2961.371	181.54167
2963.471	150.54167
2965.569	165.20833
2967.666	140.20833
2969.762	139.875
2971.857	137.54167
2973.95	132.54167
2976.042	139.54167
2978.133	131.875
2980.222	135.875
2982.31	126.20833
2984.396	106.54167
2986.482	121.54167
2988.566	117.54167
2990.648	115.875
2992.73	116.20833
2994.81	110.20833
2996.889	121.875
2998.966	114.20833
3001.042	123.875
3003.117	106.54167
3005.191	114.875
3007.263	120.20833
3009.334	117.20833
3011.403	118.875
3013.472	103.875
3015.539	120.20833
3017.604	127.20833
3019.669	99.875
3021.732	109.54167
3023.794	103.875
3025.854	98.875
3027.914	98.20833
3029.971	96.875
3032.028	100.875
3034.083	106.54167
3036.137	104.54167
3038.19	90.875
3040.242	87.20833
3042.292	87.20833
3044.341	97.875
3046.388	109.875
3048.435	83.20833
3050.48	98.54167
3052.524	97.20833
3054.566	78.54167
3056.607	91.875
3058.647	91.875
3060.686	78.875
3062.723	72.20833
3064.759	82.875
3066.794	0.54167
3068.828	0.54167
3070.86	2.20833
