-0.839	135.5
3.438	151.16667
7.711	68.83333
11.981	42.83333
16.247	32.16667
20.509	38.16667
24.768	33.83333
29.024	41.16667
33.276	32.83333
37.524	41.16667
41.769	27.83333
46.01	25.83333
50.247	45.5
54.481	52.16667
58.712	54.83333
62.939	34.83333
67.162	52.5
71.382	49.83333
75.599	34.83333
79.812	42.5
84.021	67.5
88.227	39.5
92.429	47.83333
96.628	35.5
100.823	53.83333
105.015	51.16667
109.204	50.16667
113.388	60.5
117.57	43.16667
121.748	62.83333
125.922	46.83333
130.093	66.83333
134.261	61.83333
138.425	57.5
142.585	83.5
146.742	65.5
150.896	79.16667
155.046	76.5
159.193	112.16667
163.336	162.5
167.476	278.16667
171.613	504.16667
175.746	791.83333
179.875	1156.16667
184.002	1506.16667
188.124	1793.83333
192.244	1899.16667
196.36	1909.16667
200.472	1905.83333
204.581	1877.16667
208.687	1846.83333
212.79	1822.5
216.889	1873.5
220.984	1899.5
225.077	1898.5
229.165	1905.16667
233.251	1936.5
237.333	1942.83333
241.412	1913.5
245.487	1930.83333
249.559	1884.16667
253.628	1872.16667
257.694	1843.83333
261.756	1850.83333
265.814	1809.5
269.87	1767.16667
273.922	1719.16667
277.97	1679.5
282.016	1650.83333
286.058	1611.16667
290.097	1619.5
294.132	1618.5
298.164	1633.5
302.193	1585.83333
306.219	1502.83333
310.241	1416.16667
314.26	1311.16667
318.276	1250.5
322.288	1233.16667
326.297	1179.16667
330.303	1141.16667
334.305	1144.83333
338.305	1129.5
342.301	1132.5
346.294	1122.5
350.283	1114.16667
354.269	1108.83333
358.252	1106.16667
362.232	1108.83333
366.209	1119.83333
370.182	1086.5
374.152	1090.83333
378.119	1104.5
382.083	1084.16667
386.043	1095.16667
390	1079.83333
393.954	1101.5
397.905	1107.16667
401.852	1120.5
405.797	1079.16667
409.738	1093.83333
413.676	1087.16667
417.61	1112.16667
421.542	1086.5
425.47	1062.5
429.396	1065.16667
433.318	1046.83333
437.236	1050.16667
441.152	1077.83333
445.065	1028.5
448.974	1039.16667
452.88	1033.83333
456.783	1030.5
460.683	1019.5
464.58	1034.5
468.473	1044.16667
472.364	1038.16667
476.251	1023.5
480.135	1047.83333
484.016	1058.16667
487.894	1060.83333
491.769	1052.83333
495.641	1050.83333
499.509	1053.16667
503.375	1055.5
507.237	1040.16667
511.096	1048.5
514.952	1068.83333
518.805	1060.16667
522.655	1078.83333
526.502	1056.16667
530.346	1059.16667
534.187	1060.16667
538.024	1047.16667
541.859	1045.16667
545.69	1055.5
549.519	1030.83333
553.344	1037.16667
557.166	1017.5
560.985	1018.5
564.802	1024.16667
568.615	1001.16667
572.425	979.5
576.232	991.83333
580.036	975.83333
583.836	999.5
587.634	998.5
591.429	989.16667
595.221	1025.16667
599.01	1013.16667
602.796	1012.5
606.578	1005.83333
610.358	1013.83333
614.135	1007.5
617.909	1000.16667
621.679	1003.16667
625.447	1001.16667
629.212	991.83333
632.973	994.83333
636.732	999.83333
640.488	1007.83333
644.241	990.5
647.991	978.83333
651.737	1003.16667
655.481	968.5
659.222	991.83333
662.96	981.83333
666.695	1001.83333
670.427	990.5
674.156	1002.5
677.882	996.83333
681.605	994.16667
685.325	970.16667
689.043	1001.16667
692.757	979.83333
696.468	976.16667
700.177	981.5
703.882	964.5
707.585	959.5
711.284	934.16667
714.981	936.83333
718.675	943.16667
722.366	965.5
726.054	935.16667
729.739	955.5
733.421	943.16667
737.1	934.16667
740.777	952.83333
744.45	947.83333
748.121	961.16667
751.789	996.16667
755.453	952.83333
759.115	971.5
762.774	966.83333
766.431	968.16667
770.084	968.16667
773.734	974.16667
777.382	1001.16667
781.027	986.16667
784.669	980.83333
788.308	1001.83333
791.944	1006.83333
795.577	992.83333
799.208	1009.5
802.835	1004.16667
806.46	1036.16667
810.082	1020.5
813.701	1029.5
817.317	1039.83333
820.931	1020.5
824.542	1038.16667
828.149	1013.16667
831.754	993.5
835.357	994.16667
838.956	997.5
842.553	989.5
846.146	974.5
849.737	956.16667
853.326	963.5
856.911	947.83333
860.493	989.16667
864.073	980.83333
867.65	997.16667
871.225	1007.5
874.796	1003.5
878.365	974.16667
881.931	1004.16667
885.494	1001.5
889.054	990.5
892.612	1002.83333
896.166	996.5
899.719	974.83333
903.268	958.83333
906.814	976.16667
910.358	965.5
913.899	945.83333
917.438	963.5
920.973	927.16667
924.506	936.5
928.036	974.5
931.564	971.5
935.088	993.83333
938.61	975.16667
942.129	975.16667
945.646	989.83333
949.16	986.5
952.671	1008.5
956.179	1041.5
959.685	1025.83333
963.188	1037.83333
966.688	1034.5
970.185	1002.16667
973.68	975.83333
977.173	972.16667
980.662	944.83333
984.149	950.16667
987.633	928.5
991.114	953.16667
994.593	956.83333
998.069	981.83333
1001.542	1010.83333
1005.013	1004.83333
1008.481	937.16667
1011.947	926.16667
1015.409	914.5
1018.869	920.5
1022.327	920.16667
1025.782	901.5
1029.234	901.83333
1032.683	906.5
1036.13	883.16667
1039.574	834.5
1043.016	828.5
1046.455	809.16667
1049.891	803.83333
1053.325	819.83333
1056.756	807.5
1060.184	813.5
1063.61	801.83333
1067.033	794.83333
1070.454	794.5
1073.872	835.16667
1077.287	808.5
1080.7	806.83333
1084.11	811.5
1087.517	806.83333
1090.922	805.16667
1094.325	785.16667
1097.724	786.83333
1101.122	776.16667
1104.516	794.16667
1107.908	773.16667
1111.298	774.16667
1114.684	782.16667
1118.069	793.5
1121.45	803.83333
1124.83	776.5
1128.206	816.16667
1131.58	809.16667
1134.951	826.5
1138.32	837.16667
1141.687	875.5
1145.05	963.83333
1148.412	926.83333
1151.77	873.5
1155.126	869.83333
1158.48	870.5
1161.831	870.16667
1165.18	884.83333
1168.525	901.83333
1171.869	882.5
1175.21	890.83333
1178.548	899.16667
1181.884	917.16667
1185.217	913.5
1188.548	939.5
1191.877	941.5
1195.202	989.5
1198.526	996.16667
1201.846	998.83333
1205.165	998.83333
1208.48	995.5
1211.794	999.16667
1215.104	995.16667
1218.413	984.16667
1221.719	991.16667
1225.022	974.5
1228.323	961.5
1231.621	966.5
1234.917	950.16667
1238.21	982.16667
1241.501	956.83333
1244.79	931.83333
1248.076	935.83333
1251.359	949.83333
1254.64	1000.16667
1257.919	967.83333
1261.195	976.16667
1264.468	991.16667
1267.74	1002.5
1271.008	997.16667
1274.275	1007.5
1277.538	996.16667
1280.8	1005.83333
1284.059	993.5
1287.315	1008.83333
1290.569	1003.5
1293.821	1004.16667
1297.07	1006.5
1300.317	1020.83333
1303.562	1001.16667
1306.803	1002.16667
1310.043	1016.5
1313.28	1013.5
1316.515	996.16667
1319.747	1010.83333
1322.977	998.83333
1326.204	985.5
1329.429	977.5
1332.652	976.16667
1335.872	984.83333
1339.09	949.83333
1342.306	976.83333
1345.519	969.16667
1348.729	962.83333
1351.938	982.83333
1355.144	943.83333
1358.347	933.16667
1361.548	934.83333
1364.747	951.5
1367.944	928.16667
1371.138	930.83333
1374.329	907.83333
1377.518	905.83333
1380.705	923.83333
1383.89	919.83333
1387.072	887.16667
1390.252	863.5
1393.429	845.83333
1396.605	828.5
1399.777	788.5
1402.948	795.5
1406.116	772.5
1409.282	773.5
1412.445	782.16667
1415.606	791.83333
1418.765	790.83333
1421.921	796.83333
1425.075	800.83333
1428.227	823.16667
1431.376	860.5
1434.524	881.5
1437.668	902.83333
1440.811	908.5
1443.951	915.16667
1447.089	920.83333
1450.224	907.5
1453.357	910.83333
1456.488	912.83333
1459.617	901.16667
1462.743	881.16667
1465.867	877.16667
1468.989	868.83333
1472.108	842.83333
1475.225	855.83333
1478.34	836.16667
1481.453	841.16667
1484.563	825.16667
1487.671	837.83333
1490.776	856.83333
1493.88	851.16667
1496.981	861.5
1500.08	875.83333
1503.176	870.16667
1506.271	886.83333
1509.363	895.16667
1512.452	885.5
1515.54	900.16667
1518.625	909.16667
1521.708	954.5
1524.789	962.5
1527.867	992.5
1530.944	1052.16667
1534.018	1065.83333
1537.089	1104.16667
1540.159	1100.5
1543.226	1106.83333
1546.291	1068.16667
1549.354	1072.5
1552.415	1032.16667
1555.473	1026.5
1558.529	1016.16667
1561.583	1008.16667
1564.634	991.5
1567.684	987.5
1570.731	1005.83333
1573.776	1004.5
1576.819	1006.5
1579.859	1026.83333
1582.898	1049.83333
1585.934	1051.5
1588.968	1076.83333
1591.999	1032.16667
1595.029	1038.83333
1598.056	1068.5
1601.081	1064.16667
1604.104	1062.16667
1607.125	1045.5
1610.144	1042.16667
1613.16	993.5
1616.174	987.16667
1619.186	980.83333
1622.196	970.5
1625.203	935.83333
1628.209	928.5
1631.212	936.5
1634.213	956.16667
1637.212	962.16667
1640.209	958.5
1643.203	923.5
1646.196	904.83333
1649.186	857.5
1652.174	835.16667
1655.16	799.16667
1658.144	801.16667
1661.125	754.83333
1664.105	729.5
1667.082	702.5
1670.057	674.5
1673.03	634.5
1676.001	593.83333
1678.97	562.16667
1681.937	531.5
1684.901	516.16667
1687.863	507.83333
1690.824	488.16667
1693.782	482.16667
1696.738	450.83333
1699.692	453.5
1702.643	445.16667
1705.593	439.16667
1708.54	429.83333
1711.486	444.83333
1714.429	417.16667
1717.37	431.83333
1720.309	411.16667
1723.246	423.16667
1726.181	411.83333
1729.113	400.83333
1732.044	415.5
1734.972	401.16667
1737.899	415.83333
1740.823	416.5
1743.745	431.16667
1746.665	395.5
1749.583	386.5
1752.499	388.16667
1755.413	380.16667
1758.325	367.16667
1761.235	373.5
1764.142	357.5
1767.048	365.5
1769.951	362.83333
1772.852	366.16667
1775.752	372.16667
1778.649	367.5
1781.544	380.83333
1784.437	346.5
1787.328	364.5
1790.217	357.83333
1793.104	336.83333
1795.989	345.5
1798.872	338.5
1801.753	354.16667
1804.631	344.83333
1807.508	352.5
1810.383	339.83333
1813.255	341.83333
1816.126	344.16667
1818.994	333.16667
1821.861	342.83333
1824.725	337.16667
1827.587	337.5
1830.448	327.83333
1833.306	320.16667
1836.162	333.16667
1839.017	331.5
1841.869	340.16667
1844.719	323.5
1847.567	321.5
1850.414	317.5
1853.258	319.5
1856.1	328.5
1858.94	333.16667
1861.778	317.5
1864.614	302.83333
1867.448	321.5
1870.28	303.83333
1873.111	330.5
1875.939	311.5
1878.765	329.16667
1881.589	304.16667
1884.411	321.16667
1887.231	328.83333
1890.049	315.16667
1892.865	316.16667
1895.68	301.83333
1898.492	308.83333
1901.302	305.16667
1904.11	305.16667
1906.916	307.83333
1909.721	304.83333
1912.523	304.83333
1915.323	295.5
1918.122	292.83333
1920.918	312.83333
1923.712	293.83333
1926.505	301.5
1929.295	277.5
1932.084	305.16667
1934.87	299.5
1937.655	297.16667
1940.438	283.5
1943.218	291.16667
1945.997	287.16667
1948.774	305.83333
1951.549	299.83333
1954.322	277.83333
1957.093	288.83333
1959.862	289.16667
1962.629	288.83333
1965.394	279.5
1968.157	270.5
1970.918	288.83333
1973.678	270.83333
1976.435	292.16667
1979.19	274.16667
1981.944	267.83333
1984.696	275.16667
1987.445	275.16667
1990.193	277.83333
1992.939	287.5
1995.683	281.16667
1998.425	254.16667
2001.165	297.5
2003.903	261.16667
2006.639	272.83333
2009.374	272.16667
2012.106	271.83333
2014.837	243.83333
2017.566	277.16667
2020.292	270.5
2023.017	262.83333
2025.74	258.5
2028.461	256.83333
2031.18	265.83333
2033.898	250.83333
2036.613	249.16667
2039.327	263.83333
2042.038	251.5
2044.748	261.83333
2047.456	262.83333
2050.162	252.5
2052.866	252.16667
2055.568	263.83333
2058.268	246.5
2060.967	263.83333
2063.663	240.83333
2066.358	247.16667
2069.051	238.16667
2071.742	250.83333
2074.431	264.83333
2077.118	251.16667
2079.804	238.83333
2082.487	242.16667
2085.169	253.16667
2087.849	271.16667
2090.527	238.16667
2093.203	246.83333
2095.877	244.83333
2098.55	242.16667
2101.22	258.16667
2103.889	257.16667
2106.556	246.5
2109.221	260.16667
2111.884	254.83333
2114.546	265.83333
2117.205	274.16667
2119.863	299.5
2122.519	291.16667
2125.173	305.16667
2127.825	336.83333
2130.475	337.16667
2133.124	329.16667
2135.771	306.83333
2138.416	329.16667
2141.059	299.83333
2143.7	297.5
2146.339	274.83333
2148.977	251.5
2151.613	268.16667
2154.247	256.16667
2156.879	250.16667
2159.51	243.5
2162.138	247.83333
2164.765	248.5
2167.39	235.83333
2170.013	261.83333
2172.634	252.5
2175.254	232.16667
2177.872	273.16667
2180.488	219.5
2183.102	227.83333
2185.714	228.16667
2188.325	221.16667
2190.934	230.83333
2193.541	234.83333
2196.146	227.83333
2198.75	216.5
2201.351	216.16667
2203.951	204.83333
2206.549	222.16667
2209.146	207.16667
2211.74	207.83333
2214.333	218.83333
2216.924	206.5
2219.514	215.16667
2222.101	205.83333
2224.687	225.83333
2227.271	210.83333
2229.853	210.16667
2232.433	193.16667
2235.012	218.16667
2237.589	210.5
2240.164	226.16667
2242.738	208.83333
2245.309	190.5
2247.879	215.16667
2250.448	209.83333
2253.014	200.16667
2255.579	183.83333
2258.142	195.16667
2260.703	200.5
2263.262	194.16667
2265.82	183.83333
2268.376	203.16667
2270.93	192.83333
2273.483	184.16667
2276.033	199.5
2278.583	190.83333
2281.13	186.16667
2283.675	177.5
2286.219	181.16667
2288.761	192.5
2291.302	197.16667
2293.841	202.5
2296.377	180.83333
2298.913	192.83333
2301.446	199.5
2303.978	187.83333
2306.508	184.83333
2309.037	193.16667
2311.563	184.5
2314.088	187.83333
2316.612	174.5
2319.133	191.5
2321.653	196.16667
2324.171	176.83333
2326.688	197.5
2329.202	185.16667
2331.715	187.16667
2334.227	179.16667
2336.736	182.83333
2339.244	172.5
2341.751	167.5
2344.255	182.5
2346.758	179.16667
2349.259	167.83333
2351.759	183.5
2354.257	175.16667
2356.753	168.5
2359.247	165.83333
2361.74	175.5
2364.231	171.83333
2366.721	183.16667
2369.209	168.16667
2371.695	174.5
2374.179	174.83333
2376.662	157.83333
2379.143	183.5
2381.622	169.16667
2384.1	182.5
2386.576	168.83333
2389.051	179.5
2391.524	181.16667
2393.995	181.5
2396.464	164.5
2398.932	166.5
2401.398	167.5
2403.863	164.16667
2406.325	166.83333
2408.787	167.5
2411.246	170.5
2413.704	171.5
2416.16	159.83333
2418.615	161.83333
2421.068	171.83333
2423.519	166.83333
2425.969	161.5
2428.417	174.16667
2430.863	185.83333
2433.308	174.83333
2435.751	167.83333
2438.193	166.5
2440.633	165.16667
2443.071	171.83333
2445.508	159.83333
2447.943	163.83333
2450.376	153.5
2452.808	167.16667
2455.238	152.16667
2457.667	181.5
2460.093	157.5
2462.519	143.83333
2464.942	154.5
2467.365	161.83333
2469.785	157.16667
2472.204	156.16667
2474.621	151.5
2477.037	173.5
2479.451	147.16667
2481.863	153.5
2484.274	146.16667
2486.683	155.5
2489.091	165.5
2491.497	164.16667
2493.901	158.83333
2496.304	148.83333
2498.705	167.83333
2501.105	151.16667
2503.503	178.16667
2505.899	148.83333
2508.294	167.16667
2510.687	152.83333
2513.079	159.16667
2515.469	141.83333
2517.858	150.83333
2520.245	168.83333
2522.63	151.16667
2525.014	147.83333
2527.396	146.5
2529.776	149.16667
2532.156	156.5
2534.533	143.5
2536.909	141.83333
2539.283	139.16667
2541.656	149.5
2544.027	156.5
2546.397	155.83333
2548.765	149.16667
2551.131	151.5
2553.496	156.83333
2555.86	150.83333
2558.221	152.16667
2560.582	145.83333
2562.94	147.16667
2565.298	143.16667
2567.653	162.16667
2570.007	136.83333
2572.36	159.16667
2574.711	137.83333
2577.06	163.5
2579.408	150.16667
2581.754	144.16667
2584.099	147.83333
2586.442	145.5
2588.784	151.83333
2591.124	144.83333
2593.463	144.16667
2595.8	146.83333
2598.135	131.16667
2600.469	142.5
2602.802	153.83333
2605.133	158.83333
2607.462	142.5
2609.79	137.83333
2612.116	150.83333
2614.441	145.83333
2616.764	149.16667
2619.086	144.5
2621.406	141.83333
2623.725	149.16667
2626.042	142.83333
2628.358	141.83333
2630.672	149.5
2632.985	155.83333
2635.296	146.5
2637.606	142.5
2639.914	134.5
2642.22	142.16667
2644.525	157.16667
2646.829	147.16667
2649.131	154.83333
2651.432	152.83333
2653.731	141.16667
2656.028	157.83333
2658.324	152.5
2660.619	144.16667
2662.912	157.16667
2665.204	135.16667
2667.494	153.5
2669.782	140.16667
2672.07	161.83333
2674.355	159.5
2676.639	145.83333
2678.922	144.16667
2681.203	152.83333
2683.483	145.5
2685.761	133.5
2688.038	155.83333
2690.313	158.5
2692.587	149.83333
2694.859	140.5
2697.13	144.5
2699.399	147.83333
2701.667	155.5
2703.933	154.5
2706.198	154.5
2708.461	157.5
2710.723	156.5
2712.984	148.16667
2715.243	160.83333
2717.5	150.5
2719.757	159.83333
2722.011	152.83333
2724.264	159.16667
2726.516	167.83333
2728.766	148.5
2731.015	156.16667
2733.262	154.83333
2735.508	155.5
2737.753	159.83333
2739.996	149.16667
2742.237	148.16667
2744.477	164.5
2746.716	161.5
2748.953	157.16667
2751.189	163.83333
2753.423	157.83333
2755.656	144.16667
2757.887	143.5
2760.117	148.16667
2762.346	143.5
2764.573	140.83333
2766.798	142.83333
2769.022	146.16667
2771.245	139.83333
2773.467	146.5
2775.686	146.16667
2777.905	154.5
2780.122	147.83333
2782.337	154.83333
2784.552	139.83333
2786.764	150.5
2788.976	146.16667
2791.186	150.16667
2793.394	146.83333
2795.601	157.5
2797.807	164.83333
2800.011	156.16667
2802.214	160.16667
2804.415	154.16667
2806.615	155.16667
2808.814	153.5
2811.011	156.16667
2813.206	155.83333
2815.401	174.83333
2817.594	159.83333
2819.785	167.83333
2821.975	156.16667
2824.164	164.83333
2826.351	160.83333
2828.537	178.16667
2830.722	173.5
2832.905	169.83333
2835.086	175.83333
2837.267	197.16667
2839.445	194.5
2841.623	189.5
2843.799	191.83333
2845.974	203.16667
2848.147	198.83333
2850.319	219.83333
2852.489	221.5
2854.659	232.16667
2856.826	221.5
2858.993	241.83333
2861.158	223.16667
2863.321	232.5
2865.483	247.16667
2867.644	229.83333
2869.804	234.83333
2871.962	232.16667
2874.118	229.5
2876.274	239.16667
2878.428	237.16667
2880.58	236.83333
2882.731	221.83333
2884.881	233.5
2887.03	243.16667
2889.177	237.16667
2891.322	243.83333
2893.467	232.83333
2895.61	229.5
2897.751	251.5
2899.892	237.5
2902.03	242.83333
2904.168	238.5
2906.304	235.83333
2908.439	258.5
2910.572	233.83333
2912.704	252.83333
2914.835	247.83333
2916.965	252.16667
2919.093	263.5
2921.219	236.83333
2923.345	267.16667
2925.469	246.5
2927.591	246.83333
2929.712	226.16667
2931.832	245.83333
2933.951	238.83333
2936.068	229.16667
2938.184	229.5
2940.299	225.5
2942.412	220.5
2944.524	201.5
2946.634	207.5
2948.744	184.83333
2950.851	222.16667
2952.958	193.16667
2955.063	200.16667
2957.167	193.5
2959.269	181.5
2961.371	215.16667
2963.471	182.83333
2965.569	194.83333
2967.666	172.5
2969.762	176.5
2971.857	170.83333
2973.95	164.83333
2976.042	175.16667
2978.133	156.83333
2980.222	165.5
2982.31	148.5
2984.396	144.16667
2986.482	149.5
2988.566	148.16667
2990.648	140.83333
2992.73	150.83333
2994.81	137.5
2996.889	153.16667
2998.966	134.16667
3001.042	161.5
3003.117	144.5
3005.191	145.83333
3007.263	155.5
3009.334	147.5
3011.403	149.5
3013.472	141.83333
3015.539	158.83333
3017.604	159.16667
3019.669	133.83333
3021.732	136.16667
3023.794	137.83333
3025.854	126.83333
3027.914	129.16667
3029.971	128.5
3032.028	134.5
3034.083	139.5
3036.137	135.16667
3038.19	125.5
3040.242	120.16667
3042.292	120.5
3044.341	129.16667
3046.388	143.16667
3048.435	114.16667
3050.48	134.83333
3052.524	122.83333
3054.566	108.5
3056.607	127.5
3058.647	118.16667
3060.686	104.83333
3062.723	98.16667
3064.759	106.83333
3066.794	0.5
3068.828	0.16667
3070.86	1.83333
