-0.839	141.45833
3.438	158.125
7.711	67.125
11.981	41.79167
16.247	34.45833
20.509	40.125
24.768	34.125
29.024	45.45833
33.276	30.79167
37.524	38.79167
41.769	30.125
46.01	29.45833
50.247	44.125
54.481	53.79167
58.712	51.125
62.939	40.45833
67.162	54.45833
71.382	48.79167
75.599	37.45833
79.812	46.125
84.021	61.45833
88.227	41.79167
92.429	51.79167
96.628	40.45833
100.823	51.45833
105.015	51.45833
109.204	45.79167
113.388	58.45833
117.57	48.45833
121.748	60.79167
125.922	52.79167
130.093	71.125
134.261	69.79167
138.425	55.125
142.585	89.125
146.742	68.125
150.896	82.45833
155.046	78.125
159.193	121.79167
163.336	182.79167
167.476	306.45833
171.613	569.125
175.746	928.79167
179.875	1367.79167
184.002	1767.45833
188.124	2111.79167
192.244	2211.79167
196.36	2250.125
200.472	2244.79167
204.581	2201.45833
208.687	2162.45833
212.79	2168.45833
216.889	2195.79167
220.984	2211.125
225.077	2224.79167
229.165	2243.125
233.251	2247.45833
237.333	2248.125
241.412	2224.125
245.487	2211.45833
249.559	2198.79167
253.628	2208.45833
257.694	2185.79167
261.756	2169.125
265.814	2144.79167
269.87	2091.79167
273.922	2062.125
277.97	2039.79167
282.016	2040.125
286.058	2042.125
290.097	2074.79167
294.132	2109.45833
298.164	2081.45833
302.193	2016.125
306.219	1921.45833
310.241	1811.79167
314.26	1720.45833
318.276	1650.125
322.288	1599.79167
326.297	1567.79167
330.303	1542.79167
334.305	1533.79167
338.305	1513.45833
342.301	1522.125
346.294	1508.79167
350.283	1499.125
354.269	1486.125
358.252	1489.45833
362.232	1503.45833
366.209	1497.125
370.182	1479.45833
374.152	1485.125
378.119	1489.45833
382.083	1470.45833
386.043	1478.45833
390	1484.125
393.954	1498.125
397.905	1494.45833
401.852	1509.79167
405.797	1483.125
409.738	1473.45833
413.676	1496.125
417.61	1513.125
421.542	1493.45833
425.47	1484.45833
429.396	1467.125
433.318	1462.79167
437.236	1470.79167
441.152	1506.125
445.065	1440.125
448.974	1461.125
452.88	1436.79167
456.783	1435.79167
460.683	1430.45833
464.58	1449.79167
468.473	1459.125
472.364	1457.125
476.251	1460.45833
480.135	1456.79167
484.016	1472.79167
487.894	1479.125
491.769	1481.79167
495.641	1488.45833
499.509	1482.79167
503.375	1468.79167
507.237	1472.125
511.096	1467.79167
514.952	1455.125
518.805	1456.125
522.655	1460.79167
526.502	1454.79167
530.346	1476.125
534.187	1490.45833
538.024	1489.125
541.859	1474.79167
545.69	1487.125
549.519	1479.125
553.344	1476.79167
557.166	1450.125
560.985	1453.79167
564.802	1440.125
568.615	1438.125
572.425	1414.125
576.232	1409.125
580.036	1404.45833
583.836	1410.45833
587.634	1419.45833
591.429	1403.45833
595.221	1450.45833
599.01	1442.45833
602.796	1443.45833
606.578	1434.125
610.358	1473.79167
614.135	1431.125
617.909	1438.125
621.679	1423.79167
625.447	1426.45833
629.212	1429.125
632.973	1420.45833
636.732	1429.79167
640.488	1425.125
644.241	1398.125
647.991	1390.125
651.737	1412.45833
655.481	1391.79167
659.222	1404.79167
662.96	1386.125
666.695	1410.45833
670.427	1394.79167
674.156	1408.125
677.882	1408.125
681.605	1407.45833
685.325	1387.79167
689.043	1425.125
692.757	1384.125
696.468	1390.79167
700.177	1378.79167
703.882	1357.79167
707.585	1348.79167
711.284	1354.45833
714.981	1339.45833
718.675	1340.45833
722.366	1352.79167
726.054	1340.79167
729.739	1351.125
733.421	1333.79167
737.1	1342.79167
740.777	1353.45833
744.45	1334.45833
748.121	1355.125
751.789	1376.125
755.453	1352.45833
759.115	1357.79167
762.774	1359.45833
766.431	1362.125
770.084	1391.45833
773.734	1354.79167
777.382	1393.125
781.027	1376.79167
784.669	1366.79167
788.308	1355.79167
791.944	1399.79167
795.577	1375.125
799.208	1386.125
802.835	1405.45833
806.46	1400.125
810.082	1396.79167
813.701	1405.45833
817.317	1419.79167
820.931	1435.79167
824.542	1413.79167
828.149	1391.45833
831.754	1373.79167
835.357	1371.79167
838.956	1382.125
842.553	1372.79167
846.146	1348.125
849.737	1314.45833
853.326	1334.45833
856.911	1309.45833
860.493	1314.45833
864.073	1337.79167
867.65	1358.79167
871.225	1361.125
874.796	1336.125
878.365	1345.45833
881.931	1369.125
885.494	1358.125
889.054	1370.79167
892.612	1349.79167
896.166	1329.45833
899.719	1320.125
903.268	1305.125
906.814	1312.45833
910.358	1289.125
913.899	1275.45833
917.438	1283.45833
920.973	1272.45833
924.506	1273.125
928.036	1306.79167
931.564	1315.79167
935.088	1333.79167
938.61	1314.45833
942.129	1303.79167
945.646	1338.45833
949.16	1343.125
952.671	1353.45833
956.179	1362.45833
959.685	1366.45833
963.188	1359.45833
966.688	1339.45833
970.185	1302.125
973.68	1274.79167
977.173	1266.79167
980.662	1261.125
984.149	1265.79167
987.633	1249.125
991.114	1266.79167
994.593	1285.79167
998.069	1288.45833
1001.542	1319.45833
1005.013	1301.79167
1008.481	1252.125
1011.947	1218.125
1015.409	1205.45833
1018.869	1218.45833
1022.327	1224.79167
1025.782	1203.79167
1029.234	1189.79167
1032.683	1190.79167
1036.13	1160.79167
1039.574	1122.45833
1043.016	1103.79167
1046.455	1090.45833
1049.891	1079.45833
1053.325	1095.45833
1056.756	1084.79167
1060.184	1072.79167
1063.61	1085.79167
1067.033	1084.125
1070.454	1085.79167
1073.872	1108.45833
1077.287	1070.79167
1080.7	1083.125
1084.11	1085.125
1087.517	1080.45833
1090.922	1075.45833
1094.325	1035.79167
1097.724	1020.45833
1101.122	1033.125
1104.516	1028.79167
1107.908	1017.125
1111.298	1032.125
1114.684	1046.79167
1118.069	1051.79167
1121.45	1067.79167
1124.83	1047.45833
1128.206	1062.45833
1131.58	1055.79167
1134.951	1101.45833
1138.32	1102.79167
1141.687	1129.45833
1145.05	1138.125
1148.412	1143.45833
1151.77	1143.45833
1155.126	1132.125
1158.48	1124.125
1161.831	1116.45833
1165.18	1115.79167
1168.525	1136.79167
1171.869	1151.45833
1175.21	1141.45833
1178.548	1147.79167
1181.884	1167.45833
1185.217	1167.45833
1188.548	1198.125
1191.877	1202.45833
1195.202	1262.79167
1198.526	1273.79167
1201.846	1271.79167
1205.165	1270.125
1208.48	1283.125
1211.794	1279.79167
1215.104	1280.125
1218.413	1256.125
1221.719	1259.79167
1225.022	1251.79167
1228.323	1220.45833
1231.621	1223.79167
1234.917	1210.125
1238.21	1238.125
1241.501	1206.79167
1244.79	1209.45833
1248.076	1187.125
1251.359	1206.79167
1254.64	1250.45833
1257.919	1227.125
1261.195	1244.79167
1264.468	1271.125
1267.74	1271.45833
1271.008	1270.79167
1274.275	1271.125
1277.538	1277.125
1280.8	1251.79167
1284.059	1267.125
1287.315	1278.79167
1290.569	1269.45833
1293.821	1281.125
1297.07	1268.79167
1300.317	1270.45833
1303.562	1263.45833
1306.803	1278.79167
1310.043	1261.79167
1313.28	1249.125
1316.515	1242.79167
1319.747	1236.79167
1322.977	1232.125
1326.204	1215.79167
1329.429	1224.79167
1332.652	1201.79167
1335.872	1211.45833
1339.09	1183.79167
1342.306	1201.125
1345.519	1193.45833
1348.729	1180.45833
1351.938	1180.45833
1355.144	1158.125
1358.347	1147.125
1361.548	1170.45833
1364.747	1153.125
1367.944	1136.79167
1371.138	1131.125
1374.329	1124.45833
1377.518	1144.79167
1380.705	1138.45833
1383.89	1137.45833
1387.072	1101.79167
1390.252	1079.125
1393.429	1039.79167
1396.605	1028.125
1399.777	998.79167
1402.948	992.79167
1406.116	977.79167
1409.282	989.79167
1412.445	981.79167
1415.606	990.79167
1418.765	991.125
1421.921	1013.45833
1425.075	1006.45833
1428.227	1034.125
1431.376	1075.125
1434.524	1100.125
1437.668	1127.125
1440.811	1134.45833
1443.951	1135.79167
1447.089	1139.45833
1450.224	1135.125
1453.357	1138.125
1456.488	1121.45833
1459.617	1124.45833
1462.743	1091.45833
1465.867	1075.125
1468.989	1078.79167
1472.108	1060.79167
1475.225	1032.125
1478.34	1007.45833
1481.453	1016.79167
1484.563	1014.45833
1487.671	1012.45833
1490.776	1048.79167
1493.88	1032.79167
1496.981	1051.79167
1500.08	1058.79167
1503.176	1054.79167
1506.271	1075.45833
1509.363	1102.45833
1512.452	1088.125
1515.54	1098.79167
1518.625	1090.45833
1521.708	1116.79167
1524.789	1148.79167
1527.867	1200.125
1530.944	1236.45833
1534.018	1267.45833
1537.089	1326.79167
1540.159	1329.79167
1543.226	1324.79167
1546.291	1305.45833
1549.354	1278.79167
1552.415	1264.125
1555.473	1228.45833
1558.529	1211.79167
1561.583	1203.45833
1564.634	1196.125
1567.684	1194.79167
1570.731	1190.125
1573.776	1198.125
1576.819	1196.125
1579.859	1208.45833
1582.898	1229.79167
1585.934	1234.45833
1588.968	1234.79167
1591.999	1222.125
1595.029	1219.125
1598.056	1242.45833
1601.081	1254.79167
1604.104	1251.125
1607.125	1247.125
1610.144	1206.125
1613.16	1184.45833
1616.174	1177.45833
1619.186	1157.125
1622.196	1138.125
1625.203	1091.45833
1628.209	1091.79167
1631.212	1082.79167
1634.213	1083.45833
1637.212	1098.45833
1640.209	1092.79167
1643.203	1057.45833
1646.196	1025.79167
1649.186	993.45833
1652.174	982.125
1655.16	944.125
1658.144	938.45833
1661.125	908.79167
1664.105	878.79167
1667.082	844.45833
1670.057	806.125
1673.03	766.79167
1676.001	722.79167
1678.97	684.125
1681.937	657.125
1684.901	618.45833
1687.863	613.79167
1690.824	580.125
1693.782	588.125
1696.738	552.125
1699.692	553.125
1702.643	545.125
1705.593	539.79167
1708.54	535.125
1711.486	540.45833
1714.429	531.125
1717.37	536.125
1720.309	522.45833
1723.246	520.79167
1726.181	501.125
1729.113	511.125
1732.044	506.125
1734.972	497.45833
1737.899	516.125
1740.823	514.79167
1743.745	532.79167
1746.665	484.125
1749.583	483.45833
1752.499	485.125
1755.413	474.125
1758.325	464.79167
1761.235	465.125
1764.142	459.125
1767.048	460.125
1769.951	457.45833
1772.852	451.125
1775.752	453.79167
1778.649	445.45833
1781.544	465.125
1784.437	432.45833
1787.328	446.79167
1790.217	451.125
1793.104	422.125
1795.989	430.79167
1798.872	421.45833
1801.753	443.79167
1804.631	434.125
1807.508	435.45833
1810.383	427.45833
1813.255	425.125
1816.126	432.45833
1818.994	424.125
1821.861	423.125
1824.725	425.79167
1827.587	420.79167
1830.448	412.79167
1833.306	403.79167
1836.162	407.45833
1839.017	405.45833
1841.869	402.125
1844.719	408.125
1847.567	388.45833
1850.414	386.79167
1853.258	389.45833
1856.1	404.45833
1858.94	414.79167
1861.778	398.45833
1864.614	384.125
1867.448	395.79167
1870.28	383.125
1873.111	401.125
1875.939	395.79167
1878.765	403.79167
1881.589	383.45833
1884.411	386.79167
1887.231	402.45833
1890.049	388.125
1892.865	399.125
1895.68	375.125
1898.492	385.125
1901.302	377.125
1904.11	374.125
1906.916	378.125
1909.721	374.79167
1912.523	375.125
1915.323	364.79167
1918.122	371.125
1920.918	383.79167
1923.712	357.45833
1926.505	370.79167
1929.295	345.125
1932.084	375.45833
1934.87	362.45833
1937.655	359.125
1940.438	353.125
1943.218	360.125
1945.997	362.125
1948.774	374.45833
1951.549	372.125
1954.322	359.125
1957.093	355.125
1959.862	345.125
1962.629	344.79167
1965.394	345.79167
1968.157	337.79167
1970.918	355.45833
1973.678	340.45833
1976.435	345.79167
1979.19	336.45833
1981.944	329.125
1984.696	338.125
1987.445	332.45833
1990.193	341.45833
1992.939	346.79167
1995.683	341.125
1998.425	328.125
2001.165	358.125
2003.903	325.125
2006.639	334.79167
2009.374	332.79167
2012.106	334.79167
2014.837	307.79167
2017.566	332.45833
2020.292	329.125
2023.017	322.125
2025.74	314.125
2028.461	308.79167
2031.18	327.45833
2033.898	312.79167
2036.613	309.79167
2039.327	311.79167
2042.038	310.45833
2044.748	317.125
2047.456	305.79167
2050.162	300.79167
2052.866	310.45833
2055.568	317.45833
2058.268	310.79167
2060.967	315.125
2063.663	297.45833
2066.358	299.125
2069.051	289.125
2071.742	298.125
2074.431	310.79167
2077.118	300.125
2079.804	287.125
2082.487	296.125
2085.169	305.79167
2087.849	313.45833
2090.527	299.125
2093.203	301.79167
2095.877	297.79167
2098.55	295.125
2101.22	303.125
2103.889	314.79167
2106.556	301.125
2109.221	328.45833
2111.884	313.79167
2114.546	331.79167
2117.205	343.45833
2119.863	373.79167
2122.519	362.79167
2125.173	395.125
2127.825	423.45833
2130.475	427.45833
2133.124	408.45833
2135.771	382.45833
2138.416	390.79167
2141.059	361.125
2143.7	364.45833
2146.339	336.79167
2148.977	307.45833
2151.613	320.79167
2154.247	308.45833
2156.879	301.45833
2159.51	284.125
2162.138	289.45833
2164.765	289.125
2167.39	273.125
2170.013	297.45833
2172.634	289.125
2175.254	273.79167
2177.872	311.125
2180.488	267.45833
2183.102	276.45833
2185.714	270.79167
2188.325	257.79167
2190.934	268.125
2193.541	271.79167
2196.146	262.45833
2198.75	258.79167
2201.351	257.45833
2203.951	245.125
2206.549	261.125
2209.146	254.125
2211.74	243.125
2214.333	260.125
2216.924	234.45833
2219.514	246.79167
2222.101	246.125
2224.687	258.45833
2227.271	241.79167
2229.853	235.45833
2232.433	226.45833
2235.012	251.125
2237.589	241.45833
2240.164	257.125
2242.738	230.125
2245.309	233.79167
2247.879	249.45833
2250.448	249.125
2253.014	221.45833
2255.579	225.125
2258.142	230.45833
2260.703	226.45833
2263.262	218.45833
2265.82	220.45833
2268.376	241.45833
2270.93	221.125
2273.483	211.125
2276.033	230.45833
2278.583	215.125
2281.13	214.125
2283.675	208.79167
2286.219	222.45833
2288.761	225.45833
2291.302	226.79167
2293.841	226.45833
2296.377	205.125
2298.913	216.125
2301.446	233.125
2303.978	214.45833
2306.508	217.125
2309.037	210.79167
2311.563	218.125
2314.088	212.125
2316.612	199.125
2319.133	210.45833
2321.653	207.79167
2324.171	199.125
2326.688	220.125
2329.202	206.79167
2331.715	206.45833
2334.227	208.45833
2336.736	206.79167
2339.244	203.45833
2341.751	189.79167
2344.255	210.79167
2346.758	199.45833
2349.259	194.79167
2351.759	205.45833
2354.257	185.79167
2356.753	184.45833
2359.247	188.79167
2361.74	196.45833
2364.231	194.79167
2366.721	197.125
2369.209	185.45833
2371.695	194.45833
2374.179	187.45833
2376.662	184.125
2379.143	204.125
2381.622	190.125
2384.1	197.79167
2386.576	191.125
2389.051	207.125
2391.524	198.79167
2393.995	202.125
2396.464	186.125
2398.932	185.125
2401.398	193.45833
2403.863	186.125
2406.325	180.125
2408.787	187.45833
2411.246	182.45833
2413.704	183.45833
2416.16	173.45833
2418.615	175.125
2421.068	176.79167
2423.519	184.125
2425.969	169.125
2428.417	192.45833
2430.863	201.79167
2433.308	186.79167
2435.751	185.45833
2438.193	182.125
2440.633	183.125
2443.071	187.45833
2445.508	168.79167
2447.943	176.125
2450.376	170.45833
2452.808	182.125
2455.238	166.79167
2457.667	199.79167
2460.093	169.79167
2462.519	157.45833
2464.942	163.79167
2467.365	175.79167
2469.785	174.45833
2472.204	169.125
2474.621	169.45833
2477.037	185.45833
2479.451	160.79167
2481.863	160.79167
2484.274	159.45833
2486.683	167.45833
2489.091	177.79167
2491.497	171.79167
2493.901	170.79167
2496.304	165.125
2498.705	182.125
2501.105	161.125
2503.503	185.125
2505.899	158.125
2508.294	185.45833
2510.687	162.125
2513.079	160.45833
2515.469	152.125
2517.858	152.45833
2520.245	175.79167
2522.63	157.45833
2525.014	157.125
2527.396	157.79167
2529.776	156.79167
2532.156	164.125
2534.533	150.125
2536.909	149.125
2539.283	137.79167
2541.656	150.45833
2544.027	166.125
2546.397	163.45833
2548.765	150.45833
2551.131	158.79167
2553.496	158.79167
2555.86	164.125
2558.221	162.79167
2560.582	149.45833
2562.94	145.79167
2565.298	156.125
2567.653	164.79167
2570.007	141.79167
2572.36	159.45833
2574.711	146.45833
2577.06	163.79167
2579.408	154.45833
2581.754	145.45833
2584.099	149.125
2586.442	153.125
2588.784	151.79167
2591.124	156.125
2593.463	149.125
2595.8	156.125
2598.135	136.79167
2600.469	136.125
2602.802	158.79167
2605.133	159.45833
2607.462	143.125
2609.79	133.125
2612.116	152.79167
2614.441	144.45833
2616.764	152.125
2619.086	148.79167
2621.406	143.45833
2623.725	156.79167
2626.042	146.79167
2628.358	137.79167
2630.672	145.79167
2632.985	156.79167
2635.296	146.45833
2637.606	140.79167
2639.914	140.45833
2642.22	137.125
2644.525	144.45833
2646.829	138.45833
2649.131	160.45833
2651.432	148.125
2653.731	137.45833
2656.028	158.45833
2658.324	146.45833
2660.619	133.45833
2662.912	151.125
2665.204	128.125
2667.494	151.125
2669.782	129.79167
2672.07	152.45833
2674.355	148.125
2676.639	147.125
2678.922	137.79167
2681.203	147.45833
2683.483	138.45833
2685.761	131.125
2688.038	148.79167
2690.313	153.79167
2692.587	141.79167
2694.859	132.79167
2697.13	143.79167
2699.399	148.79167
2701.667	148.125
2703.933	144.45833
2706.198	152.79167
2708.461	155.125
2710.723	151.45833
2712.984	142.79167
2715.243	155.79167
2717.5	141.45833
2719.757	153.125
2722.011	144.45833
2724.264	152.45833
2726.516	159.79167
2728.766	134.125
2731.015	141.125
2733.262	141.79167
2735.508	139.79167
2737.753	148.45833
2739.996	133.125
2742.237	135.45833
2744.477	150.45833
2746.716	155.125
2748.953	151.45833
2751.189	152.45833
2753.423	148.45833
2755.656	137.125
2757.887	136.45833
2760.117	137.79167
2762.346	132.125
2764.573	124.45833
2766.798	126.125
2769.022	137.45833
2771.245	129.79167
2773.467	131.79167
2775.686	125.125
2777.905	134.45833
2780.122	136.45833
2782.337	143.125
2784.552	133.45833
2786.764	139.45833
2788.976	132.125
2791.186	139.125
2793.394	140.125
2795.601	146.125
2797.807	150.79167
2800.011	141.79167
2802.214	150.125
2804.415	145.45833
2806.615	142.125
2808.814	143.45833
2811.011	148.45833
2813.206	145.125
2815.401	152.45833
2817.594	158.125
2819.785	163.79167
2821.975	144.45833
2824.164	152.79167
2826.351	149.125
2828.537	159.79167
2830.722	168.79167
2832.905	172.45833
2835.086	170.79167
2837.267	183.45833
2839.445	186.79167
2841.623	183.45833
2843.799	190.79167
2845.974	193.125
2848.147	196.79167
2850.319	206.125
2852.489	215.125
2854.659	222.125
2856.826	225.125
2858.993	237.125
2861.158	219.45833
2863.321	223.45833
2865.483	241.79167
2867.644	240.125
2869.804	230.79167
2871.962	229.45833
2874.118	230.125
2876.274	234.125
2878.428	231.125
2880.58	236.79167
2882.731	219.79167
2884.881	230.79167
2887.03	235.79167
2889.177	233.125
2891.322	239.45833
2893.467	224.45833
2895.61	228.45833
2897.751	246.45833
2899.892	227.125
2902.03	235.79167
2904.168	231.125
2906.304	231.79167
2908.439	253.45833
2910.572	234.45833
2912.704	235.79167
2914.835	252.125
2916.965	243.45833
2919.093	259.79167
2921.219	226.79167
2923.345	258.79167
2925.469	236.79167
2927.591	233.45833
2929.712	224.45833
2931.832	231.125
2933.951	225.79167
2936.068	220.79167
2938.184	218.125
2940.299	209.125
2942.412	198.79167
2944.524	187.45833
2946.634	201.125
2948.744	175.45833
2950.851	210.45833
2952.958	171.79167
2955.063	176.125
2957.167	170.45833
2959.269	152.125
2961.371	190.125
2963.471	152.125
2965.569	173.45833
2967.666	146.125
2969.762	154.125
2971.857	138.79167
2973.95	139.79167
2976.042	148.79167
2978.133	136.45833
2980.222	132.79167
2982.31	127.125
2984.396	110.125
2986.482	120.79167
2988.566	121.125
2990.648	122.79167
2992.73	122.45833
2994.81	108.125
2996.889	122.125
2998.966	114.79167
3001.042	131.45833
3003.117	111.79167
3005.191	117.125
3007.263	122.45833
3009.334	119.45833
3011.403	120.79167
3013.472	109.125
3015.539	124.125
3017.604	132.45833
3019.669	103.45833
3021.732	105.79167
3023.794	106.45833
3025.854	99.45833
3027.914	97.125
3029.971	96.79167
3032.028	99.45833
3034.083	112.45833
3036.137	103.79167
3038.19	94.45833
3040.242	86.125
3042.292	85.45833
3044.341	92.125
3046.388	103.79167
3048.435	88.79167
3050.48	105.125
3052.524	94.125
3054.566	83.125
3056.607	93.125
3058.647	87.79167
3060.686	78.45833
3062.723	71.45833
3064.759	76.79167
3066.794	-0.20833
3068.828	0.79167
3070.86	4.45833
