-0.839	141.83333
3.438	160.83333
7.711	67.16667
11.981	43.83333
16.247	29.5
20.509	37.5
24.768	34.5
29.024	42.5
33.276	31.5
37.524	41.5
41.769	28.83333
46.01	26.16667
50.247	41.83333
54.481	52.16667
58.712	55.5
62.939	34.16667
67.162	52.5
71.382	49.83333
75.599	36.83333
79.812	43.16667
84.021	61.5
88.227	38.83333
92.429	47.83333
96.628	37.5
100.823	49.16667
105.015	51.16667
109.204	47.5
113.388	57.83333
117.57	44.16667
121.748	61.16667
125.922	49.16667
130.093	61.16667
134.261	64.83333
138.425	53.5
142.585	84.16667
146.742	64.16667
150.896	80.16667
155.046	74.16667
159.193	115.16667
163.336	162.83333
167.476	280.5
171.613	506.5
175.746	815.5
179.875	1189.5
184.002	1538.16667
188.124	1807.16667
192.244	1893.5
196.36	1900.5
200.472	1890.5
204.581	1851.5
208.687	1798.83333
212.79	1803.83333
216.889	1814.5
220.984	1830.83333
225.077	1847.16667
229.165	1844.5
233.251	1855.5
237.333	1858.83333
241.412	1833.83333
245.487	1843.5
249.559	1796.83333
253.628	1785.16667
257.694	1769.83333
261.756	1768.16667
265.814	1736.83333
269.87	1692.83333
273.922	1644.83333
277.97	1634.83333
282.016	1615.83333
286.058	1592.83333
290.097	1626.16667
294.132	1654.83333
298.164	1634.83333
302.193	1595.5
306.219	1466.5
310.241	1388.16667
314.26	1308.5
318.276	1226.5
322.288	1199.5
326.297	1153.16667
330.303	1136.83333
334.305	1117.16667
338.305	1101.16667
342.301	1097.5
346.294	1093.5
350.283	1085.5
354.269	1082.5
358.252	1064.5
362.232	1070.16667
366.209	1067.16667
370.182	1065.83333
374.152	1062.16667
378.119	1058.5
382.083	1051.83333
386.043	1060.16667
390	1055.5
393.954	1069.83333
397.905	1067.83333
401.852	1075.83333
405.797	1068.5
409.738	1045.16667
413.676	1066.5
417.61	1073.16667
421.542	1065.16667
425.47	1042.5
429.396	1034.5
433.318	1028.5
437.236	1015.16667
441.152	1071.5
445.065	1012.83333
448.974	1017.83333
452.88	1009.16667
456.783	1007.83333
460.683	1002.16667
464.58	1021.16667
468.473	1027.83333
472.364	1031.5
476.251	1015.16667
480.135	1021.5
484.016	1043.83333
487.894	1045.5
491.769	1034.5
495.641	1040.5
499.509	1041.83333
503.375	1048.5
507.237	1040.83333
511.096	1029.83333
514.952	1045.16667
518.805	1047.83333
522.655	1051.5
526.502	1015.83333
530.346	1050.16667
534.187	1037.5
538.024	1018.83333
541.859	1024.16667
545.69	1037.16667
549.519	1042.83333
553.344	1030.83333
557.166	1019.5
560.985	1016.5
564.802	1015.5
568.615	1002.83333
572.425	995.16667
576.232	988.16667
580.036	997.5
583.836	992.83333
587.634	995.16667
591.429	987.5
595.221	1008.5
599.01	1009.83333
602.796	1017.16667
606.578	1007.83333
610.358	1029.83333
614.135	1011.5
617.909	1028.5
621.679	1019.5
625.447	993.16667
629.212	997.16667
632.973	997.16667
636.732	993.5
640.488	1000.5
644.241	969.16667
647.991	978.5
651.737	997.83333
655.481	958.83333
659.222	981.5
662.96	975.83333
666.695	988.83333
670.427	995.83333
674.156	991.5
677.882	993.16667
681.605	1001.83333
685.325	978.16667
689.043	1008.83333
692.757	984.5
696.468	980.83333
700.177	978.5
703.882	962.83333
707.585	961.16667
711.284	965.16667
714.981	946.16667
718.675	955.83333
722.366	967.83333
726.054	948.16667
729.739	963.16667
733.421	945.5
737.1	953.16667
740.777	972.83333
744.45	966.5
748.121	963.5
751.789	992.16667
755.453	975.83333
759.115	967.5
762.774	979.83333
766.431	987.5
770.084	984.83333
773.734	988.16667
777.382	995.16667
781.027	1008.16667
784.669	1005.83333
788.308	996.83333
791.944	1020.5
795.577	1029.5
799.208	1020.5
802.835	1018.5
806.46	1031.5
810.082	1031.16667
813.701	1029.83333
817.317	1035.5
820.931	1041.83333
824.542	1049.5
828.149	1022.16667
831.754	1001.83333
835.357	1015.83333
838.956	999.5
842.553	1028.16667
846.146	991.5
849.737	975.5
853.326	990.5
856.911	978.83333
860.493	1005.16667
864.073	998.83333
867.65	1021.5
871.225	1017.16667
874.796	1012.83333
878.365	1001.83333
881.931	1020.16667
885.494	1031.5
889.054	1012.83333
892.612	1006.83333
896.166	1011.5
899.719	975.83333
903.268	977.16667
906.814	972.5
910.358	965.5
913.899	963.16667
917.438	964.83333
920.973	942.16667
924.506	968.16667
928.036	975.16667
931.564	986.16667
935.088	1007.83333
938.61	985.83333
942.129	993.5
945.646	1013.5
949.16	1010.83333
952.671	1018.5
956.179	1030.16667
959.685	1026.16667
963.188	1036.5
966.688	1021.83333
970.185	984.83333
973.68	964.16667
977.173	976.16667
980.662	942.16667
984.149	971.16667
987.633	947.83333
991.114	939.83333
994.593	971.5
998.069	990.5
1001.542	1012.5
1005.013	1006.83333
1008.481	940.83333
1011.947	931.83333
1015.409	922.83333
1018.869	926.16667
1022.327	934.83333
1025.782	899.83333
1029.234	892.83333
1032.683	889.16667
1036.13	869.83333
1039.574	844.83333
1043.016	832.16667
1046.455	806.5
1049.891	809.16667
1053.325	830.5
1056.756	813.16667
1060.184	822.16667
1063.61	797.16667
1067.033	822.83333
1070.454	815.83333
1073.872	833.83333
1077.287	803.16667
1080.7	826.16667
1084.11	816.83333
1087.517	807.5
1090.922	811.83333
1094.325	788.5
1097.724	784.83333
1101.122	793.5
1104.516	782.16667
1107.908	770.83333
1111.298	789.16667
1114.684	798.83333
1118.069	787.16667
1121.45	817.5
1124.83	787.83333
1128.206	819.16667
1131.58	820.16667
1134.951	833.83333
1138.32	850.83333
1141.687	878.16667
1145.05	888.16667
1148.412	880.16667
1151.77	899.83333
1155.126	880.83333
1158.48	866.5
1161.831	868.83333
1165.18	869.16667
1168.525	888.83333
1171.869	906.16667
1175.21	899.83333
1178.548	920.5
1181.884	912.5
1185.217	920.5
1188.548	964.16667
1191.877	964.83333
1195.202	1013.5
1198.526	1028.83333
1201.846	1028.16667
1205.165	1016.16667
1208.48	1017.83333
1211.794	1007.83333
1215.104	1022.16667
1218.413	1008.83333
1221.719	1015.5
1225.022	973.83333
1228.323	976.5
1231.621	973.16667
1234.917	972.83333
1238.21	992.16667
1241.501	957.5
1244.79	949.16667
1248.076	942.5
1251.359	962.5
1254.64	1006.83333
1257.919	978.83333
1261.195	998.5
1264.468	1016.5
1267.74	1019.5
1271.008	1012.83333
1274.275	1013.83333
1277.538	1019.16667
1280.8	1009.83333
1284.059	995.83333
1287.315	1012.16667
1290.569	1018.5
1293.821	1029.16667
1297.07	1029.83333
1300.317	1041.16667
1303.562	1050.5
1306.803	1032.16667
1310.043	1019.5
1313.28	1016.16667
1316.515	1017.16667
1319.747	1014.83333
1322.977	986.5
1326.204	996.83333
1329.429	971.16667
1332.652	978.5
1335.872	975.83333
1339.09	958.16667
1342.306	954.83333
1345.519	947.5
1348.729	930.16667
1351.938	946.5
1355.144	940.5
1358.347	919.5
1361.548	933.16667
1364.747	931.83333
1367.944	907.83333
1371.138	919.83333
1374.329	918.83333
1377.518	923.5
1380.705	912.5
1383.89	922.5
1387.072	881.83333
1390.252	853.16667
1393.429	845.5
1396.605	820.16667
1399.777	794.83333
1402.948	792.5
1406.116	781.83333
1409.282	781.16667
1412.445	788.5
1415.606	806.5
1418.765	781.16667
1421.921	804.16667
1425.075	810.5
1428.227	829.16667
1431.376	877.5
1434.524	889.5
1437.668	903.5
1440.811	914.16667
1443.951	929.16667
1447.089	928.5
1450.224	925.5
1453.357	918.83333
1456.488	914.16667
1459.617	912.16667
1462.743	893.5
1465.867	863.16667
1468.989	876.83333
1472.108	844.83333
1475.225	837.5
1478.34	836.16667
1481.453	814.16667
1484.563	819.5
1487.671	839.16667
1490.776	828.5
1493.88	835.83333
1496.981	864.5
1500.08	872.83333
1503.176	858.5
1506.271	868.5
1509.363	888.16667
1512.452	881.83333
1515.54	900.16667
1518.625	911.16667
1521.708	943.16667
1524.789	970.5
1527.867	994.5
1530.944	1030.83333
1534.018	1067.5
1537.089	1111.83333
1540.159	1102.16667
1543.226	1123.5
1546.291	1095.16667
1549.354	1066.83333
1552.415	1064.83333
1555.473	1039.16667
1558.529	1033.16667
1561.583	1011.83333
1564.634	995.5
1567.684	1000.16667
1570.731	994.16667
1573.776	1011.16667
1576.819	1018.5
1579.859	1024.83333
1582.898	1021.5
1585.934	1061.5
1588.968	1052.16667
1591.999	1031.16667
1595.029	1032.16667
1598.056	1055.16667
1601.081	1076.83333
1604.104	1063.16667
1607.125	1042.5
1610.144	1030.16667
1613.16	986.16667
1616.174	974.16667
1619.186	964.16667
1622.196	943.5
1625.203	911.5
1628.209	918.5
1631.212	902.16667
1634.213	909.5
1637.212	913.83333
1640.209	898.5
1643.203	864.16667
1646.196	849.5
1649.186	816.5
1652.174	804.16667
1655.16	776.83333
1658.144	755.16667
1661.125	727.83333
1664.105	706.83333
1667.082	687.83333
1670.057	642.83333
1673.03	614.5
1676.001	588.16667
1678.97	541.83333
1681.937	535.16667
1684.901	501.83333
1687.863	493.16667
1690.824	467.5
1693.782	474.5
1696.738	434.83333
1699.692	444.5
1702.643	431.5
1705.593	422.5
1708.54	420.16667
1711.486	431.5
1714.429	400.16667
1717.37	411.83333
1720.309	410.5
1723.246	409.5
1726.181	401.16667
1729.113	393.83333
1732.044	393.83333
1734.972	401.16667
1737.899	406.83333
1740.823	405.16667
1743.745	413.83333
1746.665	375.83333
1749.583	369.5
1752.499	369.16667
1755.413	356.16667
1758.325	353.5
1761.235	362.5
1764.142	349.83333
1767.048	355.83333
1769.951	348.5
1772.852	357.5
1775.752	356.5
1778.649	354.5
1781.544	364.83333
1784.437	340.5
1787.328	353.5
1790.217	346.83333
1793.104	317.83333
1795.989	329.5
1798.872	324.83333
1801.753	344.16667
1804.631	328.83333
1807.508	336.83333
1810.383	331.16667
1813.255	325.16667
1816.126	326.16667
1818.994	324.5
1821.861	319.83333
1824.725	332.5
1827.587	330.83333
1830.448	322.83333
1833.306	314.16667
1836.162	328.16667
1839.017	320.83333
1841.869	313.16667
1844.719	321.16667
1847.567	303.5
1850.414	302.83333
1853.258	292.83333
1856.1	316.5
1858.94	317.16667
1861.778	306.16667
1864.614	299.16667
1867.448	313.16667
1870.28	289.83333
1873.111	319.16667
1875.939	306.5
1878.765	314.5
1881.589	298.16667
1884.411	302.16667
1887.231	313.16667
1890.049	303.83333
1892.865	309.83333
1895.68	291.83333
1898.492	306.83333
1901.302	295.16667
1904.11	298.16667
1906.916	293.83333
1909.721	279.16667
1912.523	296.83333
1915.323	284.5
1918.122	285.83333
1920.918	304.5
1923.712	274.5
1926.505	283.83333
1929.295	268.83333
1932.084	285.83333
1934.87	286.83333
1937.655	273.16667
1940.438	276.83333
1943.218	281.83333
1945.997	282.83333
1948.774	286.16667
1951.549	285.16667
1954.322	278.83333
1957.093	283.16667
1959.862	273.16667
1962.629	278.83333
1965.394	278.83333
1968.157	259.16667
1970.918	281.83333
1973.678	263.5
1976.435	271.5
1979.19	276.5
1981.944	258.16667
1984.696	269.16667
1987.445	260.5
1990.193	266.16667
1992.939	278.16667
1995.683	268.83333
1998.425	246.5
2001.165	282.16667
2003.903	247.16667
2006.639	261.83333
2009.374	261.5
2012.106	261.83333
2014.837	245.16667
2017.566	264.83333
2020.292	260.83333
2023.017	257.16667
2025.74	249.16667
2028.461	241.83333
2031.18	252.83333
2033.898	245.83333
2036.613	254.16667
2039.327	255.83333
2042.038	240.5
2044.748	248.83333
2047.456	254.16667
2050.162	232.5
2052.866	244.83333
2055.568	257.5
2058.268	236.5
2060.967	253.83333
2063.663	232.5
2066.358	242.5
2069.051	231.83333
2071.742	238.16667
2074.431	246.83333
2077.118	249.83333
2079.804	227.83333
2082.487	236.83333
2085.169	247.83333
2087.849	260.83333
2090.527	232.83333
2093.203	238.5
2095.877	243.83333
2098.55	241.5
2101.22	246.16667
2103.889	251.5
2106.556	241.83333
2109.221	250.83333
2111.884	248.83333
2114.546	271.16667
2117.205	264.16667
2119.863	305.83333
2122.519	293.83333
2125.173	312.5
2127.825	342.83333
2130.475	342.5
2133.124	325.83333
2135.771	310.83333
2138.416	320.5
2141.059	292.83333
2143.7	289.83333
2146.339	267.16667
2148.977	245.5
2151.613	260.83333
2154.247	253.16667
2156.879	249.16667
2159.51	233.16667
2162.138	230.5
2164.765	234.16667
2167.39	218.83333
2170.013	247.83333
2172.634	237.83333
2175.254	228.5
2177.872	262.5
2180.488	216.83333
2183.102	218.16667
2185.714	221.83333
2188.325	212.83333
2190.934	217.16667
2193.541	226.5
2196.146	222.83333
2198.75	199.5
2201.351	203.83333
2203.951	197.5
2206.549	214.83333
2209.146	210.16667
2211.74	206.83333
2214.333	220.5
2216.924	192.5
2219.514	201.16667
2222.101	196.16667
2224.687	218.16667
2227.271	190.16667
2229.853	197.83333
2232.433	184.83333
2235.012	207.83333
2237.589	203.5
2240.164	216.83333
2242.738	196.5
2245.309	187.5
2247.879	209.5
2250.448	208.5
2253.014	187.83333
2255.579	175.5
2258.142	188.16667
2260.703	184.83333
2263.262	182.16667
2265.82	179.83333
2268.376	199.83333
2270.93	181.83333
2273.483	172.16667
2276.033	186.16667
2278.583	177.5
2281.13	181.5
2283.675	175.16667
2286.219	177.83333
2288.761	184.5
2291.302	187.5
2293.841	194.5
2296.377	170.5
2298.913	181.16667
2301.446	190.83333
2303.978	178.16667
2306.508	179.16667
2309.037	174.16667
2311.563	174.83333
2314.088	187.5
2316.612	161.16667
2319.133	180.5
2321.653	180.5
2324.171	170.83333
2326.688	186.83333
2329.202	177.16667
2331.715	176.5
2334.227	175.16667
2336.736	173.16667
2339.244	169.16667
2341.751	157.5
2344.255	175.83333
2346.758	168.5
2349.259	161.5
2351.759	175.5
2354.257	163.5
2356.753	162.5
2359.247	153.83333
2361.74	164.83333
2364.231	163.16667
2366.721	172.16667
2369.209	154.5
2371.695	163.16667
2374.179	160.16667
2376.662	153.83333
2379.143	182.83333
2381.622	163.5
2384.1	170.83333
2386.576	160.83333
2389.051	173.5
2391.524	175.83333
2393.995	171.83333
2396.464	159.16667
2398.932	153.16667
2401.398	161.5
2403.863	155.16667
2406.325	156.5
2408.787	163.83333
2411.246	158.83333
2413.704	157.5
2416.16	151.5
2418.615	155.5
2421.068	163.5
2423.519	157.83333
2425.969	151.16667
2428.417	171.5
2430.863	171.5
2433.308	159.5
2435.751	162.5
2438.193	157.83333
2440.633	157.83333
2443.071	163.5
2445.508	154.16667
2447.943	152.5
2450.376	151.5
2452.808	160.83333
2455.238	141.5
2457.667	180.16667
2460.093	144.83333
2462.519	139.16667
2464.942	145.16667
2467.365	157.5
2469.785	156.83333
2472.204	146.16667
2474.621	147.16667
2477.037	168.16667
2479.451	137.5
2481.863	139.5
2484.274	141.5
2486.683	153.83333
2489.091	155.5
2491.497	155.16667
2493.901	151.16667
2496.304	139.83333
2498.705	158.5
2501.105	150.16667
2503.503	166.5
2505.899	141.5
2508.294	161.83333
2510.687	141.16667
2513.079	143.83333
2515.469	141.5
2517.858	141.16667
2520.245	159.5
2522.63	145.16667
2525.014	139.5
2527.396	141.83333
2529.776	142.83333
2532.156	147.5
2534.533	132.83333
2536.909	134.16667
2539.283	123.16667
2541.656	135.16667
2544.027	148.16667
2546.397	146.83333
2548.765	142.83333
2551.131	141.5
2553.496	143.16667
2555.86	146.5
2558.221	147.5
2560.582	137.5
2562.94	130.83333
2565.298	140.83333
2567.653	151.5
2570.007	126.5
2572.36	147.16667
2574.711	132.5
2577.06	146.16667
2579.408	141.16667
2581.754	131.83333
2584.099	139.5
2586.442	132.83333
2588.784	146.83333
2591.124	135.5
2593.463	135.83333
2595.8	143.16667
2598.135	127.16667
2600.469	127.83333
2602.802	144.16667
2605.133	142.16667
2607.462	132.5
2609.79	129.83333
2612.116	141.16667
2614.441	134.83333
2616.764	138.5
2619.086	136.83333
2621.406	140.5
2623.725	143.83333
2626.042	134.5
2628.358	130.5
2630.672	136.16667
2632.985	143.5
2635.296	139.5
2637.606	135.16667
2639.914	135.5
2642.22	131.83333
2644.525	137.83333
2646.829	137.16667
2649.131	147.5
2651.432	139.5
2653.731	126.5
2656.028	147.16667
2658.324	145.5
2660.619	124.5
2662.912	143.16667
2665.204	120.5
2667.494	145.83333
2669.782	126.83333
2672.07	141.5
2674.355	144.16667
2676.639	145.83333
2678.922	131.83333
2681.203	145.5
2683.483	131.16667
2685.761	127.16667
2688.038	143.5
2690.313	142.83333
2692.587	137.16667
2694.859	138.16667
2697.13	136.83333
2699.399	137.83333
2701.667	147.83333
2703.933	139.5
2706.198	148.16667
2708.461	145.16667
2710.723	141.16667
2712.984	144.83333
2715.243	152.16667
2717.5	142.16667
2719.757	157.5
2722.011	144.16667
2724.264	152.83333
2726.516	159.16667
2728.766	140.16667
2731.015	142.5
2733.262	143.5
2735.508	142.16667
2737.753	146.16667
2739.996	134.83333
2742.237	139.16667
2744.477	146.5
2746.716	163.16667
2748.953	153.83333
2751.189	152.83333
2753.423	144.16667
2755.656	136.5
2757.887	133.83333
2760.117	137.16667
2762.346	130.5
2764.573	127.5
2766.798	136.83333
2769.022	137.5
2771.245	131.5
2773.467	136.5
2775.686	131.83333
2777.905	141.5
2780.122	137.5
2782.337	148.16667
2784.552	132.5
2786.764	143.83333
2788.976	128.5
2791.186	136.16667
2793.394	137.5
2795.601	150.5
2797.807	149.16667
2800.011	144.5
2802.214	148.83333
2804.415	147.83333
2806.615	145.5
2808.814	146.16667
2811.011	152.16667
2813.206	148.83333
2815.401	167.5
2817.594	158.83333
2819.785	161.5
2821.975	148.5
2824.164	154.5
2826.351	159.83333
2828.537	170.5
2830.722	162.83333
2832.905	169.16667
2835.086	168.5
2837.267	192.5
2839.445	185.5
2841.623	189.16667
2843.799	178.16667
2845.974	194.5
2848.147	193.83333
2850.319	206.5
2852.489	214.5
2854.659	217.16667
2856.826	219.5
2858.993	239.83333
2861.158	209.16667
2863.321	225.5
2865.483	239.16667
2867.644	235.5
2869.804	227.5
2871.962	216.83333
2874.118	230.16667
2876.274	226.5
2878.428	228.5
2880.58	233.16667
2882.731	218.83333
2884.881	227.16667
2887.03	235.16667
2889.177	227.5
2891.322	234.16667
2893.467	226.83333
2895.61	228.5
2897.751	238.5
2899.892	232.5
2902.03	239.16667
2904.168	235.5
2906.304	233.5
2908.439	254.16667
2910.572	230.83333
2912.704	232.16667
2914.835	243.16667
2916.965	244.5
2919.093	249.83333
2921.219	222.83333
2923.345	251.5
2925.469	235.83333
2927.591	232.83333
2929.712	216.5
2931.832	229.16667
2933.951	237.83333
2936.068	218.16667
2938.184	219.5
2940.299	206.83333
2942.412	214.16667
2944.524	191.16667
2946.634	204.5
2948.744	181.16667
2950.851	213.83333
2952.958	178.83333
2955.063	188.5
2957.167	184.16667
2959.269	168.5
2961.371	195.16667
2963.471	169.16667
2965.569	186.83333
2967.666	159.5
2969.762	152.16667
2971.857	154.83333
2973.95	153.16667
2976.042	156.16667
2978.133	145.83333
2980.222	151.83333
2982.31	136.5
2984.396	128.16667
2986.482	130.83333
2988.566	138.16667
2990.648	139.5
2992.73	136.16667
2994.81	120.5
2996.889	143.5
2998.966	133.83333
3001.042	139.16667
3003.117	129.83333
3005.191	135.83333
3007.263	136.16667
3009.334	125.83333
3011.403	135.5
3013.472	122.16667
3015.539	140.5
3017.604	151.83333
3019.669	116.5
3021.732	124.5
3023.794	125.16667
3025.854	117.5
3027.914	111.16667
3029.971	117.16667
3032.028	116.5
3034.083	126.5
3036.137	126.16667
3038.19	109.5
3040.242	103.83333
3042.292	106.5
3044.341	113.5
3046.388	123.5
3048.435	102.16667
3050.48	124.16667
3052.524	115.83333
3054.566	92.5
3056.607	109.16667
3058.647	102.83333
3060.686	98.5
3062.723	90.16667
3064.759	90.5
3066.794	3.16667
3068.828	0.16667
3070.86	2.83333
