-0.839	144.08333
3.438	160.08333
7.711	68.41667
11.981	42.75
16.247	26.08333
20.509	38.75
24.768	35.75
29.024	43.08333
33.276	31.75
37.524	40.41667
41.769	28.08333
46.01	28.08333
50.247	44.08333
54.481	47.75
58.712	52.08333
62.939	38.75
67.162	55.75
71.382	44.41667
75.599	36.08333
79.812	44.75
84.021	60.41667
88.227	40.08333
92.429	50.41667
96.628	40.75
100.823	49.41667
105.015	54.08333
109.204	50.41667
113.388	60.08333
117.57	44.41667
121.748	59.41667
125.922	48.41667
130.093	62.08333
134.261	67.08333
138.425	53.41667
142.585	85.41667
146.742	65.75
150.896	78.75
155.046	75.75
159.193	116.41667
163.336	163.75
167.476	276.41667
171.613	509.75
175.746	815.41667
179.875	1169.75
184.002	1530.75
188.124	1803.08333
192.244	1875.08333
196.36	1910.75
200.472	1889.41667
204.581	1841.08333
208.687	1797.08333
212.79	1803.41667
216.889	1809.75
220.984	1813.41667
225.077	1828.08333
229.165	1822.41667
233.251	1834.41667
237.333	1819.41667
241.412	1821.75
245.487	1809.41667
249.559	1770.08333
253.628	1788.08333
257.694	1780.08333
261.756	1741.75
265.814	1725.08333
269.87	1663.41667
273.922	1628.75
277.97	1599.75
282.016	1611.75
286.058	1582.08333
290.097	1622.75
294.132	1620.75
298.164	1626.75
302.193	1571.41667
306.219	1472.08333
310.241	1386.75
314.26	1287.08333
318.276	1222.08333
322.288	1196.08333
326.297	1146.41667
330.303	1117.08333
334.305	1101.41667
338.305	1084.08333
342.301	1074.41667
346.294	1063.08333
350.283	1067.75
354.269	1070.41667
358.252	1050.41667
362.232	1066.75
366.209	1051.08333
370.182	1054.41667
374.152	1037.08333
378.119	1059.08333
382.083	1037.41667
386.043	1061.41667
390	1034.41667
393.954	1050.75
397.905	1040.75
401.852	1057.08333
405.797	1030.75
409.738	1044.75
413.676	1049.75
417.61	1056.41667
421.542	1033.08333
425.47	1029.75
429.396	1019.75
433.318	1014.41667
437.236	1009.75
441.152	1052.41667
445.065	996.41667
448.974	998.75
452.88	985.75
456.783	990.41667
460.683	988.75
464.58	1001.75
468.473	1006.41667
472.364	992.08333
476.251	1003.75
480.135	1003.75
484.016	1010.41667
487.894	1026.41667
491.769	1019.75
495.641	1033.41667
499.509	1021.41667
503.375	1028.08333
507.237	1018.08333
511.096	1009.75
514.952	1022.41667
518.805	1021.41667
522.655	1026.75
526.502	1022.08333
530.346	1024.41667
534.187	1007.08333
538.024	1028.41667
541.859	1003.41667
545.69	1037.75
549.519	1028.08333
553.344	1019.08333
557.166	1006.08333
560.985	992.08333
564.802	986.41667
568.615	998.41667
572.425	965.41667
576.232	967.41667
580.036	970.75
583.836	972.75
587.634	987.08333
591.429	968.41667
595.221	989.75
599.01	1005.08333
602.796	980.75
606.578	999.08333
610.358	1003.41667
614.135	988.08333
617.909	998.41667
621.679	986.75
625.447	981.41667
629.212	984.08333
632.973	992.75
636.732	976.41667
640.488	972.75
644.241	967.75
647.991	964.75
651.737	992.41667
655.481	959.08333
659.222	952.08333
662.96	951.75
666.695	980.41667
670.427	976.75
674.156	980.75
677.882	974.41667
681.605	978.75
685.325	957.08333
689.043	991.75
692.757	962.75
696.468	968.75
700.177	963.75
703.882	947.75
707.585	941.75
711.284	945.41667
714.981	929.41667
718.675	939.41667
722.366	961.41667
726.054	947.41667
729.739	938.08333
733.421	934.75
737.1	932.75
740.777	952.75
744.45	955.41667
748.121	964.75
751.789	983.08333
755.453	952.41667
759.115	972.41667
762.774	960.08333
766.431	961.41667
770.084	972.41667
773.734	970.75
777.382	989.08333
781.027	996.41667
784.669	989.08333
788.308	984.08333
791.944	993.75
795.577	992.75
799.208	994.75
802.835	1013.75
806.46	1008.08333
810.082	1017.75
813.701	1013.08333
817.317	1024.41667
820.931	1018.08333
824.542	1037.41667
828.149	1009.08333
831.754	1006.08333
835.357	1006.41667
838.956	1005.08333
842.553	998.08333
846.146	987.08333
849.737	971.41667
853.326	976.08333
856.911	971.41667
860.493	990.41667
864.073	983.08333
867.65	989.08333
871.225	1008.41667
874.796	1005.08333
878.365	985.41667
881.931	1006.41667
885.494	1017.75
889.054	1001.75
892.612	1020.41667
896.166	991.75
899.719	979.41667
903.268	965.75
906.814	964.08333
910.358	963.75
913.899	939.75
917.438	957.41667
920.973	929.75
924.506	936.75
928.036	974.08333
931.564	974.41667
935.088	982.75
938.61	983.08333
942.129	964.08333
945.646	986.08333
949.16	1001.41667
952.671	1018.41667
956.179	1022.41667
959.685	1008.08333
963.188	1039.41667
966.688	1011.08333
970.185	981.08333
973.68	954.75
977.173	947.41667
980.662	939.75
984.149	947.08333
987.633	918.41667
991.114	939.75
994.593	959.75
998.069	970.41667
1001.542	991.08333
1005.013	974.08333
1008.481	925.75
1011.947	926.41667
1015.409	904.08333
1018.869	914.75
1022.327	924.75
1025.782	904.41667
1029.234	885.75
1032.683	878.75
1036.13	866.75
1039.574	838.41667
1043.016	828.75
1046.455	807.75
1049.891	787.75
1053.325	813.08333
1056.756	795.75
1060.184	811.41667
1063.61	792.75
1067.033	822.08333
1070.454	797.41667
1073.872	827.41667
1077.287	805.41667
1080.7	814.75
1084.11	808.75
1087.517	812.41667
1090.922	791.41667
1094.325	788.08333
1097.724	794.08333
1101.122	762.41667
1104.516	779.75
1107.908	773.08333
1111.298	771.41667
1114.684	781.08333
1118.069	782.08333
1121.45	813.41667
1124.83	793.75
1128.206	803.41667
1131.58	807.08333
1134.951	820.75
1138.32	837.08333
1141.687	883.41667
1145.05	881.08333
1148.412	885.41667
1151.77	880.41667
1155.126	875.08333
1158.48	865.41667
1161.831	874.41667
1165.18	865.75
1168.525	897.41667
1171.869	894.75
1175.21	885.08333
1178.548	907.41667
1181.884	916.41667
1185.217	916.41667
1188.548	947.41667
1191.877	955.08333
1195.202	985.08333
1198.526	1012.75
1201.846	1005.41667
1205.165	998.08333
1208.48	1012.75
1211.794	999.41667
1215.104	1003.41667
1218.413	1004.41667
1221.719	986.75
1225.022	985.08333
1228.323	967.75
1231.621	975.75
1234.917	957.41667
1238.21	987.41667
1241.501	963.08333
1244.79	951.75
1248.076	925.08333
1251.359	972.08333
1254.64	991.08333
1257.919	976.41667
1261.195	991.75
1264.468	1007.08333
1267.74	1020.08333
1271.008	1000.75
1274.275	1010.41667
1277.538	1006.08333
1280.8	996.08333
1284.059	1002.41667
1287.315	1011.08333
1290.569	1006.08333
1293.821	1011.08333
1297.07	1026.08333
1300.317	1019.08333
1303.562	1027.08333
1306.803	1026.08333
1310.043	1008.08333
1313.28	1008.08333
1316.515	1010.75
1319.747	1005.41667
1322.977	979.41667
1326.204	985.75
1329.429	984.75
1332.652	966.75
1335.872	967.41667
1339.09	944.08333
1342.306	958.75
1345.519	948.75
1348.729	932.08333
1351.938	933.08333
1355.144	919.41667
1358.347	905.08333
1361.548	913.75
1364.747	915.08333
1367.944	887.75
1371.138	899.75
1374.329	899.75
1377.518	903.08333
1380.705	905.41667
1383.89	916.08333
1387.072	873.41667
1390.252	863.41667
1393.429	839.08333
1396.605	816.41667
1399.777	782.75
1402.948	791.75
1406.116	756.08333
1409.282	772.75
1412.445	774.08333
1415.606	777.75
1418.765	782.08333
1421.921	796.08333
1425.075	800.41667
1428.227	844.41667
1431.376	857.08333
1434.524	879.41667
1437.668	899.08333
1440.811	913.75
1443.951	919.08333
1447.089	923.75
1450.224	912.41667
1453.357	914.41667
1456.488	900.75
1459.617	890.08333
1462.743	891.75
1465.867	849.75
1468.989	862.08333
1472.108	850.08333
1475.225	844.75
1478.34	823.41667
1481.453	810.08333
1484.563	815.41667
1487.671	823.75
1490.776	834.41667
1493.88	830.08333
1496.981	845.75
1500.08	850.41667
1503.176	863.41667
1506.271	868.75
1509.363	879.41667
1512.452	883.08333
1515.54	889.75
1518.625	893.41667
1521.708	932.75
1524.789	950.41667
1527.867	980.75
1530.944	1021.41667
1534.018	1038.08333
1537.089	1095.08333
1540.159	1108.08333
1543.226	1118.08333
1546.291	1088.41667
1549.354	1078.08333
1552.415	1060.75
1555.473	1036.75
1558.529	1022.08333
1561.583	1012.08333
1564.634	986.41667
1567.684	983.75
1570.731	978.08333
1573.776	1012.75
1576.819	1011.75
1579.859	1013.08333
1582.898	1025.41667
1585.934	1046.08333
1588.968	1059.75
1591.999	1033.41667
1595.029	1031.75
1598.056	1048.08333
1601.081	1068.41667
1604.104	1053.41667
1607.125	1032.41667
1610.144	1020.75
1613.16	990.75
1616.174	974.08333
1619.186	963.08333
1622.196	935.41667
1625.203	915.08333
1628.209	914.08333
1631.212	895.08333
1634.213	898.08333
1637.212	910.08333
1640.209	904.41667
1643.203	866.75
1646.196	847.41667
1649.186	805.41667
1652.174	791.08333
1655.16	780.41667
1658.144	765.41667
1661.125	729.08333
1664.105	706.08333
1667.082	680.75
1670.057	643.75
1673.03	610.08333
1676.001	581.08333
1678.97	552.41667
1681.937	518.08333
1684.901	499.75
1687.863	483.75
1690.824	462.75
1693.782	471.08333
1696.738	436.75
1699.692	441.08333
1702.643	422.75
1705.593	434.08333
1708.54	414.41667
1711.486	430.41667
1714.429	402.75
1717.37	420.08333
1720.309	402.41667
1723.246	408.08333
1726.181	393.75
1729.113	389.41667
1732.044	392.75
1734.972	384.41667
1737.899	404.08333
1740.823	397.75
1743.745	414.08333
1746.665	367.75
1749.583	373.75
1752.499	367.75
1755.413	366.41667
1758.325	346.41667
1761.235	364.41667
1764.142	348.08333
1767.048	341.75
1769.951	344.75
1772.852	335.41667
1775.752	358.08333
1778.649	349.75
1781.544	359.08333
1784.437	332.75
1787.328	345.41667
1790.217	341.41667
1793.104	316.41667
1795.989	318.75
1798.872	323.75
1801.753	338.08333
1804.631	330.41667
1807.508	336.41667
1810.383	324.75
1813.255	335.41667
1816.126	323.75
1818.994	324.08333
1821.861	315.41667
1824.725	322.08333
1827.587	327.08333
1830.448	318.75
1833.306	312.08333
1836.162	322.41667
1839.017	314.08333
1841.869	308.41667
1844.719	311.08333
1847.567	300.08333
1850.414	296.41667
1853.258	294.75
1856.1	308.41667
1858.94	314.41667
1861.778	311.75
1864.614	300.75
1867.448	308.08333
1870.28	288.08333
1873.111	315.75
1875.939	290.75
1878.765	312.41667
1881.589	300.75
1884.411	304.41667
1887.231	313.08333
1890.049	295.75
1892.865	301.75
1895.68	287.75
1898.492	298.75
1901.302	294.41667
1904.11	288.75
1906.916	296.75
1909.721	280.08333
1912.523	297.41667
1915.323	285.08333
1918.122	279.41667
1920.918	294.75
1923.712	269.08333
1926.505	293.41667
1929.295	267.41667
1932.084	287.41667
1934.87	280.75
1937.655	273.75
1940.438	275.75
1943.218	274.75
1945.997	284.08333
1948.774	290.75
1951.549	285.75
1954.322	275.08333
1957.093	271.08333
1959.862	261.75
1962.629	272.75
1965.394	269.41667
1968.157	259.41667
1970.918	282.41667
1973.678	259.41667
1976.435	270.75
1979.19	269.08333
1981.944	252.75
1984.696	264.08333
1987.445	258.08333
1990.193	265.08333
1992.939	273.08333
1995.683	263.08333
1998.425	239.75
2001.165	277.08333
2003.903	245.41667
2006.639	258.08333
2009.374	259.41667
2012.106	262.41667
2014.837	228.08333
2017.566	264.08333
2020.292	247.75
2023.017	250.08333
2025.74	246.41667
2028.461	244.41667
2031.18	252.41667
2033.898	246.75
2036.613	251.75
2039.327	253.75
2042.038	239.41667
2044.748	247.75
2047.456	252.41667
2050.162	241.08333
2052.866	236.75
2055.568	257.41667
2058.268	245.08333
2060.967	253.75
2063.663	232.08333
2066.358	231.08333
2069.051	230.75
2071.742	239.75
2074.431	247.41667
2077.118	242.08333
2079.804	218.75
2082.487	232.08333
2085.169	251.41667
2087.849	257.08333
2090.527	236.08333
2093.203	246.08333
2095.877	238.41667
2098.55	235.41667
2101.22	248.08333
2103.889	251.08333
2106.556	234.41667
2109.221	253.41667
2111.884	237.75
2114.546	258.75
2117.205	279.41667
2119.863	302.08333
2122.519	289.75
2125.173	315.41667
2127.825	340.08333
2130.475	343.75
2133.124	326.75
2135.771	305.08333
2138.416	323.08333
2141.059	290.08333
2143.7	289.75
2146.339	269.41667
2148.977	246.75
2151.613	257.75
2154.247	254.41667
2156.879	244.41667
2159.51	235.08333
2162.138	234.41667
2164.765	229.75
2167.39	218.41667
2170.013	247.75
2172.634	231.75
2175.254	227.08333
2177.872	260.08333
2180.488	213.75
2183.102	225.75
2185.714	221.75
2188.325	211.75
2190.934	224.41667
2193.541	225.41667
2196.146	216.08333
2198.75	207.75
2201.351	202.08333
2203.951	196.75
2206.549	207.08333
2209.146	205.08333
2211.74	198.08333
2214.333	214.75
2216.924	195.75
2219.514	202.41667
2222.101	200.41667
2224.687	215.08333
2227.271	192.75
2229.853	189.75
2232.433	185.41667
2235.012	206.08333
2237.589	202.75
2240.164	213.41667
2242.738	194.08333
2245.309	186.41667
2247.879	202.41667
2250.448	200.41667
2253.014	188.75
2255.579	176.08333
2258.142	192.75
2260.703	186.75
2263.262	184.75
2265.82	170.41667
2268.376	191.08333
2270.93	182.75
2273.483	175.08333
2276.033	184.08333
2278.583	178.41667
2281.13	179.08333
2283.675	164.41667
2286.219	180.75
2288.761	185.41667
2291.302	179.08333
2293.841	195.41667
2296.377	167.08333
2298.913	176.75
2301.446	191.41667
2303.978	178.41667
2306.508	178.08333
2309.037	180.75
2311.563	176.08333
2314.088	176.08333
2316.612	162.75
2319.133	185.75
2321.653	180.41667
2324.171	167.75
2326.688	183.41667
2329.202	171.41667
2331.715	175.41667
2334.227	173.08333
2336.736	171.08333
2339.244	166.41667
2341.751	161.08333
2344.255	178.08333
2346.758	168.75
2349.259	164.08333
2351.759	176.08333
2354.257	155.75
2356.753	158.75
2359.247	153.08333
2361.74	169.08333
2364.231	161.75
2366.721	173.41667
2369.209	160.75
2371.695	169.75
2374.179	154.41667
2376.662	150.75
2379.143	170.41667
2381.622	162.08333
2384.1	169.75
2386.576	162.08333
2389.051	173.75
2391.524	170.75
2393.995	168.75
2396.464	157.08333
2398.932	153.75
2401.398	165.41667
2403.863	152.08333
2406.325	156.08333
2408.787	161.75
2411.246	156.75
2413.704	159.08333
2416.16	150.08333
2418.615	153.41667
2421.068	159.08333
2423.519	152.75
2425.969	149.41667
2428.417	167.75
2430.863	178.75
2433.308	161.08333
2435.751	164.08333
2438.193	160.08333
2440.633	164.75
2443.071	164.08333
2445.508	153.41667
2447.943	156.75
2450.376	148.75
2452.808	158.41667
2455.238	141.75
2457.667	179.08333
2460.093	143.75
2462.519	138.75
2464.942	145.41667
2467.365	158.08333
2469.785	156.08333
2472.204	147.41667
2474.621	149.08333
2477.037	166.08333
2479.451	138.75
2481.863	136.75
2484.274	147.75
2486.683	146.08333
2489.091	160.41667
2491.497	151.75
2493.901	151.75
2496.304	143.41667
2498.705	158.08333
2501.105	143.08333
2503.503	167.75
2505.899	140.41667
2508.294	159.75
2510.687	142.41667
2513.079	148.08333
2515.469	137.08333
2517.858	138.41667
2520.245	155.41667
2522.63	145.08333
2525.014	142.75
2527.396	138.75
2529.776	143.75
2532.156	148.75
2534.533	130.08333
2536.909	135.75
2539.283	125.08333
2541.656	136.75
2544.027	154.41667
2546.397	140.75
2548.765	142.08333
2551.131	141.75
2553.496	145.41667
2555.86	143.41667
2558.221	147.41667
2560.582	133.08333
2562.94	129.08333
2565.298	136.75
2567.653	151.41667
2570.007	133.41667
2572.36	144.41667
2574.711	130.41667
2577.06	151.08333
2579.408	142.08333
2581.754	137.41667
2584.099	142.75
2586.442	136.08333
2588.784	143.41667
2591.124	140.41667
2593.463	132.75
2595.8	143.41667
2598.135	124.08333
2600.469	130.41667
2602.802	143.75
2605.133	148.75
2607.462	127.75
2609.79	122.75
2612.116	142.41667
2614.441	136.75
2616.764	139.08333
2619.086	134.41667
2621.406	130.08333
2623.725	145.08333
2626.042	134.75
2628.358	127.41667
2630.672	138.75
2632.985	144.08333
2635.296	138.75
2637.606	136.08333
2639.914	125.08333
2642.22	130.08333
2644.525	136.08333
2646.829	134.75
2649.131	151.08333
2651.432	142.08333
2653.731	134.08333
2656.028	145.41667
2658.324	140.41667
2660.619	128.75
2662.912	141.41667
2665.204	120.75
2667.494	143.08333
2669.782	129.41667
2672.07	142.75
2674.355	149.08333
2676.639	140.41667
2678.922	124.41667
2681.203	136.75
2683.483	132.08333
2685.761	130.41667
2688.038	150.75
2690.313	154.75
2692.587	140.75
2694.859	137.08333
2697.13	136.08333
2699.399	138.08333
2701.667	142.41667
2703.933	141.41667
2706.198	147.75
2708.461	143.08333
2710.723	146.75
2712.984	146.75
2715.243	146.75
2717.5	140.08333
2719.757	151.75
2722.011	144.75
2724.264	155.41667
2726.516	159.41667
2728.766	142.41667
2731.015	147.75
2733.262	142.41667
2735.508	136.08333
2737.753	142.41667
2739.996	135.08333
2742.237	136.41667
2744.477	143.75
2746.716	154.41667
2748.953	149.41667
2751.189	153.75
2753.423	141.41667
2755.656	140.08333
2757.887	132.75
2760.117	131.41667
2762.346	132.75
2764.573	118.41667
2766.798	130.08333
2769.022	136.41667
2771.245	128.08333
2773.467	136.75
2775.686	134.41667
2777.905	144.75
2780.122	137.41667
2782.337	141.75
2784.552	135.75
2786.764	134.75
2788.976	136.08333
2791.186	140.41667
2793.394	140.75
2795.601	147.41667
2797.807	147.75
2800.011	143.41667
2802.214	146.41667
2804.415	146.41667
2806.615	147.41667
2808.814	150.41667
2811.011	156.08333
2813.206	149.41667
2815.401	164.08333
2817.594	160.08333
2819.785	161.75
2821.975	149.08333
2824.164	153.08333
2826.351	151.08333
2828.537	171.75
2830.722	166.08333
2832.905	165.08333
2835.086	173.08333
2837.267	186.08333
2839.445	186.08333
2841.623	187.41667
2843.799	189.75
2845.974	193.41667
2848.147	200.08333
2850.319	206.08333
2852.489	214.08333
2854.659	220.08333
2856.826	219.41667
2858.993	233.75
2861.158	220.08333
2863.321	220.75
2865.483	236.08333
2867.644	229.41667
2869.804	226.75
2871.962	224.41667
2874.118	230.75
2876.274	233.41667
2878.428	228.75
2880.58	229.41667
2882.731	214.08333
2884.881	224.41667
2887.03	232.08333
2889.177	226.75
2891.322	232.41667
2893.467	223.75
2895.61	225.41667
2897.751	241.08333
2899.892	225.41667
2902.03	234.08333
2904.168	234.41667
2906.304	234.75
2908.439	251.08333
2910.572	226.41667
2912.704	231.08333
2914.835	239.41667
2916.965	242.41667
2919.093	258.41667
2921.219	224.08333
2923.345	260.41667
2925.469	232.41667
2927.591	230.08333
2929.712	217.08333
2931.832	235.08333
2933.951	229.08333
2936.068	216.08333
2938.184	214.75
2940.299	209.41667
2942.412	202.41667
2944.524	189.75
2946.634	201.08333
2948.744	177.41667
2950.851	210.08333
2952.958	178.75
2955.063	191.41667
2957.167	178.75
2959.269	161.75
2961.371	197.08333
2963.471	173.08333
2965.569	185.75
2967.666	159.08333
2969.762	164.08333
2971.857	151.75
2973.95	149.08333
2976.042	159.41667
2978.133	153.41667
2980.222	149.75
2982.31	138.41667
2984.396	124.41667
2986.482	133.08333
2988.566	141.41667
2990.648	141.41667
2992.73	134.08333
2994.81	122.08333
2996.889	137.41667
2998.966	133.41667
3001.042	143.08333
3003.117	129.41667
3005.191	132.75
3007.263	138.41667
3009.334	130.75
3011.403	134.75
3013.472	124.75
3015.539	143.08333
3017.604	146.08333
3019.669	120.41667
3021.732	120.08333
3023.794	128.08333
3025.854	118.75
3027.914	115.08333
3029.971	115.08333
3032.028	126.08333
3034.083	124.08333
3036.137	126.41667
3038.19	112.08333
3040.242	102.41667
3042.292	105.75
3044.341	111.08333
3046.388	124.41667
3048.435	99.08333
3050.48	121.08333
3052.524	104.41667
3054.566	95.08333
3056.607	110.08333
3058.647	102.41667
3060.686	93.08333
3062.723	88.41667
3064.759	93.08333
3066.794	-0.25
3068.828	1.08333
3070.86	2.08333
