-0.839	150.20833
3.438	168.875
7.711	70.20833
11.981	44.20833
16.247	32.875
20.509	38.20833
24.768	36.54167
29.024	43.54167
33.276	31.54167
37.524	43.54167
41.769	30.20833
46.01	25.54167
50.247	45.20833
54.481	52.875
58.712	56.875
62.939	37.20833
67.162	58.875
71.382	45.875
75.599	38.54167
79.812	41.20833
84.021	62.875
88.227	39.54167
92.429	51.54167
96.628	39.875
100.823	48.875
105.015	48.54167
109.204	47.875
113.388	56.20833
117.57	46.875
121.748	60.54167
125.922	52.54167
130.093	64.54167
134.261	63.20833
138.425	60.54167
142.585	89.20833
146.742	66.875
150.896	83.20833
155.046	76.875
159.193	117.54167
163.336	168.875
167.476	306.875
171.613	530.54167
175.746	866.20833
179.875	1266.20833
184.002	1621.875
188.124	1928.54167
192.244	2024.875
196.36	2020.875
200.472	2027.54167
204.581	1984.54167
208.687	1915.54167
212.79	1933.875
216.889	1910.875
220.984	1938.875
225.077	1954.20833
229.165	1951.54167
233.251	1966.54167
237.333	1963.54167
241.412	1935.20833
245.487	1912.20833
249.559	1889.875
253.628	1896.875
257.694	1878.20833
261.756	1868.875
265.814	1820.20833
269.87	1782.20833
273.922	1725.875
277.97	1698.54167
282.016	1700.875
286.058	1679.875
290.097	1717.875
294.132	1723.875
298.164	1714.875
302.193	1634.875
306.219	1544.54167
310.241	1468.875
314.26	1381.875
318.276	1319.875
322.288	1285.54167
326.297	1259.875
330.303	1218.875
334.305	1218.54167
338.305	1207.875
342.301	1190.54167
346.294	1187.54167
350.283	1183.54167
354.269	1170.20833
358.252	1168.875
362.232	1160.54167
366.209	1156.20833
370.182	1157.875
374.152	1155.20833
378.119	1163.54167
382.083	1150.20833
386.043	1180.875
390	1148.20833
393.954	1165.875
397.905	1153.54167
401.852	1188.875
405.797	1150.54167
409.738	1159.54167
413.676	1161.54167
417.61	1167.875
421.542	1156.875
425.47	1138.20833
429.396	1124.54167
433.318	1114.875
437.236	1116.875
441.152	1169.875
445.065	1121.20833
448.974	1125.20833
452.88	1104.20833
456.783	1098.20833
460.683	1093.875
464.58	1098.875
468.473	1106.20833
472.364	1115.875
476.251	1098.875
480.135	1110.54167
484.016	1130.54167
487.894	1130.54167
491.769	1145.875
495.641	1120.54167
499.509	1133.875
503.375	1133.54167
507.237	1133.20833
511.096	1124.875
514.952	1147.54167
518.805	1153.875
522.655	1146.875
526.502	1128.54167
530.346	1136.875
534.187	1129.54167
538.024	1117.54167
541.859	1122.54167
545.69	1144.875
549.519	1129.20833
553.344	1124.875
557.166	1095.54167
560.985	1086.54167
564.802	1101.54167
568.615	1087.20833
572.425	1078.875
576.232	1066.54167
580.036	1073.54167
583.836	1085.875
587.634	1074.20833
591.429	1068.20833
595.221	1103.20833
599.01	1098.20833
602.796	1102.20833
606.578	1107.54167
610.358	1107.54167
614.135	1102.54167
617.909	1102.20833
621.679	1086.54167
625.447	1086.875
629.212	1088.54167
632.973	1089.875
636.732	1063.54167
640.488	1102.20833
644.241	1058.875
647.991	1063.20833
651.737	1109.20833
655.481	1052.875
659.222	1058.875
662.96	1067.875
666.695	1071.20833
670.427	1079.20833
674.156	1094.20833
677.882	1074.20833
681.605	1075.20833
685.325	1050.20833
689.043	1083.54167
692.757	1056.54167
696.468	1062.20833
700.177	1075.54167
703.882	1043.20833
707.585	1032.875
711.284	1032.54167
714.981	1030.54167
718.675	1039.875
722.366	1051.875
726.054	1030.54167
729.739	1036.875
733.421	1041.875
737.1	1034.54167
740.777	1050.54167
744.45	1051.20833
748.121	1044.875
751.789	1077.875
755.453	1055.54167
759.115	1077.20833
762.774	1070.875
766.431	1061.875
770.084	1070.20833
773.734	1070.875
777.382	1078.20833
781.027	1092.54167
784.669	1075.20833
788.308	1077.20833
791.944	1104.54167
795.577	1111.20833
799.208	1107.20833
802.835	1098.20833
806.46	1121.54167
810.082	1116.875
813.701	1118.54167
817.317	1134.875
820.931	1125.875
824.542	1129.20833
828.149	1108.875
831.754	1105.875
835.357	1093.875
838.956	1113.54167
842.553	1102.20833
846.146	1078.20833
849.737	1065.875
853.326	1060.875
856.911	1047.20833
860.493	1086.875
864.073	1079.875
867.65	1097.875
871.225	1109.875
874.796	1094.20833
878.365	1094.875
881.931	1103.20833
885.494	1119.54167
889.054	1101.54167
892.612	1102.875
896.166	1095.875
899.719	1078.875
903.268	1059.875
906.814	1055.20833
910.358	1037.875
913.899	1026.20833
917.438	1044.54167
920.973	1025.54167
924.506	1041.54167
928.036	1052.20833
931.564	1063.54167
935.088	1086.875
938.61	1079.875
942.129	1070.875
945.646	1087.875
949.16	1084.875
952.671	1116.20833
956.179	1123.20833
959.685	1101.54167
963.188	1140.20833
966.688	1111.875
970.185	1062.875
973.68	1055.875
977.173	1049.20833
980.662	1020.54167
984.149	1044.54167
987.633	1010.54167
991.114	1035.54167
994.593	1048.875
998.069	1056.20833
1001.542	1090.875
1005.013	1065.20833
1008.481	1017.875
1011.947	997.54167
1015.409	997.54167
1018.869	1004.54167
1022.327	1010.875
1025.782	982.20833
1029.234	968.54167
1032.683	968.54167
1036.13	952.20833
1039.574	928.20833
1043.016	906.875
1046.455	886.20833
1049.891	868.20833
1053.325	883.875
1056.756	880.20833
1060.184	888.875
1063.61	879.875
1067.033	899.54167
1070.454	876.54167
1073.872	911.54167
1077.287	876.20833
1080.7	889.54167
1084.11	892.875
1087.517	885.875
1090.922	876.54167
1094.325	854.875
1097.724	845.54167
1101.122	853.54167
1104.516	853.20833
1107.908	823.20833
1111.298	851.875
1114.684	863.875
1118.069	855.20833
1121.45	888.875
1124.83	860.54167
1128.206	868.875
1131.58	880.54167
1134.951	900.20833
1138.32	910.54167
1141.687	953.20833
1145.05	965.20833
1148.412	962.875
1151.77	960.875
1155.126	958.20833
1158.48	945.20833
1161.831	946.875
1165.18	945.20833
1168.525	961.54167
1171.869	967.20833
1175.21	963.875
1178.548	991.54167
1181.884	989.20833
1185.217	989.875
1188.548	1029.875
1191.877	1033.54167
1195.202	1071.54167
1198.526	1090.54167
1201.846	1083.54167
1205.165	1086.875
1208.48	1098.875
1211.794	1092.54167
1215.104	1093.54167
1218.413	1088.875
1221.719	1084.54167
1225.022	1060.54167
1228.323	1052.20833
1231.621	1046.875
1234.917	1043.20833
1238.21	1072.54167
1241.501	1030.20833
1244.79	1030.20833
1248.076	1030.875
1251.359	1041.54167
1254.64	1092.54167
1257.919	1069.20833
1261.195	1074.20833
1264.468	1081.875
1267.74	1101.20833
1271.008	1106.54167
1274.275	1108.875
1277.538	1096.54167
1280.8	1091.54167
1284.059	1084.875
1287.315	1110.54167
1290.569	1084.20833
1293.821	1109.20833
1297.07	1108.20833
1300.317	1111.20833
1303.562	1127.20833
1306.803	1109.875
1310.043	1081.20833
1313.28	1080.54167
1316.515	1092.875
1319.747	1086.875
1322.977	1079.20833
1326.204	1069.54167
1329.429	1049.875
1332.652	1053.54167
1335.872	1059.20833
1339.09	1037.20833
1342.306	1045.20833
1345.519	1033.875
1348.729	1020.875
1351.938	1042.20833
1355.144	1010.875
1358.347	1011.875
1361.548	1018.875
1364.747	1032.20833
1367.944	1002.875
1371.138	998.54167
1374.329	986.20833
1377.518	996.54167
1380.705	996.875
1383.89	992.54167
1387.072	968.875
1390.252	954.875
1393.429	922.54167
1396.605	899.875
1399.777	853.20833
1402.948	860.54167
1406.116	838.20833
1409.282	847.54167
1412.445	836.54167
1415.606	863.20833
1418.765	847.54167
1421.921	872.20833
1425.075	883.54167
1428.227	903.54167
1431.376	925.54167
1434.524	959.875
1437.668	982.20833
1440.811	985.20833
1443.951	992.875
1447.089	1004.20833
1450.224	987.54167
1453.357	991.875
1456.488	987.20833
1459.617	982.20833
1462.743	961.54167
1465.867	947.20833
1468.989	942.20833
1472.108	920.54167
1475.225	908.54167
1478.34	887.20833
1481.453	878.20833
1484.563	881.20833
1487.671	887.54167
1490.776	907.875
1493.88	907.20833
1496.981	936.54167
1500.08	953.875
1503.176	950.54167
1506.271	948.20833
1509.363	973.20833
1512.452	969.875
1515.54	971.54167
1518.625	1001.20833
1521.708	1020.54167
1524.789	1047.54167
1527.867	1061.20833
1530.944	1129.20833
1534.018	1142.20833
1537.089	1214.54167
1540.159	1218.20833
1543.226	1220.875
1546.291	1192.54167
1549.354	1166.875
1552.415	1148.20833
1555.473	1122.54167
1558.529	1121.20833
1561.583	1118.20833
1564.634	1088.54167
1567.684	1084.54167
1570.731	1084.875
1573.776	1099.54167
1576.819	1104.20833
1579.859	1106.20833
1582.898	1123.20833
1585.934	1126.875
1588.968	1151.20833
1591.999	1126.54167
1595.029	1128.54167
1598.056	1141.875
1601.081	1161.54167
1604.104	1155.54167
1607.125	1122.54167
1610.144	1113.20833
1613.16	1081.875
1616.174	1046.54167
1619.186	1057.20833
1622.196	1041.20833
1625.203	990.875
1628.209	995.875
1631.212	986.875
1634.213	982.875
1637.212	1000.875
1640.209	995.54167
1643.203	963.54167
1646.196	940.20833
1649.186	897.20833
1652.174	889.20833
1655.16	856.875
1658.144	844.54167
1661.125	800.54167
1664.105	772.54167
1667.082	754.875
1670.057	701.54167
1673.03	667.20833
1676.001	637.54167
1678.97	593.875
1681.937	580.20833
1684.901	541.20833
1687.863	550.54167
1690.824	514.20833
1693.782	515.20833
1696.738	480.20833
1699.692	486.20833
1702.643	464.54167
1705.593	470.875
1708.54	463.875
1711.486	465.875
1714.429	448.875
1717.37	453.20833
1720.309	441.54167
1723.246	451.20833
1726.181	433.20833
1729.113	434.875
1732.044	439.54167
1734.972	425.20833
1737.899	440.54167
1740.823	438.54167
1743.745	456.54167
1746.665	415.875
1749.583	414.875
1752.499	402.20833
1755.413	405.875
1758.325	398.20833
1761.235	392.54167
1764.142	387.875
1767.048	381.20833
1769.951	381.54167
1772.852	380.20833
1775.752	385.54167
1778.649	389.20833
1781.544	398.54167
1784.437	370.54167
1787.328	374.20833
1790.217	377.54167
1793.104	352.875
1795.989	362.20833
1798.872	350.54167
1801.753	371.20833
1804.631	362.875
1807.508	359.54167
1810.383	362.875
1813.255	356.875
1816.126	360.54167
1818.994	356.54167
1821.861	353.20833
1824.725	358.20833
1827.587	366.54167
1830.448	347.875
1833.306	339.54167
1836.162	362.20833
1839.017	344.20833
1841.869	347.54167
1844.719	344.20833
1847.567	332.54167
1850.414	324.20833
1853.258	331.54167
1856.1	342.54167
1858.94	351.54167
1861.778	341.875
1864.614	325.875
1867.448	344.875
1870.28	323.20833
1873.111	344.54167
1875.939	325.875
1878.765	345.54167
1881.589	324.875
1884.411	331.54167
1887.231	336.875
1890.049	333.875
1892.865	336.875
1895.68	320.20833
1898.492	331.875
1901.302	326.20833
1904.11	316.875
1906.916	328.54167
1909.721	320.875
1912.523	326.875
1915.323	308.20833
1918.122	307.875
1920.918	323.20833
1923.712	309.54167
1926.505	315.20833
1929.295	303.20833
1932.084	309.875
1934.87	315.20833
1937.655	301.54167
1940.438	302.875
1943.218	303.20833
1945.997	307.875
1948.774	315.54167
1951.549	312.875
1954.322	304.20833
1957.093	305.20833
1959.862	298.20833
1962.629	303.20833
1965.394	297.20833
1968.157	293.54167
1970.918	298.54167
1973.678	286.875
1976.435	297.54167
1979.19	294.20833
1981.944	280.54167
1984.696	286.54167
1987.445	284.54167
1990.193	290.54167
1992.939	299.875
1995.683	286.875
1998.425	267.875
2001.165	307.20833
2003.903	272.875
2006.639	283.54167
2009.374	289.20833
2012.106	284.20833
2014.837	269.54167
2017.566	289.54167
2020.292	279.20833
2023.017	275.20833
2025.74	266.875
2028.461	270.54167
2031.18	279.20833
2033.898	273.875
2036.613	267.875
2039.327	278.54167
2042.038	266.20833
2044.748	274.20833
2047.456	276.54167
2050.162	258.20833
2052.866	268.875
2055.568	278.54167
2058.268	264.20833
2060.967	270.875
2063.663	254.20833
2066.358	267.54167
2069.051	255.875
2071.742	262.54167
2074.431	279.20833
2077.118	257.54167
2079.804	251.20833
2082.487	267.20833
2085.169	269.875
2087.849	286.54167
2090.527	253.875
2093.203	265.20833
2095.877	266.54167
2098.55	272.20833
2101.22	270.54167
2103.889	278.875
2106.556	272.20833
2109.221	284.20833
2111.884	272.20833
2114.546	295.20833
2117.205	307.54167
2119.863	338.20833
2122.519	331.875
2125.173	354.54167
2127.825	392.54167
2130.475	384.20833
2133.124	366.875
2135.771	359.54167
2138.416	352.875
2141.059	330.20833
2143.7	330.54167
2146.339	303.20833
2148.977	277.54167
2151.613	290.875
2154.247	280.54167
2156.879	277.54167
2159.51	265.20833
2162.138	269.20833
2164.765	259.54167
2167.39	243.54167
2170.013	259.875
2172.634	270.875
2175.254	252.875
2177.872	280.20833
2180.488	235.20833
2183.102	245.20833
2185.714	244.54167
2188.325	233.875
2190.934	246.54167
2193.541	250.875
2196.146	238.875
2198.75	228.54167
2201.351	228.54167
2203.951	211.20833
2206.549	239.20833
2209.146	226.54167
2211.74	221.54167
2214.333	235.875
2216.924	219.875
2219.514	222.875
2222.101	215.54167
2224.687	227.54167
2227.271	213.54167
2229.853	222.20833
2232.433	199.54167
2235.012	227.875
2237.589	216.875
2240.164	229.875
2242.738	214.875
2245.309	204.875
2247.879	226.20833
2250.448	220.54167
2253.014	201.20833
2255.579	198.54167
2258.142	203.875
2260.703	205.54167
2263.262	198.54167
2265.82	194.54167
2268.376	210.54167
2270.93	202.54167
2273.483	194.54167
2276.033	206.54167
2278.583	191.54167
2281.13	190.20833
2283.675	188.875
2286.219	196.54167
2288.761	207.20833
2291.302	202.875
2293.841	205.20833
2296.377	188.875
2298.913	203.875
2301.446	205.875
2303.978	194.54167
2306.508	185.875
2309.037	194.875
2311.563	198.20833
2314.088	196.20833
2316.612	181.54167
2319.133	194.54167
2321.653	192.875
2324.171	186.875
2326.688	202.20833
2329.202	187.875
2331.715	188.20833
2334.227	189.54167
2336.736	186.875
2339.244	179.20833
2341.751	170.875
2344.255	192.54167
2346.758	192.20833
2349.259	177.875
2351.759	184.20833
2354.257	172.875
2356.753	174.20833
2359.247	177.54167
2361.74	180.54167
2364.231	182.54167
2366.721	190.875
2369.209	180.20833
2371.695	178.54167
2374.179	175.875
2376.662	165.20833
2379.143	187.875
2381.622	180.20833
2384.1	186.875
2386.576	179.54167
2389.051	179.54167
2391.524	182.54167
2393.995	180.54167
2396.464	177.20833
2398.932	171.54167
2401.398	178.20833
2403.863	170.20833
2406.325	169.20833
2408.787	180.54167
2411.246	172.20833
2413.704	172.54167
2416.16	171.875
2418.615	170.20833
2421.068	169.54167
2423.519	166.875
2425.969	162.20833
2428.417	180.54167
2430.863	192.20833
2433.308	180.875
2435.751	173.54167
2438.193	169.875
2440.633	169.875
2443.071	176.875
2445.508	165.54167
2447.943	166.20833
2450.376	161.54167
2452.808	172.875
2455.238	157.20833
2457.667	191.54167
2460.093	158.20833
2462.519	150.875
2464.942	151.20833
2467.365	163.54167
2469.785	164.20833
2472.204	155.875
2474.621	159.875
2477.037	175.875
2479.451	151.875
2481.863	154.875
2484.274	154.54167
2486.683	157.54167
2489.091	164.20833
2491.497	163.20833
2493.901	158.54167
2496.304	159.20833
2498.705	167.875
2501.105	163.20833
2503.503	180.20833
2505.899	153.875
2508.294	177.875
2510.687	151.20833
2513.079	152.875
2515.469	147.54167
2517.858	150.875
2520.245	164.54167
2522.63	154.20833
2525.014	150.54167
2527.396	146.20833
2529.776	148.54167
2532.156	160.875
2534.533	141.54167
2536.909	142.20833
2539.283	136.54167
2541.656	145.54167
2544.027	166.20833
2546.397	154.54167
2548.765	151.54167
2551.131	149.875
2553.496	159.54167
2555.86	156.54167
2558.221	159.875
2560.582	148.20833
2562.94	141.54167
2565.298	151.20833
2567.653	162.875
2570.007	136.875
2572.36	156.54167
2574.711	143.20833
2577.06	163.20833
2579.408	156.20833
2581.754	147.20833
2584.099	148.54167
2586.442	196.875
2588.784	171.875
2591.124	151.54167
2593.463	144.875
2595.8	152.20833
2598.135	135.54167
2600.469	139.20833
2602.802	157.20833
2605.133	158.54167
2607.462	138.875
2609.79	136.20833
2612.116	153.875
2614.441	144.54167
2616.764	152.54167
2619.086	143.875
2621.406	141.875
2623.725	153.54167
2626.042	143.875
2628.358	141.20833
2630.672	150.20833
2632.985	153.875
2635.296	143.20833
2637.606	144.20833
2639.914	142.20833
2642.22	138.54167
2644.525	149.54167
2646.829	147.20833
2649.131	156.54167
2651.432	150.20833
2653.731	140.875
2656.028	156.875
2658.324	151.20833
2660.619	137.54167
2662.912	151.54167
2665.204	133.875
2667.494	146.875
2669.782	135.875
2672.07	154.875
2674.355	158.54167
2676.639	152.54167
2678.922	142.875
2681.203	146.875
2683.483	144.54167
2685.761	129.875
2688.038	154.875
2690.313	158.875
2692.587	148.875
2694.859	141.20833
2697.13	146.20833
2699.399	146.20833
2701.667	153.20833
2703.933	153.875
2706.198	156.54167
2708.461	157.54167
2710.723	158.20833
2712.984	150.875
2715.243	156.20833
2717.5	146.20833
2719.757	158.20833
2722.011	151.20833
2724.264	157.20833
2726.516	174.54167
2728.766	149.875
2731.015	150.875
2733.262	150.54167
2735.508	147.875
2737.753	159.875
2739.996	136.20833
2742.237	143.875
2744.477	154.54167
2746.716	159.20833
2748.953	157.54167
2751.189	157.54167
2753.423	157.875
2755.656	145.54167
2757.887	141.54167
2760.117	143.875
2762.346	138.20833
2764.573	129.875
2766.798	140.54167
2769.022	146.54167
2771.245	141.54167
2773.467	143.54167
2775.686	138.20833
2777.905	145.54167
2780.122	146.875
2782.337	145.20833
2784.552	140.20833
2786.764	149.875
2788.976	143.20833
2791.186	147.20833
2793.394	146.54167
2795.601	150.20833
2797.807	157.875
2800.011	155.54167
2802.214	163.20833
2804.415	155.54167
2806.615	158.20833
2808.814	156.20833
2811.011	162.54167
2813.206	159.875
2815.401	166.20833
2817.594	170.54167
2819.785	168.875
2821.975	155.54167
2824.164	168.875
2826.351	161.20833
2828.537	177.20833
2830.722	171.875
2832.905	171.54167
2835.086	177.54167
2837.267	200.20833
2839.445	193.54167
2841.623	194.20833
2843.799	197.20833
2845.974	202.20833
2848.147	213.875
2850.319	218.875
2852.489	224.54167
2854.659	228.54167
2856.826	228.20833
2858.993	250.875
2861.158	228.20833
2863.321	232.54167
2865.483	243.20833
2867.644	238.54167
2869.804	239.875
2871.962	237.54167
2874.118	244.54167
2876.274	238.20833
2878.428	237.54167
2880.58	237.875
2882.731	230.875
2884.881	238.54167
2887.03	243.54167
2889.177	240.54167
2891.322	249.54167
2893.467	229.875
2895.61	235.875
2897.751	252.875
2899.892	240.54167
2902.03	245.20833
2904.168	233.875
2906.304	239.20833
2908.439	259.54167
2910.572	241.54167
2912.704	251.875
2914.835	252.875
2916.965	252.54167
2919.093	268.20833
2921.219	235.54167
2923.345	271.54167
2925.469	245.875
2927.591	245.875
2929.712	235.20833
2931.832	239.20833
2933.951	232.54167
2936.068	229.20833
2938.184	231.20833
2940.299	227.875
2942.412	218.54167
2944.524	199.875
2946.634	212.20833
2948.744	185.54167
2950.851	219.20833
2952.958	186.20833
2955.063	197.875
2957.167	190.20833
2959.269	173.875
2961.371	203.20833
2963.471	171.54167
2965.569	186.875
2967.666	162.54167
2969.762	160.20833
2971.857	153.54167
2973.95	146.54167
2976.042	163.20833
2978.133	152.875
2980.222	156.20833
2982.31	144.54167
2984.396	128.20833
2986.482	137.20833
2988.566	140.875
2990.648	137.20833
2992.73	139.20833
2994.81	123.54167
2996.889	144.54167
2998.966	132.54167
3001.042	143.20833
3003.117	129.54167
3005.191	140.875
3007.263	147.54167
3009.334	134.20833
3011.403	135.20833
3013.472	132.875
3015.539	138.875
3017.604	149.20833
3019.669	120.54167
3021.732	123.875
3023.794	122.54167
3025.854	117.54167
3027.914	120.875
3029.971	113.875
3032.028	118.875
3034.083	126.20833
3036.137	117.875
3038.19	113.54167
3040.242	108.20833
3042.292	105.875
3044.341	114.54167
3046.388	128.54167
3048.435	106.875
3050.48	120.20833
3052.524	110.875
3054.566	99.20833
3056.607	103.54167
3058.647	112.20833
3060.686	93.20833
3062.723	91.54167
3064.759	89.20833
3066.794	1.20833
3068.828	1.20833
3070.86	4.875
