-0.839	141.875
3.438	161.20833
7.711	64.875
11.981	39.54167
16.247	33.875
20.509	34.20833
24.768	36.875
29.024	44.20833
33.276	29.20833
37.524	42.875
41.769	26.20833
46.01	28.20833
50.247	46.875
54.481	50.54167
58.712	56.54167
62.939	36.54167
67.162	54.54167
71.382	45.875
75.599	35.875
79.812	45.20833
84.021	64.875
88.227	40.875
92.429	53.54167
96.628	39.875
100.823	47.54167
105.015	50.875
109.204	46.20833
113.388	56.54167
117.57	46.875
121.748	58.54167
125.922	47.875
130.093	62.20833
134.261	65.875
138.425	53.875
142.585	76.54167
146.742	66.54167
150.896	79.875
155.046	80.20833
159.193	112.20833
163.336	164.20833
167.476	278.875
171.613	498.875
175.746	812.875
179.875	1177.54167
184.002	1503.20833
188.124	1764.875
192.244	1864.54167
196.36	1857.875
200.472	1839.875
204.581	1822.875
208.687	1745.875
212.79	1760.54167
216.889	1775.54167
220.984	1786.875
225.077	1784.20833
229.165	1789.875
233.251	1809.875
237.333	1803.875
241.412	1785.54167
245.487	1778.20833
249.559	1735.875
253.628	1736.20833
257.694	1728.54167
261.756	1728.54167
265.814	1681.20833
269.87	1642.875
273.922	1582.875
277.97	1565.875
282.016	1571.875
286.058	1540.875
290.097	1584.20833
294.132	1586.54167
298.164	1587.875
302.193	1529.54167
306.219	1439.875
310.241	1337.875
314.26	1256.875
318.276	1189.20833
322.288	1158.20833
326.297	1105.20833
330.303	1078.54167
334.305	1074.20833
338.305	1052.875
342.301	1044.54167
346.294	1056.20833
350.283	1044.875
354.269	1023.54167
358.252	1033.54167
362.232	1022.20833
366.209	1027.875
370.182	1010.54167
374.152	1005.875
378.119	1002.54167
382.083	998.20833
386.043	1033.54167
390	996.20833
393.954	1019.54167
397.905	997.875
401.852	1022.54167
405.797	1003.54167
409.738	1012.20833
413.676	1011.875
417.61	1021.54167
421.542	991.54167
425.47	992.875
429.396	985.875
433.318	970.875
437.236	982.54167
441.152	1013.875
445.065	950.54167
448.974	973.54167
452.88	973.54167
456.783	957.20833
460.683	947.20833
464.58	974.54167
468.473	963.875
472.364	969.875
476.251	967.54167
480.135	971.20833
484.016	983.20833
487.894	993.875
491.769	992.20833
495.641	988.875
499.509	987.20833
503.375	986.20833
507.237	987.54167
511.096	976.875
514.952	988.20833
518.805	994.54167
522.655	1010.54167
526.502	981.875
530.346	991.54167
534.187	981.875
538.024	975.875
541.859	974.875
545.69	995.875
549.519	985.20833
553.344	979.20833
557.166	964.54167
560.985	967.875
564.802	958.20833
568.615	950.875
572.425	944.20833
576.232	940.875
580.036	944.875
583.836	938.54167
587.634	954.875
591.429	948.20833
595.221	964.54167
599.01	955.54167
602.796	967.54167
606.578	961.20833
610.358	967.54167
614.135	949.20833
617.909	961.20833
621.679	945.54167
625.447	934.54167
629.212	949.20833
632.973	949.20833
636.732	948.875
640.488	941.875
644.241	925.54167
647.991	920.875
651.737	950.875
655.481	923.875
659.222	929.20833
662.96	930.54167
666.695	937.875
670.427	937.875
674.156	950.20833
677.882	946.875
681.605	948.875
685.325	927.54167
689.043	955.875
692.757	924.20833
696.468	926.875
700.177	926.875
703.882	917.20833
707.585	908.54167
711.284	918.20833
714.981	908.875
718.675	911.875
722.366	928.20833
726.054	903.875
729.739	891.875
733.421	911.54167
737.1	898.875
740.777	913.875
744.45	913.875
748.121	913.54167
751.789	956.54167
755.453	935.20833
759.115	925.54167
762.774	937.20833
766.431	936.54167
770.084	945.875
773.734	939.875
777.382	965.54167
781.027	959.54167
784.669	949.875
788.308	951.54167
791.944	972.54167
795.577	971.54167
799.208	977.875
802.835	976.54167
806.46	971.54167
810.082	996.20833
813.701	980.20833
817.317	1001.54167
820.931	994.54167
824.542	1003.20833
828.149	981.875
831.754	966.875
835.357	964.20833
838.956	994.875
842.553	975.54167
846.146	953.54167
849.737	943.20833
853.326	945.54167
856.911	933.54167
860.493	967.875
864.073	953.875
867.65	963.54167
871.225	996.875
874.796	957.20833
878.365	958.20833
881.931	977.20833
885.494	975.54167
889.054	980.875
892.612	962.20833
896.166	963.20833
899.719	945.875
903.268	930.875
906.814	940.875
910.358	922.20833
913.899	927.20833
917.438	924.875
920.973	915.875
924.506	927.875
928.036	939.875
931.564	954.20833
935.088	964.875
938.61	954.20833
942.129	942.875
945.646	971.875
949.16	976.875
952.671	996.20833
956.179	1009.54167
959.685	983.875
963.188	1001.875
966.688	991.20833
970.185	961.875
973.68	935.875
977.173	936.20833
980.662	920.20833
984.149	924.20833
987.633	907.20833
991.114	917.875
994.593	933.20833
998.069	949.875
1001.542	964.875
1005.013	958.20833
1008.481	901.875
1011.947	902.20833
1015.409	888.54167
1018.869	894.20833
1022.327	900.54167
1025.782	874.20833
1029.234	861.54167
1032.683	871.20833
1036.13	842.20833
1039.574	818.20833
1043.016	807.54167
1046.455	799.54167
1049.891	787.20833
1053.325	783.875
1056.756	790.875
1060.184	781.875
1063.61	769.20833
1067.033	788.54167
1070.454	779.875
1073.872	796.54167
1077.287	791.54167
1080.7	778.54167
1084.11	791.20833
1087.517	786.54167
1090.922	777.875
1094.325	763.875
1097.724	755.875
1101.122	760.875
1104.516	765.54167
1107.908	745.20833
1111.298	757.20833
1114.684	769.875
1118.069	768.54167
1121.45	787.20833
1124.83	771.875
1128.206	781.20833
1131.58	801.54167
1134.951	805.54167
1138.32	821.875
1141.687	859.20833
1145.05	855.875
1148.412	867.875
1151.77	866.875
1155.126	854.54167
1158.48	847.875
1161.831	848.20833
1165.18	858.54167
1168.525	864.20833
1171.869	883.20833
1175.21	876.875
1178.548	884.875
1181.884	894.20833
1185.217	900.875
1188.548	917.875
1191.877	936.54167
1195.202	987.20833
1198.526	989.20833
1201.846	996.54167
1205.165	995.875
1208.48	991.54167
1211.794	989.54167
1215.104	983.20833
1218.413	990.20833
1221.719	984.20833
1225.022	965.875
1228.323	943.20833
1231.621	954.875
1234.917	947.20833
1238.21	975.54167
1241.501	940.54167
1244.79	942.20833
1248.076	922.54167
1251.359	938.875
1254.64	993.875
1257.919	948.54167
1261.195	976.20833
1264.468	972.54167
1267.74	996.875
1271.008	987.54167
1274.275	1006.20833
1277.538	983.875
1280.8	987.54167
1284.059	991.20833
1287.315	1003.20833
1290.569	993.20833
1293.821	1006.20833
1297.07	998.54167
1300.317	1011.54167
1303.562	1015.20833
1306.803	1013.20833
1310.043	1003.875
1313.28	990.54167
1316.515	986.875
1319.747	993.875
1322.977	974.54167
1326.204	951.20833
1329.429	954.54167
1332.652	957.54167
1335.872	946.875
1339.09	935.875
1342.306	932.875
1345.519	925.20833
1348.729	921.54167
1351.938	922.54167
1355.144	914.875
1358.347	894.875
1361.548	905.20833
1364.747	914.875
1367.944	883.20833
1371.138	887.54167
1374.329	895.20833
1377.518	891.20833
1380.705	885.875
1383.89	892.54167
1387.072	871.54167
1390.252	843.20833
1393.429	820.875
1396.605	802.54167
1399.777	765.20833
1402.948	762.875
1406.116	754.54167
1409.282	763.875
1412.445	754.20833
1415.606	774.54167
1418.765	777.875
1421.921	783.875
1425.075	788.54167
1428.227	813.54167
1431.376	848.875
1434.524	873.20833
1437.668	897.20833
1440.811	905.54167
1443.951	910.54167
1447.089	899.54167
1450.224	902.875
1453.357	898.20833
1456.488	900.54167
1459.617	887.54167
1462.743	870.54167
1465.867	846.20833
1468.989	855.875
1472.108	827.20833
1475.225	821.20833
1478.34	800.54167
1481.453	802.20833
1484.563	797.54167
1487.671	805.54167
1490.776	821.54167
1493.88	822.54167
1496.981	830.54167
1500.08	849.54167
1503.176	844.20833
1506.271	857.20833
1509.363	875.875
1512.452	865.54167
1515.54	868.54167
1518.625	887.20833
1521.708	914.20833
1524.789	942.54167
1527.867	965.54167
1530.944	1001.875
1534.018	1028.54167
1537.089	1082.54167
1540.159	1096.20833
1543.226	1102.20833
1546.291	1072.875
1549.354	1057.54167
1552.415	1038.54167
1555.473	1023.54167
1558.529	990.20833
1561.583	981.875
1564.634	974.875
1567.684	975.875
1570.731	979.20833
1573.776	999.875
1576.819	996.20833
1579.859	998.54167
1582.898	1003.54167
1585.934	1035.54167
1588.968	1040.20833
1591.999	1013.875
1595.029	1015.20833
1598.056	1035.54167
1601.081	1045.875
1604.104	1050.20833
1607.125	1029.54167
1610.144	994.20833
1613.16	973.20833
1616.174	961.875
1619.186	942.54167
1622.196	925.54167
1625.203	892.54167
1628.209	897.20833
1631.212	884.20833
1634.213	868.20833
1637.212	898.20833
1640.209	885.20833
1643.203	852.20833
1646.196	826.875
1649.186	793.875
1652.174	784.20833
1655.16	751.20833
1658.144	756.54167
1661.125	715.875
1664.105	681.20833
1667.082	670.875
1670.057	627.54167
1673.03	596.875
1676.001	569.875
1678.97	531.20833
1681.937	515.54167
1684.901	491.20833
1687.863	480.875
1690.824	454.20833
1693.782	459.20833
1696.738	428.20833
1699.692	430.20833
1702.643	406.875
1705.593	416.54167
1708.54	409.54167
1711.486	417.20833
1714.429	391.20833
1717.37	407.54167
1720.309	397.54167
1723.246	397.20833
1726.181	387.54167
1729.113	385.20833
1732.044	388.54167
1734.972	376.20833
1737.899	390.54167
1740.823	386.54167
1743.745	409.875
1746.665	368.54167
1749.583	359.20833
1752.499	359.54167
1755.413	358.54167
1758.325	344.875
1761.235	357.54167
1764.142	338.875
1767.048	331.875
1769.951	340.54167
1772.852	341.54167
1775.752	348.20833
1778.649	344.20833
1781.544	353.54167
1784.437	321.875
1787.328	347.875
1790.217	334.54167
1793.104	311.875
1795.989	318.875
1798.872	306.54167
1801.753	333.875
1804.631	325.20833
1807.508	326.54167
1810.383	320.875
1813.255	317.54167
1816.126	305.54167
1818.994	321.54167
1821.861	306.20833
1824.725	316.875
1827.587	318.20833
1830.448	308.20833
1833.306	293.875
1836.162	318.20833
1839.017	306.875
1841.869	311.54167
1844.719	295.875
1847.567	296.875
1850.414	288.875
1853.258	282.54167
1856.1	305.20833
1858.94	308.875
1861.778	300.54167
1864.614	281.20833
1867.448	302.875
1870.28	291.20833
1873.111	308.54167
1875.939	291.875
1878.765	302.875
1881.589	287.20833
1884.411	289.875
1887.231	296.875
1890.049	290.20833
1892.865	297.875
1895.68	283.20833
1898.492	292.875
1901.302	286.54167
1904.11	281.54167
1906.916	288.54167
1909.721	284.20833
1912.523	285.20833
1915.323	268.875
1918.122	268.54167
1920.918	292.875
1923.712	270.20833
1926.505	281.20833
1929.295	260.875
1932.084	279.54167
1934.87	276.875
1937.655	263.875
1940.438	266.54167
1943.218	272.54167
1945.997	271.20833
1948.774	283.54167
1951.549	272.875
1954.322	264.875
1957.093	268.875
1959.862	267.20833
1962.629	268.20833
1965.394	264.54167
1968.157	257.54167
1970.918	273.20833
1973.678	249.54167
1976.435	267.20833
1979.19	255.20833
1981.944	251.54167
1984.696	257.875
1987.445	258.875
1990.193	263.20833
1992.939	271.875
1995.683	257.20833
1998.425	240.875
2001.165	272.875
2003.903	244.875
2006.639	253.54167
2009.374	255.54167
2012.106	255.20833
2014.837	232.54167
2017.566	263.875
2020.292	251.20833
2023.017	236.20833
2025.74	237.20833
2028.461	235.875
2031.18	248.20833
2033.898	232.875
2036.613	243.875
2039.327	251.875
2042.038	232.875
2044.748	238.875
2047.456	243.875
2050.162	230.54167
2052.866	234.54167
2055.568	252.875
2058.268	226.54167
2060.967	249.20833
2063.663	227.54167
2066.358	227.20833
2069.051	224.875
2071.742	233.875
2074.431	240.875
2077.118	231.54167
2079.804	221.875
2082.487	228.20833
2085.169	240.54167
2087.849	252.54167
2090.527	222.875
2093.203	234.875
2095.877	231.20833
2098.55	233.20833
2101.22	241.875
2103.889	245.20833
2106.556	230.20833
2109.221	241.20833
2111.884	242.20833
2114.546	260.875
2117.205	262.54167
2119.863	296.54167
2122.519	293.54167
2125.173	301.20833
2127.825	332.54167
2130.475	335.875
2133.124	315.54167
2135.771	299.875
2138.416	312.875
2141.059	285.875
2143.7	289.54167
2146.339	266.20833
2148.977	239.54167
2151.613	253.54167
2154.247	245.20833
2156.879	239.20833
2159.51	228.54167
2162.138	232.875
2164.765	226.875
2167.39	210.20833
2170.013	236.54167
2172.634	233.54167
2175.254	215.875
2177.872	255.875
2180.488	213.875
2183.102	217.875
2185.714	213.875
2188.325	207.875
2190.934	217.54167
2193.541	215.20833
2196.146	210.54167
2198.75	198.875
2201.351	202.20833
2203.951	189.20833
2206.549	205.875
2209.146	203.20833
2211.74	191.54167
2214.333	206.54167
2216.924	185.875
2219.514	193.20833
2222.101	188.54167
2224.687	209.20833
2227.271	184.875
2229.853	192.875
2232.433	177.875
2235.012	198.875
2237.589	199.20833
2240.164	202.54167
2242.738	187.54167
2245.309	185.875
2247.879	196.875
2250.448	196.54167
2253.014	180.20833
2255.579	174.875
2258.142	179.875
2260.703	181.875
2263.262	181.20833
2265.82	173.20833
2268.376	192.20833
2270.93	180.54167
2273.483	166.875
2276.033	191.20833
2278.583	171.54167
2281.13	176.875
2283.675	167.20833
2286.219	172.875
2288.761	184.20833
2291.302	181.54167
2293.841	189.875
2296.377	169.20833
2298.913	178.875
2301.446	183.20833
2303.978	172.54167
2306.508	169.875
2309.037	174.20833
2311.563	177.54167
2314.088	178.54167
2316.612	157.875
2319.133	178.875
2321.653	172.20833
2324.171	162.54167
2326.688	181.20833
2329.202	173.875
2331.715	174.875
2334.227	171.54167
2336.736	168.875
2339.244	164.20833
2341.751	158.875
2344.255	173.20833
2346.758	166.875
2349.259	157.54167
2351.759	173.20833
2354.257	154.20833
2356.753	155.20833
2359.247	158.54167
2361.74	161.54167
2364.231	164.875
2366.721	168.875
2369.209	154.20833
2371.695	160.20833
2374.179	154.54167
2376.662	145.875
2379.143	170.20833
2381.622	154.20833
2384.1	164.875
2386.576	156.875
2389.051	167.20833
2391.524	168.875
2393.995	168.875
2396.464	154.54167
2398.932	153.875
2401.398	159.875
2403.863	151.875
2406.325	153.20833
2408.787	161.54167
2411.246	161.54167
2413.704	157.20833
2416.16	144.875
2418.615	156.54167
2421.068	162.20833
2423.519	153.20833
2425.969	148.875
2428.417	167.20833
2430.863	170.875
2433.308	159.875
2435.751	154.54167
2438.193	157.20833
2440.633	157.875
2443.071	160.20833
2445.508	142.20833
2447.943	154.54167
2450.376	147.875
2452.808	155.875
2455.238	140.875
2457.667	180.54167
2460.093	140.875
2462.519	137.875
2464.942	142.20833
2467.365	155.20833
2469.785	151.54167
2472.204	150.54167
2474.621	148.54167
2477.037	161.875
2479.451	138.875
2481.863	139.54167
2484.274	141.20833
2486.683	143.20833
2489.091	152.875
2491.497	150.20833
2493.901	150.875
2496.304	140.875
2498.705	155.20833
2501.105	150.875
2503.503	166.875
2505.899	142.20833
2508.294	162.54167
2510.687	140.54167
2513.079	140.20833
2515.469	129.875
2517.858	144.20833
2520.245	158.20833
2522.63	144.20833
2525.014	139.54167
2527.396	134.20833
2529.776	141.875
2532.156	144.875
2534.533	132.20833
2536.909	132.875
2539.283	125.875
2541.656	136.875
2544.027	151.54167
2546.397	139.20833
2548.765	134.54167
2551.131	140.875
2553.496	138.20833
2555.86	142.875
2558.221	145.875
2560.582	132.54167
2562.94	125.54167
2565.298	140.20833
2567.653	148.875
2570.007	127.875
2572.36	137.875
2574.711	134.20833
2577.06	152.875
2579.408	140.54167
2581.754	133.875
2584.099	134.20833
2586.442	130.20833
2588.784	138.54167
2591.124	135.20833
2593.463	138.20833
2595.8	143.20833
2598.135	122.54167
2600.469	127.20833
2602.802	138.875
2605.133	141.20833
2607.462	133.20833
2609.79	119.54167
2612.116	141.54167
2614.441	132.875
2616.764	140.20833
2619.086	132.20833
2621.406	132.54167
2623.725	146.54167
2626.042	132.20833
2628.358	126.875
2630.672	133.875
2632.985	140.54167
2635.296	136.875
2637.606	130.875
2639.914	122.875
2642.22	135.20833
2644.525	134.20833
2646.829	136.20833
2649.131	147.20833
2651.432	137.875
2653.731	134.54167
2656.028	143.54167
2658.324	142.875
2660.619	126.875
2662.912	144.54167
2665.204	120.875
2667.494	137.875
2669.782	130.54167
2672.07	147.875
2674.355	144.875
2676.639	141.20833
2678.922	127.875
2681.203	138.20833
2683.483	129.54167
2685.761	127.875
2688.038	141.20833
2690.313	150.54167
2692.587	140.54167
2694.859	136.20833
2697.13	138.54167
2699.399	133.54167
2701.667	137.875
2703.933	137.875
2706.198	147.875
2708.461	150.20833
2710.723	144.54167
2712.984	138.20833
2715.243	145.875
2717.5	141.875
2719.757	143.54167
2722.011	138.20833
2724.264	147.875
2726.516	159.54167
2728.766	137.54167
2731.015	141.54167
2733.262	143.875
2735.508	137.875
2737.753	150.20833
2739.996	131.54167
2742.237	134.20833
2744.477	147.875
2746.716	155.875
2748.953	143.875
2751.189	148.54167
2753.423	144.875
2755.656	130.20833
2757.887	131.875
2760.117	140.54167
2762.346	130.54167
2764.573	122.875
2766.798	135.54167
2769.022	133.20833
2771.245	127.54167
2773.467	131.54167
2775.686	132.20833
2777.905	141.875
2780.122	134.54167
2782.337	140.54167
2784.552	131.54167
2786.764	139.54167
2788.976	134.875
2791.186	139.875
2793.394	128.20833
2795.601	145.54167
2797.807	149.875
2800.011	145.54167
2802.214	144.875
2804.415	146.875
2806.615	144.875
2808.814	144.54167
2811.011	152.54167
2813.206	150.875
2815.401	160.20833
2817.594	159.875
2819.785	163.54167
2821.975	149.875
2824.164	150.875
2826.351	149.54167
2828.537	165.54167
2830.722	163.875
2832.905	165.54167
2835.086	167.875
2837.267	183.875
2839.445	179.54167
2841.623	183.875
2843.799	180.20833
2845.974	197.20833
2848.147	192.875
2850.319	205.875
2852.489	212.20833
2854.659	215.875
2856.826	215.20833
2858.993	236.54167
2861.158	214.54167
2863.321	220.54167
2865.483	230.875
2867.644	234.875
2869.804	225.20833
2871.962	225.875
2874.118	229.54167
2876.274	229.875
2878.428	228.875
2880.58	224.20833
2882.731	218.20833
2884.881	224.20833
2887.03	232.20833
2889.177	226.54167
2891.322	236.54167
2893.467	220.875
2895.61	215.20833
2897.751	242.54167
2899.892	223.875
2902.03	232.875
2904.168	227.875
2906.304	228.54167
2908.439	249.54167
2910.572	224.20833
2912.704	236.875
2914.835	245.20833
2916.965	232.54167
2919.093	250.875
2921.219	227.20833
2923.345	252.875
2925.469	227.54167
2927.591	231.875
2929.712	222.20833
2931.832	230.875
2933.951	220.875
2936.068	214.54167
2938.184	212.875
2940.299	206.20833
2942.412	204.875
2944.524	190.54167
2946.634	197.20833
2948.744	180.54167
2950.851	210.20833
2952.958	180.20833
2955.063	186.54167
2957.167	172.20833
2959.269	161.875
2961.371	189.875
2963.471	162.20833
2965.569	183.875
2967.666	158.875
2969.762	156.20833
2971.857	146.54167
2973.95	143.20833
2976.042	157.54167
2978.133	148.20833
2980.222	151.20833
2982.31	140.875
2984.396	124.20833
2986.482	131.54167
2988.566	138.54167
2990.648	132.20833
2992.73	136.20833
2994.81	119.54167
2996.889	136.20833
2998.966	129.875
3001.042	137.875
3003.117	131.54167
3005.191	131.20833
3007.263	136.875
3009.334	126.875
3011.403	130.54167
3013.472	126.54167
3015.539	138.875
3017.604	145.54167
3019.669	118.875
3021.732	125.20833
3023.794	118.875
3025.854	113.54167
3027.914	110.875
3029.971	117.54167
3032.028	114.54167
3034.083	121.54167
3036.137	112.875
3038.19	103.54167
3040.242	105.54167
3042.292	103.875
3044.341	109.875
3046.388	126.20833
3048.435	102.20833
3050.48	118.54167
3052.524	113.875
3054.566	93.875
3056.607	108.875
3058.647	101.20833
3060.686	92.20833
3062.723	89.54167
3064.759	91.20833
3066.794	-0.79167
3068.828	0.20833
3070.86	2.875
