-0.839	144.5
3.438	160.16667
7.711	68.5
11.981	43.5
16.247	33.83333
20.509	39.5
24.768	37.5
29.024	44.5
33.276	32.16667
37.524	43.16667
41.769	30.83333
46.01	24.5
50.247	48.16667
54.481	46.16667
58.712	54.5
62.939	39.83333
67.162	53.83333
71.382	45.5
75.599	37.16667
79.812	46.16667
84.021	64.83333
88.227	44.5
92.429	53.16667
96.628	37.5
100.823	52.16667
105.015	54.5
109.204	49.83333
113.388	61.83333
117.57	44.83333
121.748	68.5
125.922	50.16667
130.093	67.16667
134.261	62.83333
138.425	58.5
142.585	86.5
146.742	68.16667
150.896	82.5
155.046	81.16667
159.193	120.16667
163.336	188.83333
167.476	312.5
171.613	563.16667
175.746	924.5
179.875	1354.83333
184.002	1783.5
188.124	2109.5
192.244	2223.5
196.36	2254.83333
200.472	2223.16667
204.581	2211.5
208.687	2160.83333
212.79	2150.5
216.889	2187.83333
220.984	2196.83333
225.077	2201.5
229.165	2215.5
233.251	2225.16667
237.333	2229.16667
241.412	2203.83333
245.487	2191.83333
249.559	2192.5
253.628	2155.83333
257.694	2159.83333
261.756	2170.83333
265.814	2135.5
269.87	2069.5
273.922	2050.16667
277.97	2029.16667
282.016	2018.16667
286.058	1982.5
290.097	2030.83333
294.132	2058.83333
298.164	2058.83333
302.193	1994.16667
306.219	1898.83333
310.241	1818.83333
314.26	1706.16667
318.276	1625.83333
322.288	1596.5
326.297	1548.5
330.303	1542.5
334.305	1521.5
338.305	1509.16667
342.301	1504.5
346.294	1503.16667
350.283	1492.5
354.269	1492.16667
358.252	1486.16667
362.232	1494.16667
366.209	1515.83333
370.182	1471.16667
374.152	1475.83333
378.119	1485.5
382.083	1487.5
386.043	1494.83333
390	1482.83333
393.954	1504.16667
397.905	1501.16667
401.852	1512.5
405.797	1497.83333
409.738	1522.16667
413.676	1582.16667
417.61	1589.83333
421.542	1524.16667
425.47	1480.5
429.396	1469.83333
433.318	1468.5
437.236	1462.5
441.152	1505.83333
445.065	1452.5
448.974	1456.16667
452.88	1449.83333
456.783	1443.5
460.683	1440.5
464.58	1454.16667
468.473	1462.83333
472.364	1449.16667
476.251	1459.5
480.135	1474.5
484.016	1482.16667
487.894	1483.16667
491.769	1486.5
495.641	1480.5
499.509	1487.5
503.375	1482.83333
507.237	1469.83333
511.096	1464.83333
514.952	1477.5
518.805	1469.16667
522.655	1473.83333
526.502	1471.5
530.346	1464.83333
534.187	1482.5
538.024	1471.5
541.859	1468.5
545.69	1487.5
549.519	1468.16667
553.344	1472.16667
557.166	1448.16667
560.985	1431.83333
564.802	1440.16667
568.615	1432.16667
572.425	1403.5
576.232	1399.83333
580.036	1413.5
583.836	1413.16667
587.634	1421.83333
591.429	1425.16667
595.221	1450.16667
599.01	1437.83333
602.796	1439.16667
606.578	1449.5
610.358	1446.5
614.135	1436.83333
617.909	1444.5
621.679	1438.16667
625.447	1419.83333
629.212	1424.5
632.973	1418.16667
636.732	1408.83333
640.488	1417.5
644.241	1385.83333
647.991	1393.83333
651.737	1420.16667
655.481	1362.83333
659.222	1370.83333
662.96	1382.5
666.695	1409.5
670.427	1402.5
674.156	1406.5
677.882	1414.16667
681.605	1396.16667
685.325	1391.16667
689.043	1413.5
692.757	1391.16667
696.468	1386.83333
700.177	1373.16667
703.882	1360.16667
707.585	1353.83333
711.284	1351.5
714.981	1340.5
718.675	1319.83333
722.366	1335.16667
726.054	1327.83333
729.739	1318.16667
733.421	1326.5
737.1	1325.5
740.777	1351.83333
744.45	1329.5
748.121	1329.83333
751.789	1378.16667
755.453	1339.83333
759.115	1358.16667
762.774	1353.5
766.431	1358.83333
770.084	1335.16667
773.734	1350.83333
777.382	1367.5
781.027	1358.83333
784.669	1348.16667
788.308	1349.5
791.944	1383.83333
795.577	1373.83333
799.208	1375.5
802.835	1375.83333
806.46	1386.5
810.082	1385.5
813.701	1387.83333
817.317	1383.83333
820.931	1376.5
824.542	1391.5
828.149	1368.5
831.754	1346.16667
835.357	1360.16667
838.956	1388.16667
842.553	1367.16667
846.146	1349.5
849.737	1319.83333
853.326	1320.83333
856.911	1289.16667
860.493	1315.16667
864.073	1324.83333
867.65	1374.16667
871.225	1380.16667
874.796	1347.83333
878.365	1325.83333
881.931	1324.16667
885.494	1349.83333
889.054	1327.5
892.612	1328.16667
896.166	1315.16667
899.719	1293.5
903.268	1275.83333
906.814	1270.16667
910.358	1284.16667
913.899	1260.5
917.438	1274.83333
920.973	1233.83333
924.506	1242.83333
928.036	1282.5
931.564	1279.83333
935.088	1298.5
938.61	1286.83333
942.129	1277.16667
945.646	1302.83333
949.16	1315.83333
952.671	1316.5
956.179	1332.16667
959.685	1323.16667
963.188	1328.83333
966.688	1308.16667
970.185	1264.83333
973.68	1258.16667
977.173	1250.5
980.662	1221.5
984.149	1252.16667
987.633	1227.16667
991.114	1238.5
994.593	1254.5
998.069	1262.83333
1001.542	1302.16667
1005.013	1290.5
1008.481	1222.16667
1011.947	1200.16667
1015.409	1189.16667
1018.869	1181.83333
1022.327	1194.16667
1025.782	1165.16667
1029.234	1168.5
1032.683	1152.83333
1036.13	1132.83333
1039.574	1096.5
1043.016	1076.16667
1046.455	1051.16667
1049.891	1056.5
1053.325	1061.5
1056.756	1060.5
1060.184	1053.83333
1063.61	1060.83333
1067.033	1058.83333
1070.454	1053.83333
1073.872	1089.5
1077.287	1048.83333
1080.7	1061.83333
1084.11	1053.5
1087.517	1055.83333
1090.922	1047.83333
1094.325	1032.83333
1097.724	1019.83333
1101.122	1021.16667
1104.516	1020.5
1107.908	992.83333
1111.298	1003.5
1114.684	1030.5
1118.069	1018.83333
1121.45	1038.5
1124.83	1031.83333
1128.206	1024.5
1131.58	1031.16667
1134.951	1061.16667
1138.32	1068.5
1141.687	1104.83333
1145.05	1117.83333
1148.412	1124.5
1151.77	1100.5
1155.126	1105.83333
1158.48	1088.5
1161.831	1091.83333
1165.18	1098.5
1168.525	1104.83333
1171.869	1127.83333
1175.21	1115.16667
1178.548	1120.16667
1181.884	1135.16667
1185.217	1135.16667
1188.548	1174.83333
1191.877	1181.16667
1195.202	1216.16667
1198.526	1231.5
1201.846	1233.16667
1205.165	1229.83333
1208.48	1241.83333
1211.794	1234.83333
1215.104	1229.83333
1218.413	1214.16667
1221.719	1218.16667
1225.022	1208.16667
1228.323	1191.83333
1231.621	1187.16667
1234.917	1171.83333
1238.21	1190.16667
1241.501	1185.83333
1244.79	1157.83333
1248.076	1147.5
1251.359	1161.83333
1254.64	1200.5
1257.919	1199.16667
1261.195	1215.83333
1264.468	1220.16667
1267.74	1230.5
1271.008	1231.5
1274.275	1229.83333
1277.538	1229.16667
1280.8	1218.83333
1284.059	1215.5
1287.315	1233.16667
1290.569	1215.16667
1293.821	1219.5
1297.07	1243.16667
1300.317	1230.83333
1303.562	1231.83333
1306.803	1207.5
1310.043	1210.5
1313.28	1198.16667
1316.515	1195.5
1319.747	1198.83333
1322.977	1183.5
1326.204	1181.5
1329.429	1168.16667
1332.652	1156.83333
1335.872	1171.83333
1339.09	1141.83333
1342.306	1145.16667
1345.519	1134.83333
1348.729	1128.16667
1351.938	1136.5
1355.144	1117.16667
1358.347	1117.5
1361.548	1115.16667
1364.747	1121.83333
1367.944	1085.16667
1371.138	1096.83333
1374.329	1096.83333
1377.518	1089.5
1380.705	1089.16667
1383.89	1080.5
1387.072	1069.5
1390.252	1039.16667
1393.429	1016.5
1396.605	992.5
1399.777	949.16667
1402.948	955.5
1406.116	934.83333
1409.282	945.83333
1412.445	944.83333
1415.606	961.83333
1418.765	962.5
1421.921	974.5
1425.075	972.83333
1428.227	990.83333
1431.376	1019.83333
1434.524	1061.5
1437.668	1074.5
1440.811	1086.5
1443.951	1081.16667
1447.089	1102.5
1450.224	1098.16667
1453.357	1087.5
1456.488	1091.83333
1459.617	1070.83333
1462.743	1058.5
1465.867	1025.83333
1468.989	1025.5
1472.108	1007.83333
1475.225	994.83333
1478.34	979.5
1481.453	978.5
1484.563	962.16667
1487.671	984.5
1490.776	997.5
1493.88	983.16667
1496.981	1015.83333
1500.08	1008.16667
1503.176	1015.16667
1506.271	1016.83333
1509.363	1036.5
1512.452	1038.5
1515.54	1045.83333
1518.625	1050.5
1521.708	1096.83333
1524.789	1118.5
1527.867	1144.83333
1530.944	1184.5
1534.018	1199.83333
1537.089	1265.16667
1540.159	1278.16667
1543.226	1276.5
1546.291	1254.83333
1549.354	1222.83333
1552.415	1209.16667
1555.473	1181.5
1558.529	1174.16667
1561.583	1144.16667
1564.634	1152.16667
1567.684	1141.16667
1570.731	1129.83333
1573.776	1142.5
1576.819	1148.5
1579.859	1158.16667
1582.898	1169.83333
1585.934	1190.83333
1588.968	1197.5
1591.999	1173.5
1595.029	1175.16667
1598.056	1197.16667
1601.081	1221.16667
1604.104	1218.83333
1607.125	1196.16667
1610.144	1159.83333
1613.16	1145.83333
1616.174	1116.16667
1619.186	1114.83333
1622.196	1092.5
1625.203	1048.5
1628.209	1056.83333
1631.212	1034.83333
1634.213	1045.16667
1637.212	1051.83333
1640.209	1036.16667
1643.203	997.83333
1646.196	987.16667
1649.186	952.83333
1652.174	941.5
1655.16	912.83333
1658.144	910.83333
1661.125	867.16667
1664.105	845.83333
1667.082	815.16667
1670.057	770.5
1673.03	727.16667
1676.001	704.5
1678.97	664.5
1681.937	630.5
1684.901	606.5
1687.863	604.16667
1690.824	573.16667
1693.782	580.5
1696.738	545.16667
1699.692	535.83333
1702.643	528.5
1705.593	531.16667
1708.54	523.83333
1711.486	525.5
1714.429	506.5
1717.37	512.83333
1720.309	499.83333
1723.246	505.83333
1726.181	487.5
1729.113	490.83333
1732.044	495.5
1734.972	498.16667
1737.899	507.5
1740.823	503.5
1743.745	512.5
1746.665	480.16667
1749.583	467.16667
1752.499	465.83333
1755.413	465.5
1758.325	445.16667
1761.235	464.16667
1764.142	450.83333
1767.048	451.16667
1769.951	447.5
1772.852	444.16667
1775.752	463.83333
1778.649	486.83333
1781.544	462.16667
1784.437	437.5
1787.328	435.83333
1790.217	443.16667
1793.104	415.83333
1795.989	425.16667
1798.872	411.16667
1801.753	422.16667
1804.631	413.16667
1807.508	425.16667
1810.383	418.16667
1813.255	421.16667
1816.126	419.83333
1818.994	409.5
1821.861	414.5
1824.725	421.83333
1827.587	407.16667
1830.448	408.5
1833.306	386.16667
1836.162	402.83333
1839.017	395.83333
1841.869	400.16667
1844.719	403.5
1847.567	381.83333
1850.414	386.83333
1853.258	369.16667
1856.1	398.83333
1858.94	403.83333
1861.778	386.16667
1864.614	380.83333
1867.448	394.83333
1870.28	378.5
1873.111	396.5
1875.939	373.83333
1878.765	398.5
1881.589	382.5
1884.411	380.83333
1887.231	381.83333
1890.049	380.83333
1892.865	382.5
1895.68	368.16667
1898.492	379.5
1901.302	370.83333
1904.11	362.16667
1906.916	364.83333
1909.721	363.5
1912.523	372.83333
1915.323	358.83333
1918.122	359.83333
1920.918	370.16667
1923.712	353.83333
1926.505	360.83333
1929.295	339.5
1932.084	364.5
1934.87	353.5
1937.655	351.83333
1940.438	340.83333
1943.218	348.5
1945.997	349.5
1948.774	363.83333
1951.549	350.83333
1954.322	353.83333
1957.093	342.5
1959.862	343.83333
1962.629	341.5
1965.394	340.83333
1968.157	339.5
1970.918	341.83333
1973.678	327.83333
1976.435	346.16667
1979.19	335.16667
1981.944	319.16667
1984.696	328.5
1987.445	321.83333
1990.193	328.5
1992.939	344.5
1995.683	332.5
1998.425	310.83333
2001.165	344.83333
2003.903	314.83333
2006.639	322.16667
2009.374	323.5
2012.106	315.83333
2014.837	296.83333
2017.566	326.5
2020.292	322.16667
2023.017	307.83333
2025.74	304.5
2028.461	304.83333
2031.18	318.5
2033.898	301.5
2036.613	313.83333
2039.327	315.83333
2042.038	298.5
2044.748	311.5
2047.456	309.83333
2050.162	299.83333
2052.866	308.16667
2055.568	318.83333
2058.268	298.83333
2060.967	308.5
2063.663	282.83333
2066.358	287.83333
2069.051	285.83333
2071.742	291.5
2074.431	309.5
2077.118	289.5
2079.804	287.16667
2082.487	286.16667
2085.169	300.5
2087.849	315.83333
2090.527	294.16667
2093.203	291.16667
2095.877	297.5
2098.55	292.83333
2101.22	298.16667
2103.889	301.16667
2106.556	294.16667
2109.221	313.16667
2111.884	296.5
2114.546	329.16667
2117.205	323.16667
2119.863	358.5
2122.519	350.16667
2125.173	367.83333
2127.825	401.5
2130.475	406.16667
2133.124	386.83333
2135.771	368.83333
2138.416	374.83333
2141.059	349.16667
2143.7	348.5
2146.339	326.83333
2148.977	296.83333
2151.613	312.83333
2154.247	306.5
2156.879	300.16667
2159.51	283.5
2162.138	282.16667
2164.765	277.5
2167.39	269.5
2170.013	291.5
2172.634	291.16667
2175.254	266.16667
2177.872	304.5
2180.488	261.83333
2183.102	262.83333
2185.714	269.16667
2188.325	252.5
2190.934	266.83333
2193.541	269.5
2196.146	258.5
2198.75	248.16667
2201.351	248.83333
2203.951	235.83333
2206.549	259.5
2209.146	246.16667
2211.74	240.5
2214.333	254.16667
2216.924	235.83333
2219.514	242.16667
2222.101	239.5
2224.687	256.5
2227.271	229.83333
2229.853	236.83333
2232.433	227.16667
2235.012	248.16667
2237.589	231.83333
2240.164	248.83333
2242.738	231.83333
2245.309	219.83333
2247.879	243.5
2250.448	249.83333
2253.014	228.16667
2255.579	216.83333
2258.142	224.83333
2260.703	220.16667
2263.262	225.16667
2265.82	221.5
2268.376	232.83333
2270.93	217.83333
2273.483	210.83333
2276.033	223.16667
2278.583	213.83333
2281.13	211.16667
2283.675	214.16667
2286.219	214.5
2288.761	224.5
2291.302	227.5
2293.841	230.16667
2296.377	208.16667
2298.913	221.5
2301.446	232.5
2303.978	210.16667
2306.508	209.83333
2309.037	207.83333
2311.563	216.83333
2314.088	208.5
2316.612	197.16667
2319.133	212.5
2321.653	210.83333
2324.171	198.83333
2326.688	212.5
2329.202	201.83333
2331.715	204.83333
2334.227	201.5
2336.736	206.5
2339.244	205.16667
2341.751	188.5
2344.255	209.16667
2346.758	197.83333
2349.259	192.5
2351.759	203.83333
2354.257	190.83333
2356.753	187.16667
2359.247	194.5
2361.74	196.5
2364.231	195.16667
2366.721	208.16667
2369.209	192.16667
2371.695	191.83333
2374.179	184.5
2376.662	180.5
2379.143	203.5
2381.622	185.16667
2384.1	199.16667
2386.576	189.5
2389.051	198.16667
2391.524	201.83333
2393.995	192.5
2396.464	191.83333
2398.932	188.83333
2401.398	186.5
2403.863	180.5
2406.325	175.83333
2408.787	185.83333
2411.246	185.16667
2413.704	178.83333
2416.16	181.16667
2418.615	182.16667
2421.068	186.5
2423.519	178.5
2425.969	175.16667
2428.417	188.83333
2430.863	202.83333
2433.308	185.5
2435.751	185.16667
2438.193	184.5
2440.633	184.83333
2443.071	192.5
2445.508	175.83333
2447.943	175.16667
2450.376	167.5
2452.808	181.16667
2455.238	162.5
2457.667	202.5
2460.093	170.83333
2462.519	161.5
2464.942	170.5
2467.365	168.16667
2469.785	179.16667
2472.204	168.5
2474.621	169.5
2477.037	186.5
2479.451	165.5
2481.863	160.5
2484.274	160.83333
2486.683	168.16667
2489.091	172.16667
2491.497	170.83333
2493.901	170.5
2496.304	161.16667
2498.705	176.5
2501.105	171.83333
2503.503	181.5
2505.899	161.16667
2508.294	177.83333
2510.687	162.16667
2513.079	166.5
2515.469	165.83333
2517.858	166.83333
2520.245	172.83333
2522.63	166.5
2525.014	157.5
2527.396	156.5
2529.776	154.16667
2532.156	171.16667
2534.533	150.5
2536.909	153.83333
2539.283	140.16667
2541.656	149.83333
2544.027	172.83333
2546.397	161.5
2548.765	154.5
2551.131	164.16667
2553.496	162.83333
2555.86	158.83333
2558.221	163.5
2560.582	149.83333
2562.94	151.5
2565.298	158.5
2567.653	166.5
2570.007	144.16667
2572.36	162.5
2574.711	153.83333
2577.06	170.83333
2579.408	158.5
2581.754	153.5
2584.099	149.16667
2586.442	156.16667
2588.784	161.16667
2591.124	149.5
2593.463	152.5
2595.8	160.83333
2598.135	143.83333
2600.469	144.16667
2602.802	159.16667
2605.133	155.5
2607.462	144.16667
2609.79	140.5
2612.116	154.16667
2614.441	152.5
2616.764	153.83333
2619.086	149.16667
2621.406	144.5
2623.725	157.5
2626.042	145.16667
2628.358	148.16667
2630.672	150.83333
2632.985	163.83333
2635.296	151.16667
2637.606	144.83333
2639.914	148.5
2642.22	147.83333
2644.525	145.83333
2646.829	152.16667
2649.131	159.83333
2651.432	155.16667
2653.731	147.5
2656.028	160.83333
2658.324	155.83333
2660.619	147.16667
2662.912	152.5
2665.204	136.16667
2667.494	155.5
2669.782	141.83333
2672.07	158.5
2674.355	161.5
2676.639	151.16667
2678.922	134.5
2681.203	157.16667
2683.483	142.16667
2685.761	141.16667
2688.038	151.5
2690.313	167.83333
2692.587	148.16667
2694.859	142.16667
2697.13	146.83333
2699.399	151.83333
2701.667	155.16667
2703.933	153.83333
2706.198	164.5
2708.461	159.16667
2710.723	155.83333
2712.984	151.5
2715.243	159.16667
2717.5	150.16667
2719.757	155.83333
2722.011	158.5
2724.264	159.5
2726.516	166.83333
2728.766	149.5
2731.015	153.5
2733.262	151.83333
2735.508	153.16667
2737.753	157.5
2739.996	142.16667
2742.237	143.83333
2744.477	161.5
2746.716	164.5
2748.953	160.16667
2751.189	166.16667
2753.423	155.16667
2755.656	143.16667
2757.887	140.16667
2760.117	144.83333
2762.346	140.5
2764.573	134.16667
2766.798	134.83333
2769.022	146.5
2771.245	140.5
2773.467	145.83333
2775.686	137.16667
2777.905	152.16667
2780.122	142.5
2782.337	148.16667
2784.552	144.5
2786.764	145.83333
2788.976	141.5
2791.186	144.83333
2793.394	145.16667
2795.601	154.16667
2797.807	155.16667
2800.011	154.16667
2802.214	166.16667
2804.415	157.16667
2806.615	151.16667
2808.814	154.5
2811.011	156.83333
2813.206	159.5
2815.401	170.83333
2817.594	165.83333
2819.785	169.83333
2821.975	160.16667
2824.164	158.5
2826.351	162.16667
2828.537	174.5
2830.722	176.5
2832.905	168.83333
2835.086	178.5
2837.267	202.16667
2839.445	188.83333
2841.623	194.83333
2843.799	187.16667
2845.974	200.5
2848.147	205.83333
2850.319	217.5
2852.489	223.83333
2854.659	226.16667
2856.826	227.5
2858.993	249.16667
2861.158	226.83333
2863.321	237.5
2865.483	251.5
2867.644	238.16667
2869.804	238.5
2871.962	233.83333
2874.118	243.16667
2876.274	262.16667
2878.428	258.83333
2880.58	250.16667
2882.731	236.16667
2884.881	239.5
2887.03	246.83333
2889.177	244.16667
2891.322	249.83333
2893.467	225.83333
2895.61	233.5
2897.751	249.83333
2899.892	233.5
2902.03	247.83333
2904.168	239.83333
2906.304	246.83333
2908.439	258.83333
2910.572	238.83333
2912.704	247.5
2914.835	250.83333
2916.965	242.16667
2919.093	267.16667
2921.219	230.83333
2923.345	265.83333
2925.469	256.16667
2927.591	241.16667
2929.712	229.16667
2931.832	236.5
2933.951	237.83333
2936.068	226.83333
2938.184	227.83333
2940.299	221.16667
2942.412	215.83333
2944.524	193.5
2946.634	208.5
2948.744	185.83333
2950.851	216.5
2952.958	183.83333
2955.063	192.83333
2957.167	183.16667
2959.269	172.83333
2961.371	199.16667
2963.471	176.16667
2965.569	188.83333
2967.666	164.5
2969.762	165.16667
2971.857	160.16667
2973.95	148.16667
2976.042	159.16667
2978.133	149.83333
2980.222	155.83333
2982.31	136.83333
2984.396	128.5
2986.482	129.83333
2988.566	139.83333
2990.648	140.16667
2992.73	135.16667
2994.81	131.16667
2996.889	139.5
2998.966	129.5
3001.042	147.16667
3003.117	133.16667
3005.191	136.5
3007.263	139.5
3009.334	127.16667
3011.403	133.16667
3013.472	131.16667
3015.539	137.83333
3017.604	147.16667
3019.669	115.83333
3021.732	126.5
3023.794	127.5
3025.854	116.5
3027.914	112.5
3029.971	113.83333
3032.028	115.83333
3034.083	127.5
3036.137	123.83333
3038.19	113.83333
3040.242	105.16667
3042.292	110.16667
3044.341	111.83333
3046.388	122.5
3048.435	104.5
3050.48	119.83333
3052.524	111.16667
3054.566	92.5
3056.607	105.5
3058.647	105.83333
3060.686	89.5
3062.723	86.16667
3064.759	89.83333
3066.794	0.16667
3068.828	0.83333
3070.86	1.83333
