-0.839	145.25
3.438	173.91667
7.711	67.25
11.981	43.25
16.247	30.91667
20.509	38.58333
24.768	35.25
29.024	44.91667
33.276	29.91667
37.524	41.91667
41.769	30.91667
46.01	23.58333
50.247	44.58333
54.481	49.58333
58.712	55.91667
62.939	36.58333
67.162	52.25
71.382	47.58333
75.599	36.58333
79.812	41.91667
84.021	64.58333
88.227	39.25
92.429	53.58333
96.628	39.25
100.823	51.58333
105.015	50.91667
109.204	48.58333
113.388	55.58333
117.57	44.91667
121.748	61.58333
125.922	52.58333
130.093	65.58333
134.261	66.91667
138.425	52.91667
142.585	89.25
146.742	69.58333
150.896	80.91667
155.046	80.91667
159.193	118.91667
163.336	173.58333
167.476	306.25
171.613	549.25
175.746	874.25
179.875	1304.91667
184.002	1667.25
188.124	1975.58333
192.244	2062.25
196.36	2085.91667
200.472	2061.91667
204.581	2033.91667
208.687	1979.58333
212.79	1973.58333
216.889	2000.91667
220.984	2021.91667
225.077	2008.58333
229.165	2027.25
233.251	2025.91667
237.333	2014.25
241.412	1985.25
245.487	1983.91667
249.559	1938.58333
253.628	1939.91667
257.694	1923.58333
261.756	1917.58333
265.814	1885.25
269.87	1842.91667
273.922	1793.58333
277.97	1775.58333
282.016	1747.91667
286.058	1757.25
290.097	1765.91667
294.132	1775.91667
298.164	1762.58333
302.193	1717.25
306.219	1608.58333
310.241	1536.25
314.26	1450.58333
318.276	1374.91667
322.288	1345.25
326.297	1304.58333
330.303	1282.91667
334.305	1272.91667
338.305	1268.25
342.301	1250.25
346.294	1241.91667
350.283	1242.25
354.269	1222.58333
358.252	1226.25
362.232	1226.91667
366.209	1234.25
370.182	1205.25
374.152	1216.58333
378.119	1214.58333
382.083	1195.58333
386.043	1230.58333
390	1194.58333
393.954	1225.58333
397.905	1210.91667
401.852	1227.25
405.797	1219.25
409.738	1211.58333
413.676	1225.25
417.61	1257.91667
421.542	1222.91667
425.47	1200.91667
429.396	1197.91667
433.318	1188.91667
437.236	1194.25
441.152	1213.25
445.065	1178.25
448.974	1187.25
452.88	1171.91667
456.783	1171.91667
460.683	1169.58333
464.58	1186.58333
468.473	1188.91667
472.364	1184.58333
476.251	1182.91667
480.135	1183.58333
484.016	1206.25
487.894	1201.25
491.769	1192.25
495.641	1193.25
499.509	1198.91667
503.375	1211.91667
507.237	1184.25
511.096	1192.91667
514.952	1219.58333
518.805	1206.91667
522.655	1213.91667
526.502	1187.25
530.346	1201.25
534.187	1200.91667
538.024	1184.91667
541.859	1190.25
545.69	1217.58333
549.519	1194.91667
553.344	1191.91667
557.166	1168.58333
560.985	1162.91667
564.802	1166.58333
568.615	1152.58333
572.425	1130.58333
576.232	1144.58333
580.036	1148.25
583.836	1159.91667
587.634	1132.58333
591.429	1146.58333
595.221	1167.58333
599.01	1164.58333
602.796	1153.58333
606.578	1174.58333
610.358	1181.91667
614.135	1169.25
617.909	1184.91667
621.679	1162.58333
625.447	1148.58333
629.212	1143.58333
632.973	1156.25
636.732	1143.58333
640.488	1155.25
644.241	1124.91667
647.991	1121.58333
651.737	1162.25
655.481	1139.25
659.222	1145.91667
662.96	1139.91667
666.695	1146.91667
670.427	1144.91667
674.156	1145.25
677.882	1142.91667
681.605	1147.25
685.325	1121.25
689.043	1149.58333
692.757	1138.25
696.468	1135.25
700.177	1121.25
703.882	1106.25
707.585	1107.91667
711.284	1110.91667
714.981	1100.58333
718.675	1109.91667
722.366	1104.25
726.054	1104.58333
729.739	1098.25
733.421	1095.58333
737.1	1087.25
740.777	1108.58333
744.45	1099.91667
748.121	1110.91667
751.789	1136.58333
755.453	1115.25
759.115	1118.91667
762.774	1124.25
766.431	1113.25
770.084	1124.91667
773.734	1119.25
777.382	1145.58333
781.027	1136.91667
784.669	1137.58333
788.308	1128.58333
791.944	1161.91667
795.577	1161.58333
799.208	1175.91667
802.835	1170.25
806.46	1168.58333
810.082	1182.58333
813.701	1176.58333
817.317	1184.58333
820.931	1192.58333
824.542	1185.25
828.149	1159.25
831.754	1144.25
835.357	1134.58333
838.956	1170.25
842.553	1149.25
846.146	1134.91667
849.737	1123.58333
853.326	1125.25
856.911	1096.91667
860.493	1133.91667
864.073	1128.58333
867.65	1138.25
871.225	1150.58333
874.796	1150.58333
878.365	1149.25
881.931	1144.91667
885.494	1168.58333
889.054	1142.91667
892.612	1145.91667
896.166	1129.25
899.719	1118.25
903.268	1099.91667
906.814	1108.58333
910.358	1098.91667
913.899	1087.91667
917.438	1102.58333
920.973	1062.58333
924.506	1082.91667
928.036	1112.58333
931.564	1121.25
935.088	1137.58333
938.61	1112.25
942.129	1116.91667
945.646	1131.58333
949.16	1135.58333
952.671	1150.91667
956.179	1161.25
959.685	1156.58333
963.188	1157.91667
966.688	1153.91667
970.185	1113.25
973.68	1101.58333
977.173	1097.58333
980.662	1066.58333
984.149	1068.58333
987.633	1056.25
991.114	1080.58333
994.593	1106.58333
998.069	1100.91667
1001.542	1133.58333
1005.013	1124.25
1008.481	1057.58333
1011.947	1050.91667
1015.409	1039.91667
1018.869	1047.25
1022.327	1050.91667
1025.782	1039.91667
1029.234	1026.58333
1032.683	1017.91667
1036.13	978.25
1039.574	962.58333
1043.016	937.25
1046.455	939.58333
1049.891	925.58333
1053.325	930.25
1056.756	925.58333
1060.184	929.58333
1063.61	910.58333
1067.033	930.25
1070.454	925.25
1073.872	945.58333
1077.287	923.58333
1080.7	921.58333
1084.11	923.58333
1087.517	926.58333
1090.922	916.58333
1094.325	903.25
1097.724	885.91667
1101.122	890.25
1104.516	879.91667
1107.908	864.58333
1111.298	883.91667
1114.684	902.58333
1118.069	901.91667
1121.45	920.58333
1124.83	897.58333
1128.206	898.58333
1131.58	919.25
1134.951	937.25
1138.32	948.58333
1141.687	987.91667
1145.05	1005.25
1148.412	995.91667
1151.77	985.25
1155.126	987.58333
1158.48	972.91667
1161.831	983.25
1165.18	984.58333
1168.525	991.91667
1171.869	1009.25
1175.21	999.91667
1178.548	1021.91667
1181.884	1029.58333
1185.217	1032.91667
1188.548	1045.91667
1191.877	1062.25
1195.202	1115.91667
1198.526	1108.25
1201.846	1119.91667
1205.165	1123.91667
1208.48	1136.91667
1211.794	1134.58333
1215.104	1130.58333
1218.413	1126.91667
1221.719	1120.58333
1225.022	1093.58333
1228.323	1078.58333
1231.621	1099.91667
1234.917	1082.58333
1238.21	1093.58333
1241.501	1062.91667
1244.79	1058.91667
1248.076	1055.91667
1251.359	1071.25
1254.64	1115.58333
1257.919	1089.25
1261.195	1107.25
1264.468	1108.58333
1267.74	1117.91667
1271.008	1133.25
1274.275	1126.25
1277.538	1119.58333
1280.8	1121.25
1284.059	1122.91667
1287.315	1129.91667
1290.569	1133.58333
1293.821	1138.58333
1297.07	1155.25
1300.317	1151.91667
1303.562	1146.25
1306.803	1130.25
1310.043	1135.58333
1313.28	1118.91667
1316.515	1114.91667
1319.747	1119.58333
1322.977	1108.25
1326.204	1094.91667
1329.429	1089.91667
1332.652	1092.91667
1335.872	1090.58333
1339.09	1087.58333
1342.306	1083.58333
1345.519	1067.91667
1348.729	1060.91667
1351.938	1075.91667
1355.144	1047.91667
1358.347	1049.91667
1361.548	1041.91667
1364.747	1052.25
1367.944	1027.91667
1371.138	1024.91667
1374.329	1009.25
1377.518	1021.91667
1380.705	1029.91667
1383.89	1036.91667
1387.072	997.91667
1390.252	978.25
1393.429	947.58333
1396.605	927.25
1399.777	886.25
1402.948	878.58333
1406.116	868.91667
1409.282	876.91667
1412.445	875.58333
1415.606	879.91667
1418.765	885.25
1421.921	904.91667
1425.075	906.91667
1428.227	917.91667
1431.376	954.25
1434.524	993.25
1437.668	1022.91667
1440.811	1023.25
1443.951	1023.91667
1447.089	1022.91667
1450.224	1028.91667
1453.357	1019.58333
1456.488	1018.58333
1459.617	1014.25
1462.743	995.58333
1465.867	953.58333
1468.989	965.91667
1472.108	948.91667
1475.225	932.58333
1478.34	917.58333
1481.453	908.25
1484.563	912.58333
1487.671	924.91667
1490.776	926.25
1493.88	942.25
1496.981	955.25
1500.08	961.25
1503.176	966.91667
1506.271	972.91667
1509.363	987.91667
1512.452	989.58333
1515.54	990.25
1518.625	1017.25
1521.708	1041.58333
1524.789	1066.25
1527.867	1095.91667
1530.944	1139.58333
1534.018	1172.58333
1537.089	1219.91667
1540.159	1238.25
1543.226	1240.91667
1546.291	1217.25
1549.354	1180.25
1552.415	1163.25
1555.473	1153.58333
1558.529	1135.25
1561.583	1148.25
1564.634	1097.25
1567.684	1102.91667
1570.731	1109.91667
1573.776	1122.91667
1576.819	1125.91667
1579.859	1129.25
1582.898	1149.25
1585.934	1166.91667
1588.968	1167.25
1591.999	1145.58333
1595.029	1146.25
1598.056	1154.91667
1601.081	1174.58333
1604.104	1165.91667
1607.125	1142.25
1610.144	1128.91667
1613.16	1093.91667
1616.174	1082.25
1619.186	1062.91667
1622.196	1053.91667
1625.203	1020.91667
1628.209	1017.91667
1631.212	1007.58333
1634.213	1008.91667
1637.212	1024.25
1640.209	1025.91667
1643.203	981.91667
1646.196	968.91667
1649.186	932.25
1652.174	912.91667
1655.16	877.91667
1658.144	871.58333
1661.125	831.91667
1664.105	804.91667
1667.082	763.91667
1670.057	710.25
1673.03	694.25
1676.001	664.91667
1678.97	613.25
1681.937	594.25
1684.901	567.91667
1687.863	561.58333
1690.824	529.58333
1693.782	535.25
1696.738	505.58333
1699.692	500.91667
1702.643	485.25
1705.593	485.91667
1708.54	476.25
1711.486	488.58333
1714.429	465.91667
1717.37	480.58333
1720.309	461.91667
1723.246	464.25
1726.181	449.25
1729.113	442.91667
1732.044	452.58333
1734.972	454.58333
1737.899	451.25
1740.823	454.58333
1743.745	473.91667
1746.665	426.25
1749.583	425.58333
1752.499	412.91667
1755.413	412.58333
1758.325	401.58333
1761.235	408.58333
1764.142	396.91667
1767.048	399.25
1769.951	405.25
1772.852	393.58333
1775.752	403.25
1778.649	402.91667
1781.544	410.25
1784.437	395.25
1787.328	400.25
1790.217	389.58333
1793.104	378.91667
1795.989	375.58333
1798.872	377.91667
1801.753	385.91667
1804.631	371.58333
1807.508	381.25
1810.383	376.25
1813.255	375.25
1816.126	371.58333
1818.994	378.25
1821.861	376.25
1824.725	372.25
1827.587	366.58333
1830.448	363.91667
1833.306	352.58333
1836.162	368.91667
1839.017	361.25
1841.869	359.25
1844.719	359.58333
1847.567	341.58333
1850.414	337.91667
1853.258	337.58333
1856.1	359.58333
1858.94	360.91667
1861.778	353.25
1864.614	346.25
1867.448	349.91667
1870.28	339.91667
1873.111	358.91667
1875.939	342.58333
1878.765	359.91667
1881.589	336.91667
1884.411	348.91667
1887.231	353.25
1890.049	345.25
1892.865	354.91667
1895.68	340.91667
1898.492	344.58333
1901.302	340.58333
1904.11	332.91667
1906.916	329.25
1909.721	334.91667
1912.523	333.58333
1915.323	323.25
1918.122	328.91667
1920.918	339.58333
1923.712	320.58333
1926.505	333.25
1929.295	305.91667
1932.084	324.58333
1934.87	328.25
1937.655	313.25
1940.438	314.25
1943.218	317.25
1945.997	315.91667
1948.774	330.25
1951.549	325.25
1954.322	310.25
1957.093	316.58333
1959.862	313.58333
1962.629	311.25
1965.394	301.91667
1968.157	303.25
1970.918	315.91667
1973.678	302.25
1976.435	317.25
1979.19	305.25
1981.944	297.58333
1984.696	298.58333
1987.445	297.58333
1990.193	305.91667
1992.939	313.91667
1995.683	300.58333
1998.425	282.58333
2001.165	318.25
2003.903	285.25
2006.639	294.91667
2009.374	301.25
2012.106	300.25
2014.837	277.91667
2017.566	294.91667
2020.292	289.91667
2023.017	283.91667
2025.74	281.91667
2028.461	277.58333
2031.18	287.91667
2033.898	281.58333
2036.613	284.25
2039.327	290.25
2042.038	273.58333
2044.748	282.25
2047.456	286.25
2050.162	270.91667
2052.866	276.25
2055.568	288.91667
2058.268	276.91667
2060.967	283.58333
2063.663	265.91667
2066.358	270.58333
2069.051	263.25
2071.742	272.58333
2074.431	284.58333
2077.118	271.91667
2079.804	251.91667
2082.487	266.25
2085.169	281.58333
2087.849	290.25
2090.527	262.58333
2093.203	266.25
2095.877	272.25
2098.55	270.91667
2101.22	282.58333
2103.889	287.91667
2106.556	274.91667
2109.221	287.25
2111.884	277.25
2114.546	306.58333
2117.205	312.25
2119.863	342.58333
2122.519	345.58333
2125.173	373.58333
2127.825	398.25
2130.475	399.25
2133.124	374.58333
2135.771	367.91667
2138.416	372.25
2141.059	341.25
2143.7	329.25
2146.339	306.58333
2148.977	295.91667
2151.613	292.91667
2154.247	293.91667
2156.879	280.91667
2159.51	261.91667
2162.138	270.58333
2164.765	264.91667
2167.39	258.25
2170.013	279.91667
2172.634	261.91667
2175.254	255.91667
2177.872	300.25
2180.488	255.58333
2183.102	257.25
2185.714	245.25
2188.325	235.91667
2190.934	251.25
2193.541	253.25
2196.146	241.91667
2198.75	237.25
2201.351	233.91667
2203.951	220.58333
2206.549	245.25
2209.146	233.91667
2211.74	223.91667
2214.333	234.25
2216.924	228.91667
2219.514	223.58333
2222.101	225.25
2224.687	241.91667
2227.271	222.91667
2229.853	214.58333
2232.433	207.91667
2235.012	233.58333
2237.589	230.25
2240.164	240.91667
2242.738	214.25
2245.309	213.25
2247.879	231.58333
2250.448	224.25
2253.014	207.25
2255.579	202.58333
2258.142	214.91667
2260.703	212.25
2263.262	212.58333
2265.82	201.25
2268.376	218.58333
2270.93	204.91667
2273.483	203.91667
2276.033	207.25
2278.583	198.91667
2281.13	204.25
2283.675	197.58333
2286.219	199.25
2288.761	211.25
2291.302	206.58333
2293.841	217.58333
2296.377	194.58333
2298.913	202.25
2301.446	209.58333
2303.978	196.25
2306.508	196.91667
2309.037	200.91667
2311.563	200.25
2314.088	191.91667
2316.612	185.58333
2319.133	202.91667
2321.653	207.91667
2324.171	189.91667
2326.688	205.25
2329.202	196.58333
2331.715	197.91667
2334.227	198.58333
2336.736	193.25
2339.244	188.91667
2341.751	182.25
2344.255	196.25
2346.758	195.91667
2349.259	182.25
2351.759	191.91667
2354.257	181.58333
2356.753	176.58333
2359.247	181.58333
2361.74	186.58333
2364.231	188.91667
2366.721	193.91667
2369.209	176.91667
2371.695	186.25
2374.179	179.91667
2376.662	167.25
2379.143	193.58333
2381.622	178.25
2384.1	189.58333
2386.576	182.91667
2389.051	184.58333
2391.524	195.58333
2393.995	192.58333
2396.464	176.91667
2398.932	177.91667
2401.398	181.25
2403.863	170.25
2406.325	168.25
2408.787	183.25
2411.246	179.91667
2413.704	170.91667
2416.16	171.91667
2418.615	174.25
2421.068	180.58333
2423.519	170.91667
2425.969	160.91667
2428.417	184.58333
2430.863	195.58333
2433.308	179.91667
2435.751	183.58333
2438.193	180.25
2440.633	172.91667
2443.071	184.58333
2445.508	163.91667
2447.943	171.58333
2450.376	164.91667
2452.808	177.25
2455.238	163.25
2457.667	192.91667
2460.093	157.25
2462.519	157.58333
2464.942	159.91667
2467.365	170.25
2469.785	176.25
2472.204	159.25
2474.621	161.91667
2477.037	179.58333
2479.451	154.25
2481.863	155.91667
2484.274	160.25
2486.683	163.91667
2489.091	176.58333
2491.497	168.91667
2493.901	165.91667
2496.304	167.25
2498.705	172.25
2501.105	166.91667
2503.503	184.91667
2505.899	150.58333
2508.294	179.91667
2510.687	160.58333
2513.079	154.91667
2515.469	157.91667
2517.858	159.25
2520.245	171.58333
2522.63	160.91667
2525.014	157.91667
2527.396	155.58333
2529.776	150.91667
2532.156	162.25
2534.533	147.91667
2536.909	150.91667
2539.283	141.58333
2541.656	154.91667
2544.027	165.25
2546.397	164.91667
2548.765	151.58333
2551.131	153.58333
2553.496	159.25
2555.86	163.58333
2558.221	160.91667
2560.582	146.91667
2562.94	138.25
2565.298	151.25
2567.653	156.91667
2570.007	140.58333
2572.36	159.25
2574.711	144.58333
2577.06	164.58333
2579.408	154.58333
2581.754	147.25
2584.099	147.25
2586.442	151.58333
2588.784	159.91667
2591.124	153.25
2593.463	150.25
2595.8	155.58333
2598.135	137.91667
2600.469	141.91667
2602.802	161.25
2605.133	165.58333
2607.462	140.58333
2609.79	136.58333
2612.116	157.91667
2614.441	148.58333
2616.764	144.58333
2619.086	148.91667
2621.406	144.25
2623.725	159.25
2626.042	149.25
2628.358	135.25
2630.672	146.58333
2632.985	156.91667
2635.296	150.58333
2637.606	150.91667
2639.914	142.58333
2642.22	148.58333
2644.525	153.25
2646.829	148.58333
2649.131	155.58333
2651.432	152.25
2653.731	145.91667
2656.028	152.58333
2658.324	154.91667
2660.619	135.25
2662.912	156.91667
2665.204	135.58333
2667.494	148.25
2669.782	141.58333
2672.07	158.91667
2674.355	156.25
2676.639	150.25
2678.922	146.91667
2681.203	152.25
2683.483	143.25
2685.761	140.58333
2688.038	151.25
2690.313	155.25
2692.587	150.25
2694.859	144.91667
2697.13	143.58333
2699.399	154.58333
2701.667	153.91667
2703.933	146.25
2706.198	160.25
2708.461	163.58333
2710.723	158.91667
2712.984	148.91667
2715.243	157.58333
2717.5	153.58333
2719.757	162.58333
2722.011	152.91667
2724.264	164.25
2726.516	165.91667
2728.766	147.58333
2731.015	153.91667
2733.262	149.91667
2735.508	154.58333
2737.753	158.25
2739.996	145.91667
2742.237	149.25
2744.477	157.25
2746.716	165.25
2748.953	163.58333
2751.189	161.58333
2753.423	151.58333
2755.656	152.25
2757.887	143.58333
2760.117	148.25
2762.346	147.58333
2764.573	132.58333
2766.798	140.91667
2769.022	150.58333
2771.245	138.25
2773.467	144.58333
2775.686	142.58333
2777.905	152.91667
2780.122	149.58333
2782.337	150.91667
2784.552	145.58333
2786.764	144.91667
2788.976	148.58333
2791.186	150.58333
2793.394	144.25
2795.601	156.58333
2797.807	162.58333
2800.011	150.25
2802.214	158.91667
2804.415	155.58333
2806.615	155.25
2808.814	157.58333
2811.011	164.91667
2813.206	160.25
2815.401	172.58333
2817.594	171.25
2819.785	167.58333
2821.975	158.58333
2824.164	165.25
2826.351	164.58333
2828.537	177.91667
2830.722	174.25
2832.905	175.25
2835.086	183.91667
2837.267	203.91667
2839.445	196.25
2841.623	190.25
2843.799	191.91667
2845.974	210.91667
2848.147	209.91667
2850.319	226.58333
2852.489	228.58333
2854.659	232.58333
2856.826	233.25
2858.993	253.25
2861.158	230.58333
2863.321	232.25
2865.483	253.91667
2867.644	249.91667
2869.804	244.58333
2871.962	231.91667
2874.118	243.58333
2876.274	240.25
2878.428	235.58333
2880.58	242.91667
2882.731	234.25
2884.881	242.91667
2887.03	249.25
2889.177	239.91667
2891.322	246.91667
2893.467	238.91667
2895.61	241.58333
2897.751	254.25
2899.892	240.25
2902.03	252.91667
2904.168	244.58333
2906.304	244.25
2908.439	268.25
2910.572	240.58333
2912.704	248.58333
2914.835	250.58333
2916.965	248.25
2919.093	274.25
2921.219	241.25
2923.345	264.58333
2925.469	246.91667
2927.591	241.25
2929.712	227.91667
2931.832	243.58333
2933.951	240.91667
2936.068	225.91667
2938.184	223.91667
2940.299	218.58333
2942.412	220.91667
2944.524	198.91667
2946.634	210.25
2948.744	188.58333
2950.851	216.91667
2952.958	184.58333
2955.063	199.58333
2957.167	186.58333
2959.269	176.58333
2961.371	199.91667
2963.471	172.25
2965.569	188.58333
2967.666	161.25
2969.762	158.58333
2971.857	162.58333
2973.95	158.25
2976.042	167.91667
2978.133	158.58333
2980.222	159.91667
2982.31	139.58333
2984.396	128.25
2986.482	140.91667
2988.566	140.91667
2990.648	136.25
2992.73	140.91667
2994.81	123.25
2996.889	143.25
2998.966	140.25
3001.042	151.58333
3003.117	133.91667
3005.191	130.25
3007.263	143.58333
3009.334	136.58333
3011.403	142.58333
3013.472	129.91667
3015.539	146.25
3017.604	154.58333
3019.669	118.91667
3021.732	125.58333
3023.794	128.58333
3025.854	118.25
3027.914	110.58333
3029.971	117.91667
3032.028	120.25
3034.083	125.91667
3036.137	123.58333
3038.19	107.58333
3040.242	104.91667
3042.292	102.25
3044.341	109.91667
3046.388	126.25
3048.435	109.25
3050.48	125.25
3052.524	110.25
3054.566	96.25
3056.607	111.25
3058.647	107.91667
3060.686	96.58333
3062.723	93.25
3064.759	92.25
3066.794	1.58333
3068.828	0.91667
3070.86	3.58333
