-0.839	149.375
3.438	167.375
7.711	69.04167
11.981	43.70833
16.247	31.375
20.509	39.375
24.768	36.70833
29.024	41.70833
33.276	30.375
37.524	40.04167
41.769	26.375
46.01	24.04167
50.247	48.04167
54.481	52.04167
58.712	53.375
62.939	38.04167
67.162	53.70833
71.382	46.70833
75.599	39.04167
79.812	44.375
84.021	62.70833
88.227	41.04167
92.429	51.375
96.628	40.04167
100.823	56.04167
105.015	51.04167
109.204	49.70833
113.388	62.04167
117.57	43.70833
121.748	61.70833
125.922	52.375
130.093	66.375
134.261	64.70833
138.425	59.375
142.585	86.04167
146.742	62.375
150.896	84.04167
155.046	80.70833
159.193	119.04167
163.336	177.04167
167.476	315.04167
171.613	547.375
175.746	890.375
179.875	1308.70833
184.002	1697.04167
188.124	1996.04167
192.244	2098.375
196.36	2128.04167
200.472	2104.04167
204.581	2073.04167
208.687	2012.375
212.79	1999.70833
216.889	2038.375
220.984	2040.70833
225.077	2046.70833
229.165	2070.04167
233.251	2052.375
237.333	2058.375
241.412	2016.04167
245.487	2022.04167
249.559	1976.375
253.628	1994.70833
257.694	1953.375
261.756	1978.375
265.814	1919.70833
269.87	1870.04167
273.922	1831.04167
277.97	1819.375
282.016	1791.70833
286.058	1775.375
290.097	1802.70833
294.132	1821.70833
298.164	1802.04167
302.193	1734.375
306.219	1650.04167
310.241	1561.375
314.26	1471.04167
318.276	1410.04167
322.288	1389.04167
326.297	1325.70833
330.303	1327.70833
334.305	1293.70833
338.305	1274.04167
342.301	1286.04167
346.294	1282.04167
350.283	1273.04167
354.269	1255.375
358.252	1257.375
362.232	1270.375
366.209	1270.375
370.182	1250.375
374.152	1245.70833
378.119	1257.70833
382.083	1246.04167
386.043	1254.375
390	1237.375
393.954	1261.70833
397.905	1268.375
401.852	1277.04167
405.797	1262.70833
409.738	1253.375
413.676	1263.04167
417.61	1277.70833
421.542	1267.375
425.47	1234.375
429.396	1224.70833
433.318	1224.375
437.236	1225.04167
441.152	1247.70833
445.065	1216.375
448.974	1218.70833
452.88	1216.70833
456.783	1199.70833
460.683	1203.70833
464.58	1219.70833
468.473	1216.70833
472.364	1208.70833
476.251	1226.70833
480.135	1225.375
484.016	1249.70833
487.894	1238.375
491.769	1245.375
495.641	1231.70833
499.509	1250.375
503.375	1235.04167
507.237	1237.70833
511.096	1241.70833
514.952	1246.70833
518.805	1239.375
522.655	1260.70833
526.502	1247.70833
530.346	1242.375
534.187	1228.70833
538.024	1226.04167
541.859	1207.04167
545.69	1255.375
549.519	1228.375
553.344	1239.70833
557.166	1202.04167
560.985	1197.375
564.802	1224.375
568.615	1183.70833
572.425	1178.04167
576.232	1163.04167
580.036	1159.70833
583.836	1170.04167
587.634	1186.375
591.429	1177.375
595.221	1200.04167
599.01	1203.04167
602.796	1197.375
606.578	1208.375
610.358	1210.375
614.135	1199.04167
617.909	1208.375
621.679	1192.375
625.447	1184.375
629.212	1195.04167
632.973	1203.375
636.732	1182.70833
640.488	1195.04167
644.241	1175.04167
647.991	1161.70833
651.737	1190.70833
655.481	1147.04167
659.222	1174.375
662.96	1170.70833
666.695	1171.04167
670.427	1186.70833
674.156	1200.04167
677.882	1186.70833
681.605	1176.70833
685.325	1163.04167
689.043	1191.04167
692.757	1169.375
696.468	1166.375
700.177	1156.04167
703.882	1155.70833
707.585	1144.04167
711.284	1139.04167
714.981	1133.375
718.675	1128.70833
722.366	1148.70833
726.054	1135.375
729.739	1128.70833
733.421	1136.04167
737.1	1126.04167
740.777	1145.375
744.45	1132.375
748.121	1138.70833
751.789	1169.70833
755.453	1150.375
759.115	1161.375
762.774	1145.70833
766.431	1163.70833
770.084	1174.04167
773.734	1152.70833
777.382	1173.375
781.027	1178.375
784.669	1160.70833
788.308	1175.70833
791.944	1197.04167
795.577	1196.375
799.208	1215.70833
802.835	1208.70833
806.46	1196.04167
810.082	1209.04167
813.701	1213.375
817.317	1216.375
820.931	1216.70833
824.542	1212.70833
828.149	1195.375
831.754	1181.70833
835.357	1166.70833
838.956	1189.04167
842.553	1187.04167
846.146	1164.04167
849.737	1136.70833
853.326	1169.375
856.911	1132.375
860.493	1150.70833
864.073	1162.375
867.65	1168.375
871.225	1189.70833
874.796	1170.70833
878.365	1168.04167
881.931	1172.375
885.494	1192.04167
889.054	1172.375
892.612	1183.04167
896.166	1153.70833
899.719	1142.70833
903.268	1126.70833
906.814	1135.375
910.358	1132.70833
913.899	1112.70833
917.438	1112.04167
920.973	1099.04167
924.506	1121.04167
928.036	1129.70833
931.564	1151.375
935.088	1176.70833
938.61	1145.70833
942.129	1131.375
945.646	1154.70833
949.16	1169.04167
952.671	1176.375
956.179	1190.375
959.685	1175.70833
963.188	1201.70833
966.688	1177.375
970.185	1160.70833
973.68	1119.04167
977.173	1110.375
980.662	1107.04167
984.149	1113.70833
987.633	1094.04167
991.114	1104.375
994.593	1131.70833
998.069	1138.375
1001.542	1169.04167
1005.013	1146.70833
1008.481	1084.375
1011.947	1086.375
1015.409	1071.04167
1018.869	1071.04167
1022.327	1086.04167
1025.782	1061.375
1029.234	1045.375
1032.683	1029.04167
1036.13	1012.375
1039.574	986.70833
1043.016	955.70833
1046.455	954.375
1049.891	931.04167
1053.325	943.04167
1056.756	942.04167
1060.184	944.375
1063.61	926.70833
1067.033	952.70833
1070.454	954.70833
1073.872	976.375
1077.287	945.04167
1080.7	950.375
1084.11	941.375
1087.517	948.04167
1090.922	931.70833
1094.325	910.70833
1097.724	912.70833
1101.122	913.70833
1104.516	918.04167
1107.908	896.70833
1111.298	907.70833
1114.684	917.70833
1118.069	917.04167
1121.45	932.375
1124.83	913.04167
1128.206	930.70833
1131.58	931.375
1134.951	962.70833
1138.32	974.375
1141.687	1005.375
1145.05	1020.375
1148.412	1013.375
1151.77	1018.04167
1155.126	1020.70833
1158.48	1002.375
1161.831	1012.04167
1165.18	1012.04167
1168.525	1014.70833
1171.869	1028.70833
1175.21	1023.375
1178.548	1032.70833
1181.884	1046.04167
1185.217	1050.375
1188.548	1077.70833
1191.877	1087.375
1195.202	1136.70833
1198.526	1142.04167
1201.846	1144.70833
1205.165	1140.04167
1208.48	1138.04167
1211.794	1137.375
1215.104	1149.375
1218.413	1143.04167
1221.719	1128.04167
1225.022	1107.04167
1228.323	1096.375
1231.621	1098.04167
1234.917	1089.04167
1238.21	1119.70833
1241.501	1085.375
1244.79	1082.70833
1248.076	1065.70833
1251.359	1093.70833
1254.64	1144.375
1257.919	1120.04167
1261.195	1130.375
1264.468	1144.70833
1267.74	1154.70833
1271.008	1158.375
1274.275	1151.375
1277.538	1137.375
1280.8	1154.375
1284.059	1136.70833
1287.315	1150.04167
1290.569	1148.70833
1293.821	1138.70833
1297.07	1145.70833
1300.317	1158.04167
1303.562	1159.04167
1306.803	1144.70833
1310.043	1146.70833
1313.28	1136.375
1316.515	1128.375
1319.747	1132.70833
1322.977	1126.04167
1326.204	1111.04167
1329.429	1104.70833
1332.652	1103.04167
1335.872	1105.70833
1339.09	1096.70833
1342.306	1089.70833
1345.519	1081.70833
1348.729	1075.375
1351.938	1083.04167
1355.144	1061.375
1358.347	1057.70833
1361.548	1059.04167
1364.747	1052.04167
1367.944	1032.375
1371.138	1054.04167
1374.329	1031.04167
1377.518	1036.375
1380.705	1057.04167
1383.89	1054.04167
1387.072	1005.04167
1390.252	988.04167
1393.429	971.375
1396.605	950.375
1399.777	900.375
1402.948	898.70833
1406.116	884.70833
1409.282	894.70833
1412.445	894.04167
1415.606	887.375
1418.765	901.375
1421.921	924.70833
1425.075	909.04167
1428.227	943.04167
1431.376	977.04167
1434.524	1005.375
1437.668	1018.04167
1440.811	1027.70833
1443.951	1043.04167
1447.089	1054.04167
1450.224	1034.04167
1453.357	1045.375
1456.488	1018.70833
1459.617	1008.375
1462.743	1009.04167
1465.867	982.04167
1468.989	971.70833
1472.108	971.04167
1475.225	952.04167
1478.34	945.375
1481.453	919.375
1484.563	914.70833
1487.671	940.375
1490.776	948.375
1493.88	956.70833
1496.981	979.04167
1500.08	988.70833
1503.176	968.70833
1506.271	990.375
1509.363	1009.70833
1512.452	1011.375
1515.54	1030.375
1518.625	1025.375
1521.708	1057.04167
1524.789	1072.04167
1527.867	1105.375
1530.944	1159.70833
1534.018	1185.70833
1537.089	1245.70833
1540.159	1249.70833
1543.226	1244.04167
1546.291	1221.04167
1549.354	1206.375
1552.415	1187.04167
1555.473	1175.375
1558.529	1135.375
1561.583	1137.70833
1564.634	1116.70833
1567.684	1130.04167
1570.731	1124.70833
1573.776	1131.04167
1576.819	1132.375
1579.859	1152.375
1582.898	1150.70833
1585.934	1188.04167
1588.968	1172.70833
1591.999	1155.375
1595.029	1156.375
1598.056	1161.04167
1601.081	1183.375
1604.104	1170.70833
1607.125	1155.04167
1610.144	1155.375
1613.16	1113.04167
1616.174	1090.04167
1619.186	1083.375
1622.196	1056.04167
1625.203	1031.375
1628.209	1036.04167
1631.212	1026.375
1634.213	1027.70833
1637.212	1033.04167
1640.209	1038.375
1643.203	1011.70833
1646.196	975.04167
1649.186	943.04167
1652.174	924.70833
1655.16	885.04167
1658.144	876.375
1661.125	835.04167
1664.105	816.375
1667.082	786.70833
1670.057	734.70833
1673.03	686.375
1676.001	672.70833
1678.97	617.375
1681.937	595.375
1684.901	577.70833
1687.863	565.375
1690.824	536.375
1693.782	549.70833
1696.738	514.70833
1699.692	505.375
1702.643	492.70833
1705.593	488.375
1708.54	483.04167
1711.486	500.375
1714.429	473.04167
1717.37	488.04167
1720.309	470.70833
1723.246	480.375
1726.181	457.04167
1729.113	463.04167
1732.044	464.70833
1734.972	448.70833
1737.899	464.375
1740.823	457.70833
1743.745	474.70833
1746.665	442.375
1749.583	435.04167
1752.499	434.04167
1755.413	426.375
1758.325	410.04167
1761.235	434.375
1764.142	408.04167
1767.048	413.70833
1769.951	410.70833
1772.852	407.04167
1775.752	413.375
1778.649	420.70833
1781.544	430.04167
1784.437	402.04167
1787.328	405.375
1790.217	397.70833
1793.104	381.04167
1795.989	385.375
1798.872	380.70833
1801.753	395.375
1804.631	389.375
1807.508	393.70833
1810.383	394.04167
1813.255	386.375
1816.126	380.04167
1818.994	379.375
1821.861	380.375
1824.725	382.04167
1827.587	382.375
1830.448	373.70833
1833.306	363.375
1836.162	376.04167
1839.017	374.04167
1841.869	369.375
1844.719	370.04167
1847.567	344.70833
1850.414	349.04167
1853.258	355.375
1856.1	364.70833
1858.94	367.70833
1861.778	358.375
1864.614	346.04167
1867.448	356.375
1870.28	346.04167
1873.111	364.375
1875.939	354.04167
1878.765	378.70833
1881.589	353.04167
1884.411	351.70833
1887.231	357.375
1890.049	345.04167
1892.865	355.375
1895.68	338.04167
1898.492	351.04167
1901.302	345.04167
1904.11	341.04167
1906.916	343.375
1909.721	327.70833
1912.523	342.04167
1915.323	329.375
1918.122	329.70833
1920.918	348.04167
1923.712	334.375
1926.505	336.70833
1929.295	321.04167
1932.084	325.375
1934.87	329.70833
1937.655	323.70833
1940.438	319.70833
1943.218	331.375
1945.997	331.04167
1948.774	339.04167
1951.549	328.04167
1954.322	326.375
1957.093	321.70833
1959.862	312.04167
1962.629	321.375
1965.394	319.70833
1968.157	296.70833
1970.918	326.375
1973.678	313.04167
1976.435	326.04167
1979.19	311.375
1981.944	299.70833
1984.696	312.04167
1987.445	302.70833
1990.193	311.375
1992.939	313.70833
1995.683	311.375
1998.425	288.04167
2001.165	326.04167
2003.903	293.375
2006.639	296.04167
2009.374	302.70833
2012.106	300.375
2014.837	280.375
2017.566	300.70833
2020.292	304.04167
2023.017	296.04167
2025.74	291.375
2028.461	284.375
2031.18	298.375
2033.898	283.375
2036.613	303.04167
2039.327	298.04167
2042.038	283.04167
2044.748	288.70833
2047.456	291.70833
2050.162	278.70833
2052.866	279.04167
2055.568	296.375
2058.268	278.70833
2060.967	296.375
2063.663	274.375
2066.358	274.375
2069.051	270.70833
2071.742	270.04167
2074.431	291.375
2077.118	274.04167
2079.804	264.70833
2082.487	278.04167
2085.169	284.70833
2087.849	295.70833
2090.527	273.04167
2093.203	280.375
2095.877	276.04167
2098.55	275.375
2101.22	286.70833
2103.889	283.375
2106.556	278.375
2109.221	301.375
2111.884	287.70833
2114.546	317.375
2117.205	323.70833
2119.863	344.04167
2122.519	351.70833
2125.173	376.70833
2127.825	405.04167
2130.475	404.04167
2133.124	387.04167
2135.771	371.04167
2138.416	374.04167
2141.059	344.04167
2143.7	348.70833
2146.339	314.375
2148.977	294.04167
2151.613	311.375
2154.247	298.70833
2156.879	283.04167
2159.51	274.70833
2162.138	280.375
2164.765	270.04167
2167.39	262.04167
2170.013	284.04167
2172.634	275.70833
2175.254	268.375
2177.872	293.04167
2180.488	254.04167
2183.102	260.70833
2185.714	254.70833
2188.325	242.04167
2190.934	249.04167
2193.541	255.375
2196.146	251.04167
2198.75	235.04167
2201.351	236.70833
2203.951	227.04167
2206.549	239.04167
2209.146	231.70833
2211.74	232.375
2214.333	241.04167
2216.924	223.375
2219.514	230.70833
2222.101	233.04167
2224.687	236.70833
2227.271	221.375
2229.853	225.70833
2232.433	214.04167
2235.012	234.375
2237.589	227.04167
2240.164	241.70833
2242.738	223.375
2245.309	214.375
2247.879	236.375
2250.448	228.04167
2253.014	209.375
2255.579	202.375
2258.142	207.04167
2260.703	208.70833
2263.262	216.375
2265.82	204.70833
2268.376	218.04167
2270.93	208.375
2273.483	206.375
2276.033	218.04167
2278.583	207.04167
2281.13	205.04167
2283.675	194.375
2286.219	202.70833
2288.761	210.04167
2291.302	210.70833
2293.841	217.70833
2296.377	195.70833
2298.913	205.04167
2301.446	215.70833
2303.978	207.04167
2306.508	202.70833
2309.037	208.04167
2311.563	202.04167
2314.088	203.375
2316.612	189.04167
2319.133	204.375
2321.653	200.70833
2324.171	191.70833
2326.688	208.04167
2329.202	200.375
2331.715	201.04167
2334.227	200.375
2336.736	198.375
2339.244	186.04167
2341.751	183.375
2344.255	201.70833
2346.758	194.70833
2349.259	174.70833
2351.759	194.70833
2354.257	181.70833
2356.753	185.04167
2359.247	189.04167
2361.74	191.04167
2364.231	187.70833
2366.721	194.04167
2369.209	186.04167
2371.695	181.70833
2374.179	182.04167
2376.662	167.70833
2379.143	193.70833
2381.622	183.04167
2384.1	190.04167
2386.576	179.70833
2389.051	191.375
2391.524	189.04167
2393.995	190.375
2396.464	175.70833
2398.932	180.375
2401.398	181.375
2403.863	172.375
2406.325	171.70833
2408.787	180.70833
2411.246	176.04167
2413.704	179.375
2416.16	176.375
2418.615	175.375
2421.068	183.375
2423.519	174.04167
2425.969	169.70833
2428.417	184.70833
2430.863	191.04167
2433.308	180.04167
2435.751	180.375
2438.193	179.04167
2440.633	173.04167
2443.071	181.04167
2445.508	165.04167
2447.943	175.04167
2450.376	161.70833
2452.808	182.04167
2455.238	166.375
2457.667	197.375
2460.093	163.04167
2462.519	153.70833
2464.942	168.375
2467.365	172.04167
2469.785	177.70833
2472.204	166.375
2474.621	163.375
2477.037	180.70833
2479.451	155.70833
2481.863	153.04167
2484.274	158.04167
2486.683	165.375
2489.091	176.04167
2491.497	175.375
2493.901	177.04167
2496.304	166.04167
2498.705	173.04167
2501.105	163.375
2503.503	185.375
2505.899	161.70833
2508.294	179.70833
2510.687	159.375
2513.079	156.375
2515.469	154.375
2517.858	158.70833
2520.245	173.375
2522.63	159.04167
2525.014	157.04167
2527.396	150.04167
2529.776	155.375
2532.156	161.70833
2534.533	154.70833
2536.909	148.04167
2539.283	140.04167
2541.656	152.70833
2544.027	172.375
2546.397	158.375
2548.765	155.70833
2551.131	158.70833
2553.496	159.04167
2555.86	157.375
2558.221	159.04167
2560.582	149.04167
2562.94	143.375
2565.298	158.04167
2567.653	160.04167
2570.007	143.70833
2572.36	158.70833
2574.711	147.04167
2577.06	167.70833
2579.408	155.04167
2581.754	149.70833
2584.099	153.70833
2586.442	150.70833
2588.784	150.04167
2591.124	154.04167
2593.463	150.04167
2595.8	154.375
2598.135	141.375
2600.469	145.70833
2602.802	165.375
2605.133	164.04167
2607.462	138.04167
2609.79	138.04167
2612.116	161.04167
2614.441	146.04167
2616.764	149.375
2619.086	152.04167
2621.406	146.04167
2623.725	160.70833
2626.042	148.04167
2628.358	143.375
2630.672	152.04167
2632.985	162.04167
2635.296	152.70833
2637.606	145.375
2639.914	144.375
2642.22	141.70833
2644.525	155.04167
2646.829	146.70833
2649.131	159.70833
2651.432	155.70833
2653.731	146.70833
2656.028	160.04167
2658.324	150.70833
2660.619	140.70833
2662.912	152.375
2665.204	141.04167
2667.494	155.70833
2669.782	139.70833
2672.07	152.375
2674.355	156.04167
2676.639	153.04167
2678.922	144.70833
2681.203	151.375
2683.483	139.04167
2685.761	142.375
2688.038	159.04167
2690.313	162.70833
2692.587	150.70833
2694.859	145.70833
2697.13	149.70833
2699.399	152.375
2701.667	155.70833
2703.933	153.04167
2706.198	160.04167
2708.461	159.70833
2710.723	158.04167
2712.984	158.04167
2715.243	159.70833
2717.5	150.70833
2719.757	161.04167
2722.011	152.375
2724.264	162.04167
2726.516	165.04167
2728.766	148.70833
2731.015	156.375
2733.262	156.70833
2735.508	152.04167
2737.753	157.04167
2739.996	148.04167
2742.237	140.375
2744.477	160.04167
2746.716	168.375
2748.953	159.375
2751.189	160.04167
2753.423	159.375
2755.656	152.70833
2757.887	136.04167
2760.117	147.70833
2762.346	146.375
2764.573	135.04167
2766.798	145.04167
2769.022	145.375
2771.245	139.375
2773.467	143.70833
2775.686	145.375
2777.905	158.04167
2780.122	147.04167
2782.337	153.375
2784.552	144.04167
2786.764	150.04167
2788.976	141.375
2791.186	151.375
2793.394	147.70833
2795.601	156.375
2797.807	154.375
2800.011	154.04167
2802.214	155.70833
2804.415	158.04167
2806.615	161.70833
2808.814	157.70833
2811.011	161.70833
2813.206	163.04167
2815.401	170.04167
2817.594	174.70833
2819.785	171.04167
2821.975	162.04167
2824.164	167.375
2826.351	165.04167
2828.537	174.375
2830.722	179.04167
2832.905	166.70833
2835.086	180.375
2837.267	204.04167
2839.445	191.375
2841.623	193.375
2843.799	190.04167
2845.974	206.04167
2848.147	210.70833
2850.319	219.04167
2852.489	235.375
2854.659	227.04167
2856.826	228.70833
2858.993	245.04167
2861.158	228.70833
2863.321	233.04167
2865.483	250.04167
2867.644	245.04167
2869.804	243.375
2871.962	236.375
2874.118	244.04167
2876.274	246.70833
2878.428	240.04167
2880.58	241.375
2882.731	236.70833
2884.881	235.04167
2887.03	246.70833
2889.177	240.04167
2891.322	242.375
2893.467	237.375
2895.61	237.375
2897.751	256.04167
2899.892	236.375
2902.03	256.375
2904.168	244.70833
2906.304	247.04167
2908.439	260.70833
2910.572	240.375
2912.704	252.04167
2914.835	254.04167
2916.965	251.70833
2919.093	269.04167
2921.219	238.375
2923.345	272.70833
2925.469	255.04167
2927.591	244.375
2929.712	225.70833
2931.832	248.70833
2933.951	232.375
2936.068	230.375
2938.184	222.04167
2940.299	213.70833
2942.412	220.04167
2944.524	202.70833
2946.634	206.375
2948.744	180.375
2950.851	219.375
2952.958	183.375
2955.063	197.375
2957.167	184.04167
2959.269	176.375
2961.371	207.04167
2963.471	178.70833
2965.569	184.70833
2967.666	162.375
2969.762	165.375
2971.857	157.70833
2973.95	157.04167
2976.042	162.375
2978.133	157.70833
2980.222	150.70833
2982.31	142.375
2984.396	131.04167
2986.482	138.375
2988.566	145.70833
2990.648	144.375
2992.73	143.04167
2994.81	123.70833
2996.889	145.04167
2998.966	137.375
3001.042	150.70833
3003.117	133.04167
3005.191	139.375
3007.263	141.70833
3009.334	135.375
3011.403	137.375
3013.472	132.70833
3015.539	148.04167
3017.604	152.70833
3019.669	122.70833
3021.732	128.375
3023.794	126.70833
3025.854	117.04167
3027.914	117.70833
3029.971	121.70833
3032.028	123.04167
3034.083	126.04167
3036.137	124.70833
3038.19	112.04167
3040.242	106.04167
3042.292	107.375
3044.341	114.375
3046.388	126.04167
3048.435	102.70833
3050.48	121.375
3052.524	116.04167
3054.566	97.70833
3056.607	107.70833
3058.647	102.70833
3060.686	100.70833
3062.723	91.70833
3064.759	92.04167
3066.794	0.70833
3068.828	0.04167
3070.86	2.70833
