-0.839	151.08333
3.438	160.08333
7.711	68.08333
11.981	46.75
16.247	31.75
20.509	40.08333
24.768	40.41667
29.024	42.08333
33.276	34.08333
37.524	45.41667
41.769	28.75
46.01	22.75
50.247	44.41667
54.481	50.75
58.712	52.75
62.939	38.08333
67.162	52.75
71.382	49.08333
75.599	38.08333
79.812	43.41667
84.021	63.08333
88.227	42.75
92.429	52.08333
96.628	32.08333
100.823	53.41667
105.015	50.08333
109.204	45.08333
113.388	56.75
117.57	43.75
121.748	61.75
125.922	49.08333
130.093	62.41667
134.261	62.41667
138.425	55.41667
142.585	82.41667
146.742	66.08333
150.896	79.08333
155.046	73.08333
159.193	115.08333
163.336	166.08333
167.476	286.75
171.613	502.75
175.746	826.41667
179.875	1197.08333
184.002	1531.75
188.124	1800.75
192.244	1882.41667
196.36	1868.08333
200.472	1851.41667
204.581	1823.41667
208.687	1744.08333
212.79	1741.75
216.889	1770.08333
220.984	1772.75
225.077	1784.41667
229.165	1795.41667
233.251	1783.75
237.333	1799.41667
241.412	1750.08333
245.487	1756.41667
249.559	1723.08333
253.628	1725.41667
257.694	1701.08333
261.756	1697.75
265.814	1653.41667
269.87	1624.75
273.922	1551.75
277.97	1543.75
282.016	1535.08333
286.058	1499.41667
290.097	1532.41667
294.132	1544.41667
298.164	1551.08333
302.193	1485.41667
306.219	1407.75
310.241	1307.08333
314.26	1212.75
318.276	1171.41667
322.288	1128.08333
326.297	1074.41667
330.303	1049.41667
334.305	1036.08333
338.305	1015.41667
342.301	1025.75
346.294	1007.75
350.283	993.41667
354.269	992.75
358.252	976.08333
362.232	983.75
366.209	988.41667
370.182	977.75
374.152	964.08333
378.119	984.08333
382.083	972.41667
386.043	978.75
390	963.41667
393.954	987.41667
397.905	972.08333
401.852	971.75
405.797	966.41667
409.738	960.08333
413.676	968.41667
417.61	973.41667
421.542	955.08333
425.47	942.75
429.396	917.75
433.318	918.75
437.236	946.41667
441.152	960.08333
445.065	911.08333
448.974	925.75
452.88	916.75
456.783	892.75
460.683	912.08333
464.58	924.75
468.473	913.08333
472.364	921.75
476.251	917.08333
480.135	912.75
484.016	924.75
487.894	942.41667
491.769	936.08333
495.641	920.41667
499.509	940.08333
503.375	940.41667
507.237	928.08333
511.096	920.75
514.952	941.41667
518.805	924.08333
522.655	924.08333
526.502	931.08333
530.346	930.08333
534.187	938.75
538.024	923.08333
541.859	924.08333
545.69	938.08333
549.519	943.41667
553.344	937.08333
557.166	913.41667
560.985	904.08333
564.802	915.08333
568.615	890.75
572.425	878.75
576.232	883.75
580.036	872.41667
583.836	879.75
587.634	893.75
591.429	882.08333
595.221	900.75
599.01	916.75
602.796	901.41667
606.578	911.75
610.358	918.75
614.135	903.75
617.909	906.75
621.679	890.75
625.447	899.75
629.212	898.75
632.973	892.75
636.732	885.75
640.488	891.41667
644.241	871.75
647.991	873.41667
651.737	899.41667
655.481	861.41667
659.222	896.75
662.96	876.08333
666.695	897.75
670.427	880.41667
674.156	900.08333
677.882	891.41667
681.605	890.08333
685.325	870.75
689.043	900.75
692.757	872.08333
696.468	870.75
700.177	871.41667
703.882	854.41667
707.585	869.41667
711.284	863.08333
714.981	852.08333
718.675	846.75
722.366	881.08333
726.054	861.75
729.739	865.08333
733.421	854.75
737.1	849.75
740.777	864.08333
744.45	872.41667
748.121	863.75
751.789	886.08333
755.453	881.75
759.115	891.75
762.774	891.75
766.431	886.08333
770.084	897.08333
773.734	903.41667
777.382	918.41667
781.027	926.75
784.669	919.41667
788.308	912.41667
791.944	931.41667
795.577	940.41667
799.208	944.08333
802.835	946.41667
806.46	946.08333
810.082	942.08333
813.701	938.41667
817.317	960.75
820.931	951.08333
824.542	963.08333
828.149	939.08333
831.754	914.75
835.357	918.75
838.956	941.08333
842.553	934.41667
846.146	916.75
849.737	899.08333
853.326	919.75
856.911	891.75
860.493	925.08333
864.073	918.75
867.65	933.75
871.225	949.75
874.796	934.08333
878.365	942.75
881.931	947.75
885.494	962.08333
889.054	965.41667
892.612	937.75
896.166	937.08333
899.719	919.75
903.268	904.75
906.814	906.08333
910.358	906.41667
913.899	892.41667
917.438	895.41667
920.973	869.75
924.506	889.75
928.036	922.41667
931.564	913.41667
935.088	935.75
938.61	920.41667
942.129	917.75
945.646	940.41667
949.16	960.08333
952.671	966.75
956.179	996.41667
959.685	969.41667
963.188	987.08333
966.688	968.08333
970.185	926.41667
973.68	918.41667
977.173	898.75
980.662	898.75
984.149	899.08333
987.633	870.41667
991.114	890.08333
994.593	921.41667
998.069	924.08333
1001.542	943.08333
1005.013	941.75
1008.481	883.41667
1011.947	879.08333
1015.409	856.41667
1018.869	882.08333
1022.327	872.41667
1025.782	862.41667
1029.234	848.75
1032.683	837.75
1036.13	816.75
1039.574	791.41667
1043.016	781.08333
1046.455	773.41667
1049.891	760.75
1053.325	775.75
1056.756	768.41667
1060.184	771.75
1063.61	753.75
1067.033	768.08333
1070.454	756.08333
1073.872	783.75
1077.287	767.08333
1080.7	763.75
1084.11	775.41667
1087.517	771.75
1090.922	757.41667
1094.325	744.41667
1097.724	743.08333
1101.122	740.41667
1104.516	737.75
1107.908	729.75
1111.298	750.08333
1114.684	744.75
1118.069	752.75
1121.45	763.08333
1124.83	753.75
1128.206	766.41667
1131.58	773.41667
1134.951	797.08333
1138.32	796.75
1141.687	833.41667
1145.05	850.75
1148.412	852.08333
1151.77	838.08333
1155.126	836.08333
1158.48	831.75
1161.831	829.75
1165.18	847.41667
1168.525	851.08333
1171.869	856.75
1175.21	873.75
1178.548	880.41667
1181.884	887.08333
1185.217	878.08333
1188.548	922.75
1191.877	930.75
1195.202	967.08333
1198.526	988.75
1201.846	977.41667
1205.165	971.75
1208.48	983.41667
1211.794	989.75
1215.104	978.08333
1218.413	970.75
1221.719	975.41667
1225.022	966.41667
1228.323	943.41667
1231.621	953.08333
1234.917	948.08333
1238.21	971.41667
1241.501	935.41667
1244.79	928.75
1248.076	915.41667
1251.359	937.08333
1254.64	974.08333
1257.919	958.75
1261.195	959.41667
1264.468	975.08333
1267.74	990.41667
1271.008	993.75
1274.275	1000.41667
1277.538	984.75
1280.8	986.41667
1284.059	978.75
1287.315	988.75
1290.569	980.75
1293.821	1009.08333
1297.07	1006.75
1300.317	1021.08333
1303.562	1018.41667
1306.803	996.08333
1310.043	991.75
1313.28	999.41667
1316.515	985.08333
1319.747	1001.75
1322.977	988.75
1326.204	982.75
1329.429	960.08333
1332.652	956.08333
1335.872	971.75
1339.09	937.08333
1342.306	940.08333
1345.519	933.75
1348.729	927.41667
1351.938	933.08333
1355.144	914.41667
1358.347	917.75
1361.548	929.41667
1364.747	914.08333
1367.944	895.08333
1371.138	902.75
1374.329	897.75
1377.518	900.41667
1380.705	899.08333
1383.89	904.41667
1387.072	881.41667
1390.252	849.75
1393.429	826.75
1396.605	807.41667
1399.777	760.41667
1402.948	770.08333
1406.116	756.08333
1409.282	761.41667
1412.445	774.41667
1415.606	774.08333
1418.765	769.08333
1421.921	786.75
1425.075	794.75
1428.227	832.41667
1431.376	851.75
1434.524	877.75
1437.668	914.75
1440.811	913.41667
1443.951	912.08333
1447.089	913.41667
1450.224	923.41667
1453.357	917.41667
1456.488	912.41667
1459.617	915.75
1462.743	881.41667
1465.867	846.08333
1468.989	841.41667
1472.108	843.41667
1475.225	820.75
1478.34	811.41667
1481.453	807.75
1484.563	795.08333
1487.671	813.75
1490.776	833.08333
1493.88	820.08333
1496.981	855.08333
1500.08	861.41667
1503.176	854.41667
1506.271	868.08333
1509.363	885.08333
1512.452	893.41667
1515.54	891.08333
1518.625	906.41667
1521.708	951.08333
1524.789	966.08333
1527.867	980.41667
1530.944	1039.41667
1534.018	1051.75
1537.089	1109.08333
1540.159	1124.75
1543.226	1116.41667
1546.291	1098.08333
1549.354	1092.75
1552.415	1063.08333
1555.473	1043.75
1558.529	1032.41667
1561.583	1004.75
1564.634	1002.75
1567.684	1005.08333
1570.731	1005.75
1573.776	1016.41667
1576.819	1013.08333
1579.859	1023.41667
1582.898	1041.41667
1585.934	1051.41667
1588.968	1059.41667
1591.999	1044.08333
1595.029	1040.08333
1598.056	1053.75
1601.081	1070.41667
1604.104	1072.41667
1607.125	1059.75
1610.144	1032.41667
1613.16	989.75
1616.174	976.75
1619.186	966.75
1622.196	956.08333
1625.203	923.41667
1628.209	930.41667
1631.212	914.75
1634.213	925.41667
1637.212	922.08333
1640.209	906.08333
1643.203	895.41667
1646.196	877.08333
1649.186	839.41667
1652.174	814.08333
1655.16	779.41667
1658.144	782.08333
1661.125	742.08333
1664.105	704.41667
1667.082	683.75
1670.057	642.08333
1673.03	612.41667
1676.001	580.41667
1678.97	538.75
1681.937	514.08333
1684.901	487.75
1687.863	483.08333
1690.824	461.41667
1693.782	464.75
1696.738	436.75
1699.692	432.08333
1702.643	408.41667
1705.593	414.41667
1708.54	412.75
1711.486	413.41667
1714.429	386.41667
1717.37	405.08333
1720.309	391.08333
1723.246	401.75
1726.181	387.41667
1729.113	379.08333
1732.044	385.75
1734.972	377.75
1737.899	396.41667
1740.823	392.08333
1743.745	408.41667
1746.665	364.75
1749.583	356.41667
1752.499	353.08333
1755.413	352.08333
1758.325	339.75
1761.235	352.75
1764.142	335.75
1767.048	348.75
1769.951	342.75
1772.852	341.08333
1775.752	342.08333
1778.649	341.41667
1781.544	351.08333
1784.437	321.08333
1787.328	333.08333
1790.217	325.75
1793.104	309.08333
1795.989	307.08333
1798.872	315.08333
1801.753	325.75
1804.631	323.08333
1807.508	323.08333
1810.383	316.41667
1813.255	316.08333
1816.126	312.41667
1818.994	315.75
1821.861	310.41667
1824.725	312.41667
1827.587	324.08333
1830.448	309.75
1833.306	296.75
1836.162	314.08333
1839.017	299.41667
1841.869	307.08333
1844.719	305.75
1847.567	291.08333
1850.414	289.41667
1853.258	287.08333
1856.1	301.08333
1858.94	301.75
1861.778	297.75
1864.614	287.41667
1867.448	295.08333
1870.28	280.08333
1873.111	308.08333
1875.939	281.75
1878.765	311.41667
1881.589	287.08333
1884.411	291.41667
1887.231	290.75
1890.049	290.41667
1892.865	301.41667
1895.68	277.75
1898.492	293.41667
1901.302	286.08333
1904.11	288.41667
1906.916	277.75
1909.721	279.75
1912.523	280.75
1915.323	269.75
1918.122	275.75
1920.918	286.41667
1923.712	275.75
1926.505	274.41667
1929.295	259.08333
1932.084	279.41667
1934.87	277.75
1937.655	271.08333
1940.438	256.08333
1943.218	269.75
1945.997	272.08333
1948.774	271.08333
1951.549	276.75
1954.322	269.41667
1957.093	264.41667
1959.862	264.41667
1962.629	266.08333
1965.394	259.08333
1968.157	249.08333
1970.918	273.75
1973.678	257.75
1976.435	264.75
1979.19	255.08333
1981.944	246.08333
1984.696	254.08333
1987.445	250.08333
1990.193	253.08333
1992.939	260.41667
1995.683	259.41667
1998.425	238.41667
2001.165	269.41667
2003.903	238.75
2006.639	249.08333
2009.374	256.08333
2012.106	253.41667
2014.837	229.08333
2017.566	256.41667
2020.292	252.08333
2023.017	245.41667
2025.74	245.41667
2028.461	238.08333
2031.18	246.75
2033.898	228.75
2036.613	242.75
2039.327	241.08333
2042.038	232.08333
2044.748	243.41667
2047.456	245.75
2050.162	229.75
2052.866	234.08333
2055.568	248.08333
2058.268	227.41667
2060.967	239.41667
2063.663	224.08333
2066.358	232.75
2069.051	224.75
2071.742	239.75
2074.431	242.08333
2077.118	234.08333
2079.804	212.75
2082.487	229.08333
2085.169	239.41667
2087.849	254.75
2090.527	228.41667
2093.203	230.41667
2095.877	231.41667
2098.55	237.41667
2101.22	244.41667
2103.889	236.08333
2106.556	237.41667
2109.221	258.75
2111.884	243.41667
2114.546	274.41667
2117.205	275.08333
2119.863	307.75
2122.519	302.08333
2125.173	324.75
2127.825	357.75
2130.475	365.41667
2133.124	342.41667
2135.771	322.75
2138.416	331.75
2141.059	298.41667
2143.7	299.75
2146.339	274.41667
2148.977	248.75
2151.613	260.41667
2154.247	252.75
2156.879	242.41667
2159.51	230.08333
2162.138	238.41667
2164.765	228.75
2167.39	218.75
2170.013	243.75
2172.634	234.41667
2175.254	220.75
2177.872	258.41667
2180.488	210.75
2183.102	216.08333
2185.714	213.41667
2188.325	202.08333
2190.934	219.75
2193.541	217.75
2196.146	218.08333
2198.75	199.41667
2201.351	206.75
2203.951	189.41667
2206.549	209.41667
2209.146	202.75
2211.74	184.41667
2214.333	206.41667
2216.924	186.08333
2219.514	203.41667
2222.101	193.41667
2224.687	204.08333
2227.271	187.08333
2229.853	197.41667
2232.433	173.75
2235.012	203.08333
2237.589	194.08333
2240.164	207.08333
2242.738	187.08333
2245.309	183.41667
2247.879	200.08333
2250.448	194.75
2253.014	183.08333
2255.579	173.41667
2258.142	175.08333
2260.703	180.41667
2263.262	178.41667
2265.82	174.75
2268.376	194.75
2270.93	174.75
2273.483	169.41667
2276.033	179.75
2278.583	176.75
2281.13	172.41667
2283.675	166.41667
2286.219	174.75
2288.761	182.41667
2291.302	176.08333
2293.841	188.41667
2296.377	160.08333
2298.913	170.75
2301.446	183.75
2303.978	177.08333
2306.508	168.08333
2309.037	176.41667
2311.563	175.41667
2314.088	175.08333
2316.612	162.75
2319.133	172.08333
2321.653	170.41667
2324.171	165.75
2326.688	176.75
2329.202	166.41667
2331.715	163.75
2334.227	167.41667
2336.736	161.41667
2339.244	160.75
2341.751	153.75
2344.255	169.75
2346.758	167.08333
2349.259	158.41667
2351.759	165.41667
2354.257	158.41667
2356.753	151.08333
2359.247	155.75
2361.74	158.41667
2364.231	159.41667
2366.721	171.41667
2369.209	154.75
2371.695	154.75
2374.179	157.08333
2376.662	146.08333
2379.143	164.75
2381.622	154.41667
2384.1	164.41667
2386.576	150.41667
2389.051	167.08333
2391.524	165.75
2393.995	155.08333
2396.464	153.75
2398.932	149.41667
2401.398	150.75
2403.863	148.08333
2406.325	146.75
2408.787	153.08333
2411.246	153.08333
2413.704	147.41667
2416.16	145.08333
2418.615	146.41667
2421.068	154.41667
2423.519	148.41667
2425.969	146.75
2428.417	156.41667
2430.863	168.75
2433.308	159.41667
2435.751	151.08333
2438.193	152.75
2440.633	155.08333
2443.071	156.41667
2445.508	143.08333
2447.943	142.75
2450.376	141.75
2452.808	146.75
2455.238	137.75
2457.667	171.08333
2460.093	140.75
2462.519	131.41667
2464.942	144.75
2467.365	149.75
2469.785	147.41667
2472.204	139.08333
2474.621	135.75
2477.037	154.75
2479.451	130.75
2481.863	131.75
2484.274	132.75
2486.683	139.41667
2489.091	153.75
2491.497	147.75
2493.901	142.08333
2496.304	138.41667
2498.705	150.08333
2501.105	141.41667
2503.503	165.75
2505.899	128.75
2508.294	155.41667
2510.687	130.75
2513.079	135.08333
2515.469	127.08333
2517.858	133.41667
2520.245	148.75
2522.63	132.08333
2525.014	131.75
2527.396	128.08333
2529.776	129.75
2532.156	137.08333
2534.533	127.08333
2536.909	125.08333
2539.283	115.41667
2541.656	125.08333
2544.027	146.41667
2546.397	135.41667
2548.765	125.75
2551.131	130.41667
2553.496	135.08333
2555.86	135.75
2558.221	135.08333
2560.582	125.08333
2562.94	118.75
2565.298	138.41667
2567.653	142.75
2570.007	117.41667
2572.36	139.41667
2574.711	125.75
2577.06	143.08333
2579.408	133.08333
2581.754	123.41667
2584.099	127.41667
2586.442	123.08333
2588.784	134.08333
2591.124	130.08333
2593.463	123.75
2595.8	132.08333
2598.135	115.41667
2600.469	120.08333
2602.802	135.08333
2605.133	143.08333
2607.462	124.41667
2609.79	118.41667
2612.116	139.08333
2614.441	123.41667
2616.764	129.41667
2619.086	131.41667
2621.406	121.08333
2623.725	138.08333
2626.042	124.08333
2628.358	115.41667
2630.672	127.08333
2632.985	131.75
2635.296	127.75
2637.606	122.41667
2639.914	123.41667
2642.22	122.08333
2644.525	129.08333
2646.829	121.75
2649.131	138.75
2651.432	128.75
2653.731	115.75
2656.028	129.41667
2658.324	131.08333
2660.619	118.08333
2662.912	135.41667
2665.204	112.41667
2667.494	126.41667
2669.782	120.41667
2672.07	130.08333
2674.355	138.41667
2676.639	128.08333
2678.922	121.08333
2681.203	129.41667
2683.483	117.08333
2685.761	115.41667
2688.038	131.08333
2690.313	137.08333
2692.587	122.41667
2694.859	120.41667
2697.13	122.08333
2699.399	127.41667
2701.667	134.75
2703.933	125.75
2706.198	142.08333
2708.461	129.75
2710.723	134.08333
2712.984	128.75
2715.243	142.75
2717.5	124.75
2719.757	135.08333
2722.011	129.08333
2724.264	131.75
2726.516	138.41667
2728.766	123.08333
2731.015	133.08333
2733.262	131.41667
2735.508	131.75
2737.753	137.41667
2739.996	112.75
2742.237	121.08333
2744.477	133.41667
2746.716	141.08333
2748.953	135.08333
2751.189	138.41667
2753.423	133.41667
2755.656	122.08333
2757.887	120.08333
2760.117	122.41667
2762.346	116.08333
2764.573	112.75
2766.798	121.75
2769.022	122.75
2771.245	115.75
2773.467	123.08333
2775.686	116.75
2777.905	134.08333
2780.122	117.41667
2782.337	129.41667
2784.552	127.75
2786.764	121.08333
2788.976	122.75
2791.186	125.75
2793.394	124.08333
2795.601	132.41667
2797.807	133.41667
2800.011	131.75
2802.214	136.08333
2804.415	129.75
2806.615	133.41667
2808.814	134.08333
2811.011	135.41667
2813.206	137.08333
2815.401	145.75
2817.594	139.41667
2819.785	145.75
2821.975	135.08333
2824.164	138.41667
2826.351	141.41667
2828.537	155.75
2830.722	154.41667
2832.905	146.08333
2835.086	151.41667
2837.267	174.41667
2839.445	169.41667
2841.623	172.41667
2843.799	172.75
2845.974	181.75
2848.147	185.75
2850.319	197.08333
2852.489	202.41667
2854.659	200.75
2856.826	207.08333
2858.993	222.41667
2861.158	198.75
2863.321	212.08333
2865.483	224.08333
2867.644	220.41667
2869.804	221.75
2871.962	207.75
2874.118	217.08333
2876.274	215.08333
2878.428	210.08333
2880.58	215.75
2882.731	212.08333
2884.881	219.08333
2887.03	220.41667
2889.177	212.08333
2891.322	226.41667
2893.467	210.08333
2895.61	210.41667
2897.751	223.41667
2899.892	217.41667
2902.03	220.08333
2904.168	212.41667
2906.304	216.41667
2908.439	233.75
2910.572	210.75
2912.704	224.75
2914.835	230.41667
2916.965	230.75
2919.093	240.75
2921.219	209.75
2923.345	246.75
2925.469	224.41667
2927.591	226.08333
2929.712	207.75
2931.832	222.41667
2933.951	214.75
2936.068	211.41667
2938.184	198.41667
2940.299	196.41667
2942.412	192.08333
2944.524	175.41667
2946.634	190.75
2948.744	162.08333
2950.851	196.08333
2952.958	164.41667
2955.063	170.08333
2957.167	165.41667
2959.269	149.08333
2961.371	176.75
2963.471	147.08333
2965.569	159.08333
2967.666	141.41667
2969.762	143.08333
2971.857	133.08333
2973.95	134.08333
2976.042	142.08333
2978.133	129.75
2980.222	133.08333
2982.31	115.08333
2984.396	107.08333
2986.482	111.41667
2988.566	119.41667
2990.648	123.75
2992.73	113.75
2994.81	113.41667
2996.889	193.41667
2998.966	225.41667
3001.042	129.41667
3003.117	111.41667
3005.191	110.41667
3007.263	118.08333
3009.334	104.75
3011.403	112.41667
3013.472	105.08333
3015.539	123.08333
3017.604	123.08333
3019.669	99.08333
3021.732	101.75
3023.794	106.75
3025.854	91.08333
3027.914	94.08333
3029.971	101.08333
3032.028	99.75
3034.083	101.41667
3036.137	105.08333
3038.19	91.75
3040.242	89.08333
3042.292	87.41667
3044.341	96.41667
3046.388	100.08333
3048.435	82.41667
3050.48	104.41667
3052.524	86.08333
3054.566	76.75
3056.607	91.41667
3058.647	84.08333
3060.686	76.75
3062.723	71.75
3064.759	75.75
3066.794	1.08333
3068.828	-0.91667
3070.86	2.41667
