-0.839	149.16667
3.438	166.16667
7.711	67.83333
11.981	42.16667
16.247	34.5
20.509	36.16667
24.768	33.16667
29.024	44.16667
33.276	30.5
37.524	43.5
41.769	29.83333
46.01	25.5
50.247	44.16667
54.481	49.5
58.712	52.5
62.939	36.83333
67.162	54.83333
71.382	46.5
75.599	33.83333
79.812	44.5
84.021	65.5
88.227	41.5
92.429	53.16667
96.628	41.5
100.823	52.83333
105.015	53.83333
109.204	47.16667
113.388	55.16667
117.57	42.83333
121.748	64.16667
125.922	49.5
130.093	67.16667
134.261	67.16667
138.425	53.83333
142.585	89.5
146.742	65.83333
150.896	80.5
155.046	76.83333
159.193	114.83333
163.336	174.83333
167.476	291.16667
171.613	534.5
175.746	868.5
179.875	1262.83333
184.002	1633.16667
188.124	1921.83333
192.244	2037.16667
196.36	2043.5
200.472	2022.16667
204.581	1993.16667
208.687	1939.83333
212.79	1927.5
216.889	1925.5
220.984	1963.16667
225.077	1947.83333
229.165	1979.5
233.251	1966.5
237.333	1981.5
241.412	1944.16667
245.487	1940.16667
249.559	1898.83333
253.628	1902.16667
257.694	1875.5
261.756	1884.5
265.814	1844.16667
269.87	1768.16667
273.922	1747.83333
277.97	1714.83333
282.016	1692.16667
286.058	1680.5
290.097	1726.83333
294.132	1747.83333
298.164	1724.5
302.193	1662.5
306.219	1581.5
310.241	1485.16667
314.26	1388.83333
318.276	1343.5
322.288	1292.5
326.297	1254.16667
330.303	1230.5
334.305	1212.16667
338.305	1204.5
342.301	1201.16667
346.294	1196.83333
350.283	1197.16667
354.269	1175.16667
358.252	1175.83333
362.232	1172.83333
366.209	1171.16667
370.182	1160.16667
374.152	1183.5
378.119	1162.83333
382.083	1156.83333
386.043	1173.5
390	1163.83333
393.954	1168.5
397.905	1169.83333
401.852	1174.16667
405.797	1167.5
409.738	1146.83333
413.676	1167.16667
417.61	1191.5
421.542	1175.16667
425.47	1151.5
429.396	1151.5
433.318	1136.5
437.236	1140.83333
441.152	1162.83333
445.065	1114.16667
448.974	1133.5
452.88	1117.83333
456.783	1113.5
460.683	1103.5
464.58	1112.16667
468.473	1129.5
472.364	1123.83333
476.251	1115.5
480.135	1131.16667
484.016	1143.16667
487.894	1159.5
491.769	1152.83333
495.641	1148.16667
499.509	1150.16667
503.375	1158.83333
507.237	1141.16667
511.096	1148.16667
514.952	1147.16667
518.805	1154.16667
522.655	1174.5
526.502	1125.83333
530.346	1152.83333
534.187	1144.5
538.024	1139.83333
541.859	1135.16667
545.69	1151.16667
549.519	1150.83333
553.344	1132.5
557.166	1120.83333
560.985	1102.83333
564.802	1121.5
568.615	1093.16667
572.425	1082.16667
576.232	1082.83333
580.036	1087.5
583.836	1084.83333
587.634	1087.16667
591.429	1085.83333
595.221	1120.5
599.01	1122.5
602.796	1114.83333
606.578	1131.5
610.358	1118.16667
614.135	1116.16667
617.909	1121.16667
621.679	1125.5
625.447	1088.5
629.212	1104.16667
632.973	1103.16667
636.732	1104.5
640.488	1093.83333
644.241	1080.5
647.991	1085.83333
651.737	1101.83333
655.481	1079.5
659.222	1087.16667
662.96	1076.16667
666.695	1084.16667
670.427	1103.16667
674.156	1100.16667
677.882	1098.5
681.605	1100.5
685.325	1080.5
689.043	1092.5
692.757	1075.16667
696.468	1077.83333
700.177	1064.83333
703.882	1060.5
707.585	1055.5
711.284	1074.5
714.981	1040.5
718.675	1056.16667
722.366	1059.16667
726.054	1048.16667
729.739	1051.83333
733.421	1058.83333
737.1	1044.16667
740.777	1071.5
744.45	1055.83333
748.121	1050.5
751.789	1098.5
755.453	1072.16667
759.115	1084.83333
762.774	1078.83333
766.431	1078.16667
770.084	1092.5
773.734	1069.83333
777.382	1096.5
781.027	1108.83333
784.669	1100.83333
788.308	1096.83333
791.944	1105.83333
795.577	1116.5
799.208	1112.83333
802.835	1130.83333
806.46	1123.5
810.082	1131.83333
813.701	1121.83333
817.317	1140.83333
820.931	1149.83333
824.542	1140.83333
828.149	1107.83333
831.754	1102.16667
835.357	1089.83333
838.956	1115.83333
842.553	1104.16667
846.146	1101.16667
849.737	1062.83333
853.326	1071.5
856.911	1058.83333
860.493	1087.83333
864.073	1080.16667
867.65	1114.83333
871.225	1106.5
874.796	1106.5
878.365	1104.83333
881.931	1111.83333
885.494	1125.83333
889.054	1107.5
892.612	1121.5
896.166	1099.16667
899.719	1078.16667
903.268	1071.83333
906.814	1071.5
910.358	1062.16667
913.899	1051.16667
917.438	1054.16667
920.973	1035.16667
924.506	1050.5
928.036	1068.5
931.564	1073.16667
935.088	1108.83333
938.61	1086.16667
942.129	1078.16667
945.646	1101.16667
949.16	1090.16667
952.671	1119.5
956.179	1146.83333
959.685	1124.16667
963.188	1128.5
966.688	1110.83333
970.185	1082.83333
973.68	1053.16667
977.173	1040.5
980.662	1042.83333
984.149	1049.83333
987.633	1028.83333
991.114	1043.16667
994.593	1064.5
998.069	1072.83333
1001.542	1099.5
1005.013	1086.5
1008.481	1016.16667
1011.947	1029.16667
1015.409	1004.5
1018.869	1006.16667
1022.327	1021.83333
1025.782	992.83333
1029.234	988.83333
1032.683	976.5
1036.13	963.83333
1039.574	923.83333
1043.016	905.5
1046.455	894.5
1049.891	893.16667
1053.325	888.16667
1056.756	893.16667
1060.184	895.5
1063.61	872.16667
1067.033	903.16667
1070.454	891.83333
1073.872	903.16667
1077.287	891.83333
1080.7	905.16667
1084.11	884.16667
1087.517	887.5
1090.922	880.83333
1094.325	861.5
1097.724	857.16667
1101.122	867.16667
1104.516	860.16667
1107.908	846.83333
1111.298	860.83333
1114.684	857.16667
1118.069	877.5
1121.45	897.83333
1124.83	879.5
1128.206	875.5
1131.58	879.16667
1134.951	912.5
1138.32	910.83333
1141.687	974.5
1145.05	977.83333
1148.412	958.5
1151.77	966.83333
1155.126	965.16667
1158.48	941.5
1161.831	953.83333
1165.18	948.16667
1168.525	966.83333
1171.869	979.16667
1175.21	971.16667
1178.548	986.16667
1181.884	1001.83333
1185.217	1008.83333
1188.548	1025.5
1191.877	1043.5
1195.202	1088.16667
1198.526	1099.83333
1201.846	1090.5
1205.165	1099.5
1208.48	1105.16667
1211.794	1098.83333
1215.104	1100.83333
1218.413	1080.16667
1221.719	1090.5
1225.022	1063.16667
1228.323	1057.83333
1231.621	1061.16667
1234.917	1048.5
1238.21	1069.83333
1241.501	1046.83333
1244.79	1044.83333
1248.076	1033.83333
1251.359	1049.5
1254.64	1097.16667
1257.919	1063.16667
1261.195	1078.16667
1264.468	1109.5
1267.74	1099.5
1271.008	1099.16667
1274.275	1119.83333
1277.538	1102.5
1280.8	1095.16667
1284.059	1092.5
1287.315	1113.5
1290.569	1093.5
1293.821	1123.16667
1297.07	1105.83333
1300.317	1108.83333
1303.562	1124.83333
1306.803	1102.16667
1310.043	1102.5
1313.28	1100.16667
1316.515	1080.83333
1319.747	1086.5
1322.977	1072.83333
1326.204	1065.16667
1329.429	1050.83333
1332.652	1070.5
1335.872	1065.5
1339.09	1046.83333
1342.306	1060.5
1345.519	1038.16667
1348.729	1039.5
1351.938	1030.5
1355.144	1025.5
1358.347	1017.83333
1361.548	1020.5
1364.747	1016.16667
1367.944	1000.83333
1371.138	1005.5
1374.329	1007.16667
1377.518	1005.5
1380.705	996.5
1383.89	1009.5
1387.072	974.83333
1390.252	960.83333
1393.429	927.83333
1396.605	904.5
1399.777	872.83333
1402.948	857.83333
1406.116	852.5
1409.282	858.83333
1412.445	859.16667
1415.606	865.16667
1418.765	871.83333
1421.921	878.83333
1425.075	879.5
1428.227	908.5
1431.376	934.5
1434.524	963.83333
1437.668	995.16667
1440.811	992.83333
1443.951	1005.83333
1447.089	1006.16667
1450.224	995.16667
1453.357	1004.5
1456.488	988.16667
1459.617	1003.5
1462.743	975.83333
1465.867	935.5
1468.989	944.83333
1472.108	922.5
1475.225	908.16667
1478.34	887.16667
1481.453	898.16667
1484.563	889.5
1487.671	906.83333
1490.776	907.83333
1493.88	931.83333
1496.981	949.83333
1500.08	946.5
1503.176	944.16667
1506.271	952.16667
1509.363	969.83333
1512.452	966.83333
1515.54	986.83333
1518.625	989.16667
1521.708	1031.83333
1524.789	1042.16667
1527.867	1089.83333
1530.944	1125.16667
1534.018	1161.83333
1537.089	1210.5
1540.159	1224.83333
1543.226	1227.83333
1546.291	1188.5
1549.354	1177.16667
1552.415	1134.83333
1555.473	1108.83333
1558.529	1116.83333
1561.583	1108.16667
1564.634	1114.83333
1567.684	1096.83333
1570.731	1098.83333
1573.776	1114.16667
1576.819	1102.16667
1579.859	1122.5
1582.898	1122.83333
1585.934	1147.5
1588.968	1139.5
1591.999	1114.83333
1595.029	1139.5
1598.056	1139.83333
1601.081	1156.5
1604.104	1160.5
1607.125	1142.16667
1610.144	1110.5
1613.16	1087.5
1616.174	1077.16667
1619.186	1047.83333
1622.196	1036.16667
1625.203	1003.83333
1628.209	994.5
1631.212	994.83333
1634.213	993.16667
1637.212	1004.83333
1640.209	1000.5
1643.203	962.83333
1646.196	942.5
1649.186	898.83333
1652.174	896.16667
1655.16	863.16667
1658.144	858.5
1661.125	813.5
1664.105	774.16667
1667.082	754.16667
1670.057	705.83333
1673.03	671.83333
1676.001	650.16667
1678.97	605.16667
1681.937	577.83333
1684.901	540.83333
1687.863	545.83333
1690.824	517.83333
1693.782	512.83333
1696.738	490.5
1699.692	486.83333
1702.643	466.5
1705.593	463.5
1708.54	471.83333
1711.486	470.16667
1714.429	447.83333
1717.37	462.16667
1720.309	448.5
1723.246	451.16667
1726.181	435.16667
1729.113	442.83333
1732.044	439.83333
1734.972	430.16667
1737.899	443.16667
1740.823	439.16667
1743.745	467.83333
1746.665	414.83333
1749.583	416.5
1752.499	409.5
1755.413	403.83333
1758.325	390.16667
1761.235	400.16667
1764.142	385.5
1767.048	382.83333
1769.951	388.5
1772.852	386.16667
1775.752	389.83333
1778.649	389.16667
1781.544	397.5
1784.437	377.5
1787.328	382.5
1790.217	380.16667
1793.104	352.5
1795.989	369.16667
1798.872	350.16667
1801.753	368.5
1804.631	366.16667
1807.508	374.83333
1810.383	364.16667
1813.255	368.5
1816.126	367.5
1818.994	355.83333
1821.861	356.5
1824.725	358.83333
1827.587	364.83333
1830.448	358.16667
1833.306	345.16667
1836.162	360.16667
1839.017	347.5
1841.869	343.16667
1844.719	350.16667
1847.567	336.5
1850.414	332.83333
1853.258	334.16667
1856.1	340.83333
1858.94	353.83333
1861.778	335.5
1864.614	338.5
1867.448	335.83333
1870.28	327.16667
1873.111	351.83333
1875.939	327.16667
1878.765	348.16667
1881.589	334.5
1884.411	332.5
1887.231	346.83333
1890.049	336.83333
1892.865	345.5
1895.68	314.83333
1898.492	331.83333
1901.302	323.83333
1904.11	320.5
1906.916	324.83333
1909.721	320.16667
1912.523	328.83333
1915.323	311.16667
1918.122	315.5
1920.918	325.83333
1923.712	307.5
1926.505	321.5
1929.295	299.5
1932.084	314.83333
1934.87	317.16667
1937.655	300.83333
1940.438	299.83333
1943.218	307.83333
1945.997	315.16667
1948.774	314.83333
1951.549	318.16667
1954.322	305.16667
1957.093	307.83333
1959.862	296.16667
1962.629	303.16667
1965.394	302.83333
1968.157	294.83333
1970.918	301.83333
1973.678	294.5
1976.435	307.16667
1979.19	293.5
1981.944	284.5
1984.696	285.83333
1987.445	285.83333
1990.193	296.83333
1992.939	306.5
1995.683	292.83333
1998.425	275.83333
2001.165	304.16667
2003.903	279.83333
2006.639	280.5
2009.374	295.16667
2012.106	291.83333
2014.837	260.83333
2017.566	292.16667
2020.292	288.5
2023.017	275.5
2025.74	267.16667
2028.461	265.5
2031.18	273.5
2033.898	267.5
2036.613	279.83333
2039.327	287.5
2042.038	266.16667
2044.748	273.16667
2047.456	274.83333
2050.162	260.83333
2052.866	266.5
2055.568	281.16667
2058.268	265.5
2060.967	277.16667
2063.663	263.5
2066.358	266.83333
2069.051	253.83333
2071.742	265.16667
2074.431	282.16667
2077.118	257.83333
2079.804	247.5
2082.487	258.16667
2085.169	284.83333
2087.849	293.16667
2090.527	263.16667
2093.203	265.16667
2095.877	268.5
2098.55	264.5
2101.22	270.5
2103.889	272.16667
2106.556	269.5
2109.221	285.16667
2111.884	273.83333
2114.546	301.5
2117.205	304.16667
2119.863	337.5
2122.519	337.83333
2125.173	360.83333
2127.825	384.5
2130.475	392.16667
2133.124	375.5
2135.771	359.5
2138.416	358.83333
2141.059	325.16667
2143.7	325.16667
2146.339	307.5
2148.977	277.83333
2151.613	290.5
2154.247	284.83333
2156.879	273.83333
2159.51	264.16667
2162.138	267.83333
2164.765	257.5
2167.39	252.5
2170.013	270.16667
2172.634	269.5
2175.254	252.5
2177.872	294.16667
2180.488	236.5
2183.102	244.5
2185.714	237.83333
2188.325	231.83333
2190.934	248.83333
2193.541	250.83333
2196.146	238.16667
2198.75	229.83333
2201.351	227.5
2203.951	219.16667
2206.549	239.16667
2209.146	228.5
2211.74	221.83333
2214.333	239.16667
2216.924	212.16667
2219.514	225.5
2222.101	217.16667
2224.687	235.16667
2227.271	213.16667
2229.853	211.83333
2232.433	199.83333
2235.012	219.83333
2237.589	218.83333
2240.164	230.83333
2242.738	211.83333
2245.309	209.5
2247.879	227.5
2250.448	220.5
2253.014	202.5
2255.579	196.5
2258.142	206.5
2260.703	204.83333
2263.262	200.83333
2265.82	195.83333
2268.376	215.16667
2270.93	198.16667
2273.483	193.83333
2276.033	207.5
2278.583	194.5
2281.13	196.83333
2283.675	187.83333
2286.219	191.16667
2288.761	200.83333
2291.302	201.5
2293.841	204.5
2296.377	185.83333
2298.913	200.16667
2301.446	205.5
2303.978	197.16667
2306.508	189.16667
2309.037	193.83333
2311.563	190.83333
2314.088	196.83333
2316.612	182.83333
2319.133	193.16667
2321.653	196.83333
2324.171	183.16667
2326.688	202.83333
2329.202	192.16667
2331.715	191.83333
2334.227	192.83333
2336.736	183.83333
2339.244	181.16667
2341.751	173.16667
2344.255	193.83333
2346.758	186.83333
2349.259	175.5
2351.759	183.5
2354.257	177.16667
2356.753	173.16667
2359.247	180.16667
2361.74	177.83333
2364.231	177.16667
2366.721	181.5
2369.209	174.83333
2371.695	179.16667
2374.179	169.5
2376.662	167.16667
2379.143	188.83333
2381.622	169.83333
2384.1	183.83333
2386.576	176.16667
2389.051	185.16667
2391.524	188.83333
2393.995	185.16667
2396.464	168.5
2398.932	172.5
2401.398	175.5
2403.863	161.83333
2406.325	168.16667
2408.787	172.16667
2411.246	169.5
2413.704	168.16667
2416.16	167.83333
2418.615	165.5
2421.068	172.16667
2423.519	168.16667
2425.969	160.16667
2428.417	181.5
2430.863	188.5
2433.308	180.16667
2435.751	168.5
2438.193	171.5
2440.633	168.83333
2443.071	175.83333
2445.508	165.5
2447.943	170.83333
2450.376	163.83333
2452.808	170.83333
2455.238	162.5
2457.667	190.5
2460.093	159.16667
2462.519	150.16667
2464.942	159.5
2467.365	167.16667
2469.785	165.5
2472.204	161.83333
2474.621	159.16667
2477.037	181.5
2479.451	152.83333
2481.863	155.5
2484.274	157.83333
2486.683	160.16667
2489.091	169.5
2491.497	168.83333
2493.901	162.83333
2496.304	160.5
2498.705	169.16667
2501.105	162.5
2503.503	176.5
2505.899	149.83333
2508.294	180.5
2510.687	152.16667
2513.079	154.83333
2515.469	145.5
2517.858	148.5
2520.245	167.5
2522.63	154.83333
2525.014	148.5
2527.396	148.83333
2529.776	150.16667
2532.156	154.83333
2534.533	144.5
2536.909	146.16667
2539.283	135.83333
2541.656	149.16667
2544.027	162.16667
2546.397	155.5
2548.765	149.5
2551.131	154.83333
2553.496	157.5
2555.86	162.5
2558.221	154.83333
2560.582	152.83333
2562.94	145.16667
2565.298	148.83333
2567.653	158.5
2570.007	137.16667
2572.36	153.5
2574.711	142.5
2577.06	165.16667
2579.408	151.5
2581.754	147.83333
2584.099	145.5
2586.442	148.83333
2588.784	154.83333
2591.124	148.16667
2593.463	146.16667
2595.8	147.16667
2598.135	139.16667
2600.469	139.16667
2602.802	150.16667
2605.133	152.5
2607.462	142.83333
2609.79	134.5
2612.116	154.5
2614.441	146.5
2616.764	148.5
2619.086	144.83333
2621.406	138.5
2623.725	158.16667
2626.042	142.16667
2628.358	138.83333
2630.672	144.16667
2632.985	148.16667
2635.296	145.16667
2637.606	149.16667
2639.914	140.83333
2642.22	142.16667
2644.525	136.83333
2646.829	144.83333
2649.131	152.16667
2651.432	148.83333
2653.731	139.83333
2656.028	161.5
2658.324	149.83333
2660.619	137.5
2662.912	151.83333
2665.204	132.16667
2667.494	150.83333
2669.782	136.5
2672.07	154.16667
2674.355	158.5
2676.639	150.5
2678.922	137.16667
2681.203	147.5
2683.483	137.5
2685.761	136.16667
2688.038	146.16667
2690.313	156.16667
2692.587	149.83333
2694.859	145.16667
2697.13	147.16667
2699.399	147.5
2701.667	159.16667
2703.933	149.83333
2706.198	160.5
2708.461	161.5
2710.723	154.16667
2712.984	144.16667
2715.243	155.16667
2717.5	151.16667
2719.757	156.83333
2722.011	146.16667
2724.264	154.83333
2726.516	168.5
2728.766	143.83333
2731.015	151.5
2733.262	152.16667
2735.508	146.83333
2737.753	150.83333
2739.996	143.5
2742.237	146.5
2744.477	154.83333
2746.716	157.5
2748.953	156.5
2751.189	160.83333
2753.423	152.16667
2755.656	142.5
2757.887	139.5
2760.117	140.16667
2762.346	139.83333
2764.573	129.16667
2766.798	136.16667
2769.022	138.16667
2771.245	137.83333
2773.467	144.5
2775.686	141.16667
2777.905	147.83333
2780.122	142.83333
2782.337	144.16667
2784.552	144.5
2786.764	144.16667
2788.976	145.83333
2791.186	152.83333
2793.394	145.83333
2795.601	154.5
2797.807	157.83333
2800.011	151.5
2802.214	158.83333
2804.415	157.5
2806.615	161.5
2808.814	157.83333
2811.011	163.16667
2813.206	161.83333
2815.401	164.5
2817.594	168.83333
2819.785	176.83333
2821.975	152.83333
2824.164	163.83333
2826.351	163.5
2828.537	183.83333
2830.722	171.16667
2832.905	171.16667
2835.086	176.16667
2837.267	194.5
2839.445	189.5
2841.623	199.16667
2843.799	200.83333
2845.974	206.83333
2848.147	204.83333
2850.319	215.5
2852.489	227.83333
2854.659	229.83333
2856.826	230.83333
2858.993	250.16667
2861.158	224.16667
2863.321	237.5
2865.483	245.83333
2867.644	245.5
2869.804	239.83333
2871.962	235.83333
2874.118	239.83333
2876.274	244.83333
2878.428	241.83333
2880.58	245.16667
2882.731	230.83333
2884.881	238.83333
2887.03	244.16667
2889.177	244.5
2891.322	250.16667
2893.467	235.5
2895.61	229.83333
2897.751	241.5
2899.892	235.16667
2902.03	245.16667
2904.168	238.83333
2906.304	242.83333
2908.439	265.5
2910.572	236.83333
2912.704	246.83333
2914.835	256.16667
2916.965	251.16667
2919.093	260.16667
2921.219	239.16667
2923.345	266.16667
2925.469	248.5
2927.591	241.83333
2929.712	225.16667
2931.832	242.83333
2933.951	231.5
2936.068	223.5
2938.184	231.16667
2940.299	213.83333
2942.412	212.83333
2944.524	195.16667
2946.634	207.5
2948.744	184.83333
2950.851	224.5
2952.958	185.5
2955.063	195.83333
2957.167	182.16667
2959.269	174.5
2961.371	205.83333
2963.471	169.16667
2965.569	187.5
2967.666	163.16667
2969.762	163.83333
2971.857	152.83333
2973.95	157.5
2976.042	160.83333
2978.133	157.16667
2980.222	151.83333
2982.31	145.5
2984.396	130.5
2986.482	138.83333
2988.566	138.5
2990.648	135.5
2992.73	138.83333
2994.81	122.83333
2996.889	139.5
2998.966	134.16667
3001.042	148.16667
3003.117	132.16667
3005.191	138.16667
3007.263	135.16667
3009.334	133.5
3011.403	136.16667
3013.472	126.16667
3015.539	147.5
3017.604	146.5
3019.669	118.83333
3021.732	124.83333
3023.794	126.16667
3025.854	115.83333
3027.914	118.5
3029.971	118.16667
3032.028	121.16667
3034.083	125.83333
3036.137	127.5
3038.19	106.83333
3040.242	105.83333
3042.292	105.5
3044.341	112.5
3046.388	127.83333
3048.435	108.5
3050.48	119.83333
3052.524	108.16667
3054.566	95.83333
3056.607	109.16667
3058.647	102.16667
3060.686	97.5
3062.723	88.5
3064.759	90.16667
3066.794	0.83333
3068.828	-0.16667
3070.86	2.16667
