-0.839	149.58333
3.438	164.25
7.711	66.58333
11.981	38.58333
16.247	30.58333
20.509	40.58333
24.768	33.25
29.024	45.91667
33.276	27.58333
37.524	42.25
41.769	27.58333
46.01	24.25
50.247	42.58333
54.481	52.25
58.712	52.91667
62.939	36.58333
67.162	50.58333
71.382	48.58333
75.599	36.91667
79.812	42.91667
84.021	63.58333
88.227	44.91667
92.429	51.91667
96.628	38.58333
100.823	51.58333
105.015	52.58333
109.204	43.91667
113.388	56.25
117.57	40.58333
121.748	61.25
125.922	48.25
130.093	65.25
134.261	59.91667
138.425	53.58333
142.585	86.25
146.742	65.91667
150.896	77.25
155.046	76.58333
159.193	108.91667
163.336	157.25
167.476	281.58333
171.613	504.58333
175.746	810.25
179.875	1166.91667
184.002	1498.91667
188.124	1773.91667
192.244	1840.25
196.36	1863.58333
200.472	1838.91667
204.581	1794.91667
208.687	1718.91667
212.79	1727.25
216.889	1745.58333
220.984	1753.91667
225.077	1755.25
229.165	1766.25
233.251	1763.91667
237.333	1758.58333
241.412	1728.91667
245.487	1726.91667
249.559	1700.25
253.628	1685.91667
257.694	1656.91667
261.756	1679.91667
265.814	1628.91667
269.87	1594.25
273.922	1546.58333
277.97	1519.58333
282.016	1511.91667
286.058	1487.25
290.097	1513.58333
294.132	1536.58333
298.164	1539.25
302.193	1442.58333
306.219	1365.25
310.241	1278.58333
314.26	1194.91667
318.276	1124.91667
322.288	1093.25
326.297	1058.58333
330.303	1036.58333
334.305	1002.58333
338.305	994.91667
342.301	980.58333
346.294	994.91667
350.283	977.25
354.269	973.25
358.252	952.58333
362.232	961.58333
366.209	967.91667
370.182	954.25
374.152	941.25
378.119	958.58333
382.083	940.91667
386.043	969.58333
390	931.58333
393.954	948.91667
397.905	943.91667
401.852	966.25
405.797	946.58333
409.738	938.58333
413.676	947.91667
417.61	951.25
421.542	936.25
425.47	923.58333
429.396	914.58333
433.318	920.58333
437.236	912.25
441.152	937.91667
445.065	889.91667
448.974	907.91667
452.88	891.91667
456.783	881.91667
460.683	889.25
464.58	885.25
468.473	907.25
472.364	881.91667
476.251	890.25
480.135	898.25
484.016	913.25
487.894	917.25
491.769	922.91667
495.641	903.91667
499.509	911.25
503.375	931.58333
507.237	916.58333
511.096	901.91667
514.952	900.91667
518.805	911.25
522.655	905.58333
526.502	907.25
530.346	908.58333
534.187	922.91667
538.024	901.91667
541.859	896.58333
545.69	921.58333
549.519	921.58333
553.344	895.91667
557.166	886.25
560.985	884.58333
564.802	892.91667
568.615	871.58333
572.425	854.91667
576.232	849.58333
580.036	850.91667
583.836	861.91667
587.634	871.91667
591.429	852.91667
595.221	899.25
599.01	878.25
602.796	879.91667
606.578	882.25
610.358	880.25
614.135	883.25
617.909	892.58333
621.679	866.58333
625.447	869.25
629.212	880.91667
632.973	873.25
636.732	871.91667
640.488	880.25
644.241	866.25
647.991	858.58333
651.737	878.58333
655.481	839.58333
659.222	856.58333
662.96	848.91667
666.695	867.91667
670.427	870.91667
674.156	870.91667
677.882	868.58333
681.605	877.25
685.325	842.91667
689.043	879.25
692.757	854.58333
696.468	860.91667
700.177	854.91667
703.882	844.58333
707.585	844.58333
711.284	845.25
714.981	839.91667
718.675	842.25
722.366	858.25
726.054	829.91667
729.739	846.25
733.421	831.91667
737.1	831.58333
740.777	841.58333
744.45	850.91667
748.121	849.58333
751.789	880.91667
755.453	857.91667
759.115	871.91667
762.774	857.25
766.431	873.58333
770.084	882.91667
773.734	870.91667
777.382	896.58333
781.027	893.58333
784.669	899.91667
788.308	898.91667
791.944	908.58333
795.577	919.25
799.208	907.91667
802.835	917.91667
806.46	920.25
810.082	918.58333
813.701	916.25
817.317	938.25
820.931	931.25
824.542	930.91667
828.149	917.58333
831.754	903.91667
835.357	902.25
838.956	905.58333
842.553	918.91667
846.146	903.91667
849.737	868.91667
853.326	900.25
856.911	881.91667
860.493	909.91667
864.073	905.58333
867.65	922.58333
871.225	928.25
874.796	914.58333
878.365	896.91667
881.931	932.58333
885.494	942.91667
889.054	922.25
892.612	935.91667
896.166	905.25
899.719	900.58333
903.268	880.25
906.814	902.25
910.358	881.58333
913.899	874.25
917.438	879.25
920.973	860.25
924.506	874.25
928.036	894.91667
931.564	898.25
935.088	937.91667
938.61	900.25
942.129	906.58333
945.646	916.58333
949.16	927.25
952.671	958.91667
956.179	965.25
959.685	943.25
963.188	968.91667
966.688	942.25
970.185	907.58333
973.68	874.58333
977.173	892.91667
980.662	872.91667
984.149	892.91667
987.633	846.91667
991.114	877.25
994.593	892.58333
998.069	898.91667
1001.542	916.58333
1005.013	916.91667
1008.481	868.25
1011.947	861.58333
1015.409	848.91667
1018.869	851.25
1022.327	862.25
1025.782	840.25
1029.234	828.58333
1032.683	826.91667
1036.13	810.91667
1039.574	774.58333
1043.016	749.58333
1046.455	755.58333
1049.891	738.91667
1053.325	755.58333
1056.756	751.58333
1060.184	751.91667
1063.61	730.91667
1067.033	752.58333
1070.454	736.91667
1073.872	764.91667
1077.287	746.25
1080.7	750.25
1084.11	757.58333
1087.517	752.91667
1090.922	739.58333
1094.325	722.25
1097.724	725.25
1101.122	726.25
1104.516	737.58333
1107.908	700.91667
1111.298	721.25
1114.684	730.91667
1118.069	738.58333
1121.45	751.25
1124.83	730.91667
1128.206	757.58333
1131.58	755.58333
1134.951	782.91667
1138.32	789.25
1141.687	819.58333
1145.05	835.25
1148.412	837.58333
1151.77	825.91667
1155.126	823.58333
1158.48	820.25
1161.831	820.91667
1165.18	831.25
1168.525	827.25
1171.869	854.91667
1175.21	841.58333
1178.548	861.25
1181.884	874.58333
1185.217	863.25
1188.548	899.58333
1191.877	899.91667
1195.202	946.25
1198.526	962.58333
1201.846	956.58333
1205.165	966.91667
1208.48	969.25
1211.794	971.58333
1215.104	973.58333
1218.413	967.58333
1221.719	955.91667
1225.022	948.91667
1228.323	926.58333
1231.621	932.25
1234.917	931.25
1238.21	955.91667
1241.501	914.91667
1244.79	920.25
1248.076	901.58333
1251.359	922.25
1254.64	959.58333
1257.919	948.91667
1261.195	945.91667
1264.468	971.25
1267.74	969.91667
1271.008	972.58333
1274.275	963.58333
1277.538	980.58333
1280.8	961.25
1284.059	967.25
1287.315	972.91667
1290.569	970.58333
1293.821	983.58333
1297.07	994.25
1300.317	992.58333
1303.562	1000.58333
1306.803	986.58333
1310.043	987.58333
1313.28	986.25
1316.515	968.91667
1319.747	982.91667
1322.977	966.58333
1326.204	944.58333
1329.429	943.25
1332.652	950.91667
1335.872	945.25
1339.09	933.25
1342.306	936.91667
1345.519	909.58333
1348.729	914.58333
1351.938	924.91667
1355.144	897.58333
1358.347	881.58333
1361.548	894.91667
1364.747	896.91667
1367.944	882.25
1371.138	888.25
1374.329	880.58333
1377.518	886.91667
1380.705	897.25
1383.89	885.25
1387.072	850.58333
1390.252	825.25
1393.429	810.91667
1396.605	791.91667
1399.777	754.58333
1402.948	762.25
1406.116	757.25
1409.282	749.91667
1412.445	744.91667
1415.606	754.91667
1418.765	775.25
1421.921	772.91667
1425.075	783.91667
1428.227	805.58333
1431.376	846.25
1434.524	864.91667
1437.668	875.58333
1440.811	883.58333
1443.951	894.91667
1447.089	913.91667
1450.224	904.25
1453.357	894.58333
1456.488	893.58333
1459.617	881.25
1462.743	869.91667
1465.867	839.58333
1468.989	837.58333
1472.108	824.91667
1475.225	810.91667
1478.34	786.25
1481.453	790.91667
1484.563	797.58333
1487.671	798.25
1490.776	824.58333
1493.88	822.58333
1496.981	847.91667
1500.08	848.91667
1503.176	838.91667
1506.271	853.91667
1509.363	876.25
1512.452	864.58333
1515.54	879.58333
1518.625	888.58333
1521.708	916.58333
1524.789	933.25
1527.867	973.25
1530.944	1012.58333
1534.018	1040.25
1537.089	1099.91667
1540.159	1095.25
1543.226	1111.25
1546.291	1088.58333
1549.354	1072.58333
1552.415	1053.58333
1555.473	1025.91667
1558.529	1017.58333
1561.583	996.58333
1564.634	981.91667
1567.684	994.91667
1570.731	985.91667
1573.776	996.25
1576.819	1023.91667
1579.859	1020.91667
1582.898	1029.25
1585.934	1043.91667
1588.968	1045.58333
1591.999	1036.58333
1595.029	1033.91667
1598.056	1039.91667
1601.081	1061.58333
1604.104	1061.25
1607.125	1037.91667
1610.144	1020.58333
1613.16	991.25
1616.174	961.58333
1619.186	960.25
1622.196	935.58333
1625.203	906.25
1628.209	909.25
1631.212	903.25
1634.213	898.58333
1637.212	902.91667
1640.209	896.25
1643.203	876.58333
1646.196	844.58333
1649.186	816.91667
1652.174	795.25
1655.16	765.91667
1658.144	760.58333
1661.125	725.25
1664.105	695.25
1667.082	665.58333
1670.057	629.58333
1673.03	609.58333
1676.001	577.91667
1678.97	535.58333
1681.937	516.58333
1684.901	492.58333
1687.863	476.91667
1690.824	439.58333
1693.782	448.25
1696.738	419.25
1699.692	416.91667
1702.643	409.25
1705.593	405.58333
1708.54	397.25
1711.486	419.58333
1714.429	382.91667
1717.37	404.25
1720.309	378.25
1723.246	388.25
1726.181	370.25
1729.113	375.58333
1732.044	377.25
1734.972	364.91667
1737.899	383.91667
1740.823	384.25
1743.745	399.58333
1746.665	360.91667
1749.583	350.91667
1752.499	353.25
1755.413	348.25
1758.325	331.58333
1761.235	335.58333
1764.142	333.58333
1767.048	325.25
1769.951	325.25
1772.852	334.91667
1775.752	331.58333
1778.649	341.58333
1781.544	340.58333
1784.437	310.58333
1787.328	328.58333
1790.217	320.58333
1793.104	300.58333
1795.989	308.91667
1798.872	299.58333
1801.753	315.25
1804.631	310.58333
1807.508	317.58333
1810.383	308.91667
1813.255	307.25
1816.126	303.91667
1818.994	304.91667
1821.861	297.25
1824.725	305.58333
1827.587	310.25
1830.448	304.91667
1833.306	290.25
1836.162	310.91667
1839.017	291.58333
1841.869	298.91667
1844.719	298.91667
1847.567	277.25
1850.414	283.25
1853.258	283.58333
1856.1	300.91667
1858.94	303.25
1861.778	286.91667
1864.614	275.25
1867.448	294.91667
1870.28	274.91667
1873.111	297.58333
1875.939	290.25
1878.765	297.91667
1881.589	276.58333
1884.411	282.25
1887.231	291.25
1890.049	284.91667
1892.865	288.25
1895.68	279.25
1898.492	284.58333
1901.302	280.58333
1904.11	274.58333
1906.916	274.91667
1909.721	272.25
1912.523	280.25
1915.323	258.91667
1918.122	262.58333
1920.918	276.91667
1923.712	262.25
1926.505	274.25
1929.295	247.91667
1932.084	277.91667
1934.87	271.91667
1937.655	262.25
1940.438	254.91667
1943.218	264.91667
1945.997	262.91667
1948.774	273.58333
1951.549	265.58333
1954.322	258.58333
1957.093	251.58333
1959.862	258.91667
1962.629	251.25
1965.394	260.91667
1968.157	253.25
1970.918	266.58333
1973.678	248.91667
1976.435	259.91667
1979.19	245.91667
1981.944	241.58333
1984.696	247.25
1987.445	247.91667
1990.193	254.25
1992.939	261.58333
1995.683	251.25
1998.425	234.91667
2001.165	268.91667
2003.903	231.25
2006.639	239.58333
2009.374	256.25
2012.106	248.91667
2014.837	223.91667
2017.566	249.58333
2020.292	247.58333
2023.017	233.58333
2025.74	235.58333
2028.461	231.25
2031.18	241.25
2033.898	226.58333
2036.613	237.25
2039.327	233.91667
2042.038	223.25
2044.748	240.91667
2047.456	237.25
2050.162	220.91667
2052.866	231.25
2055.568	243.58333
2058.268	233.25
2060.967	237.58333
2063.663	218.58333
2066.358	218.58333
2069.051	218.25
2071.742	227.91667
2074.431	231.91667
2077.118	230.91667
2079.804	214.58333
2082.487	219.91667
2085.169	231.25
2087.849	249.91667
2090.527	222.25
2093.203	229.91667
2095.877	221.25
2098.55	225.91667
2101.22	237.91667
2103.889	238.25
2106.556	232.91667
2109.221	243.91667
2111.884	234.25
2114.546	261.25
2117.205	273.25
2119.863	304.91667
2122.519	297.91667
2125.173	323.25
2127.825	353.25
2130.475	355.25
2133.124	332.25
2135.771	322.91667
2138.416	324.91667
2141.059	292.25
2143.7	294.91667
2146.339	267.25
2148.977	236.58333
2151.613	255.58333
2154.247	249.25
2156.879	243.58333
2159.51	224.58333
2162.138	223.58333
2164.765	219.25
2167.39	222.58333
2170.013	237.91667
2172.634	233.25
2175.254	212.58333
2177.872	253.25
2180.488	210.91667
2183.102	215.58333
2185.714	213.58333
2188.325	202.25
2190.934	211.58333
2193.541	218.25
2196.146	202.91667
2198.75	194.91667
2201.351	194.25
2203.951	192.25
2206.549	202.91667
2209.146	201.25
2211.74	195.58333
2214.333	204.91667
2216.924	184.25
2219.514	195.58333
2222.101	191.25
2224.687	204.58333
2227.271	182.25
2229.853	184.25
2232.433	174.58333
2235.012	195.25
2237.589	193.58333
2240.164	198.25
2242.738	184.58333
2245.309	174.25
2247.879	197.25
2250.448	195.58333
2253.014	180.25
2255.579	170.58333
2258.142	178.25
2260.703	186.58333
2263.262	172.91667
2265.82	163.25
2268.376	177.91667
2270.93	173.25
2273.483	166.25
2276.033	180.91667
2278.583	169.25
2281.13	169.91667
2283.675	163.91667
2286.219	163.91667
2288.761	177.91667
2291.302	179.58333
2293.841	184.25
2296.377	157.25
2298.913	172.25
2301.446	180.91667
2303.978	171.91667
2306.508	171.91667
2309.037	171.91667
2311.563	171.91667
2314.088	174.58333
2316.612	156.25
2319.133	172.58333
2321.653	166.91667
2324.171	159.25
2326.688	166.58333
2329.202	162.25
2331.715	167.25
2334.227	167.25
2336.736	159.91667
2339.244	158.25
2341.751	149.58333
2344.255	171.25
2346.758	161.91667
2349.259	153.25
2351.759	163.91667
2354.257	147.91667
2356.753	148.25
2359.247	150.58333
2361.74	156.91667
2364.231	152.58333
2366.721	163.25
2369.209	152.91667
2371.695	156.58333
2374.179	145.25
2376.662	140.58333
2379.143	164.91667
2381.622	152.91667
2384.1	158.58333
2386.576	149.58333
2389.051	164.58333
2391.524	157.25
2393.995	152.91667
2396.464	148.58333
2398.932	152.25
2401.398	154.25
2403.863	142.91667
2406.325	145.25
2408.787	151.58333
2411.246	145.25
2413.704	148.91667
2416.16	140.58333
2418.615	150.91667
2421.068	147.58333
2423.519	148.58333
2425.969	133.91667
2428.417	154.25
2430.863	166.25
2433.308	152.58333
2435.751	149.91667
2438.193	145.25
2440.633	148.25
2443.071	155.91667
2445.508	139.91667
2447.943	142.58333
2450.376	139.25
2452.808	148.91667
2455.238	138.58333
2457.667	174.58333
2460.093	139.91667
2462.519	127.91667
2464.942	136.25
2467.365	137.91667
2469.785	142.58333
2472.204	140.58333
2474.621	132.91667
2477.037	159.91667
2479.451	129.91667
2481.863	127.91667
2484.274	130.25
2486.683	137.25
2489.091	144.25
2491.497	140.25
2493.901	140.91667
2496.304	129.25
2498.705	146.58333
2501.105	140.25
2503.503	152.58333
2505.899	124.58333
2508.294	150.91667
2510.687	135.58333
2513.079	132.58333
2515.469	122.91667
2517.858	128.91667
2520.245	151.25
2522.63	136.25
2525.014	125.58333
2527.396	129.91667
2529.776	132.25
2532.156	136.91667
2534.533	124.25
2536.909	126.91667
2539.283	112.91667
2541.656	124.25
2544.027	143.91667
2546.397	135.91667
2548.765	122.91667
2551.131	132.58333
2553.496	133.58333
2555.86	135.58333
2558.221	136.25
2560.582	123.91667
2562.94	119.91667
2565.298	128.25
2567.653	132.25
2570.007	119.91667
2572.36	141.25
2574.711	123.91667
2577.06	138.91667
2579.408	130.25
2581.754	124.58333
2584.099	131.25
2586.442	124.25
2588.784	136.58333
2591.124	127.91667
2593.463	122.58333
2595.8	130.25
2598.135	114.58333
2600.469	114.58333
2602.802	133.58333
2605.133	135.25
2607.462	117.91667
2609.79	113.25
2612.116	130.91667
2614.441	121.91667
2616.764	123.91667
2619.086	127.25
2621.406	116.25
2623.725	138.58333
2626.042	119.58333
2628.358	118.25
2630.672	124.58333
2632.985	129.58333
2635.296	131.91667
2637.606	122.25
2639.914	121.58333
2642.22	117.25
2644.525	121.58333
2646.829	121.91667
2649.131	136.25
2651.432	123.91667
2653.731	121.58333
2656.028	131.58333
2658.324	130.91667
2660.619	115.91667
2662.912	131.58333
2665.204	109.91667
2667.494	128.25
2669.782	115.25
2672.07	135.91667
2674.355	129.91667
2676.639	124.25
2678.922	115.25
2681.203	131.91667
2683.483	117.91667
2685.761	106.25
2688.038	126.25
2690.313	139.91667
2692.587	128.58333
2694.859	121.25
2697.13	125.25
2699.399	125.58333
2701.667	131.91667
2703.933	125.91667
2706.198	132.25
2708.461	128.91667
2710.723	128.91667
2712.984	132.91667
2715.243	133.25
2717.5	132.91667
2719.757	132.25
2722.011	127.91667
2724.264	134.58333
2726.516	143.91667
2728.766	126.58333
2731.015	134.91667
2733.262	126.58333
2735.508	125.25
2737.753	129.58333
2739.996	115.58333
2742.237	120.25
2744.477	130.58333
2746.716	138.58333
2748.953	134.91667
2751.189	135.58333
2753.423	130.58333
2755.656	114.91667
2757.887	115.25
2760.117	119.91667
2762.346	110.58333
2764.573	112.91667
2766.798	115.91667
2769.022	119.25
2771.245	117.58333
2773.467	119.25
2775.686	119.58333
2777.905	129.58333
2780.122	120.58333
2782.337	127.25
2784.552	121.25
2786.764	120.25
2788.976	114.58333
2791.186	122.91667
2793.394	122.58333
2795.601	130.91667
2797.807	135.91667
2800.011	122.58333
2802.214	132.91667
2804.415	126.58333
2806.615	126.58333
2808.814	136.58333
2811.011	137.25
2813.206	135.58333
2815.401	143.58333
2817.594	145.91667
2819.785	143.58333
2821.975	129.91667
2824.164	139.25
2826.351	139.25
2828.537	154.25
2830.722	149.25
2832.905	150.91667
2835.086	153.91667
2837.267	173.91667
2839.445	166.91667
2841.623	173.25
2843.799	176.25
2845.974	173.58333
2848.147	185.58333
2850.319	196.91667
2852.489	203.91667
2854.659	199.91667
2856.826	198.58333
2858.993	221.58333
2861.158	199.58333
2863.321	205.25
2865.483	219.91667
2867.644	216.91667
2869.804	218.58333
2871.962	217.91667
2874.118	209.91667
2876.274	215.91667
2878.428	220.58333
2880.58	212.58333
2882.731	202.91667
2884.881	212.25
2887.03	219.58333
2889.177	215.91667
2891.322	216.25
2893.467	209.91667
2895.61	210.58333
2897.751	221.58333
2899.892	213.58333
2902.03	219.91667
2904.168	214.91667
2906.304	219.25
2908.439	239.91667
2910.572	213.25
2912.704	227.25
2914.835	229.58333
2916.965	228.58333
2919.093	243.25
2921.219	208.25
2923.345	232.91667
2925.469	227.91667
2927.591	218.91667
2929.712	207.58333
2931.832	218.25
2933.951	211.58333
2936.068	205.91667
2938.184	202.25
2940.299	195.25
2942.412	189.91667
2944.524	172.91667
2946.634	181.91667
2948.744	161.25
2950.851	191.58333
2952.958	159.91667
2955.063	168.25
2957.167	161.25
2959.269	145.58333
2961.371	175.25
2963.471	147.58333
2965.569	165.91667
2967.666	142.91667
2969.762	137.91667
2971.857	133.91667
2973.95	124.91667
2976.042	143.25
2978.133	131.25
2980.222	132.25
2982.31	111.91667
2984.396	103.91667
2986.482	110.91667
2988.566	117.91667
2990.648	112.58333
2992.73	113.25
2994.81	101.25
2996.889	120.91667
2998.966	109.25
3001.042	118.58333
3003.117	111.58333
3005.191	112.25
3007.263	123.58333
3009.334	108.58333
3011.403	107.58333
3013.472	104.25
3015.539	117.25
3017.604	126.91667
3019.669	98.58333
3021.732	99.91667
3023.794	109.25
3025.854	94.25
3027.914	92.25
3029.971	94.25
3032.028	96.25
3034.083	102.91667
3036.137	108.91667
3038.19	90.91667
3040.242	86.25
3042.292	81.91667
3044.341	90.25
3046.388	102.58333
3048.435	84.25
3050.48	97.25
3052.524	92.25
3054.566	79.25
3056.607	88.25
3058.647	81.25
3060.686	74.25
3062.723	73.25
3064.759	71.25
3066.794	-1.08333
3068.828	-0.08333
3070.86	2.91667
