-0.839	148.20833
3.438	165.20833
7.711	65.875
11.981	46.20833
16.247	31.54167
20.509	36.875
24.768	36.54167
29.024	43.875
33.276	32.54167
37.524	44.54167
41.769	31.20833
46.01	28.875
50.247	44.54167
54.481	51.54167
58.712	52.20833
62.939	36.875
67.162	55.54167
71.382	43.20833
75.599	39.20833
79.812	47.875
84.021	61.875
88.227	46.20833
92.429	53.875
96.628	38.54167
100.823	54.20833
105.015	53.875
109.204	49.20833
113.388	62.20833
117.57	40.875
121.748	61.20833
125.922	50.54167
130.093	67.875
134.261	68.20833
138.425	60.54167
142.585	86.54167
146.742	69.20833
150.896	85.20833
155.046	81.54167
159.193	125.20833
163.336	187.20833
167.476	313.875
171.613	576.875
175.746	917.875
179.875	1366.875
184.002	1771.875
188.124	2129.20833
192.244	2242.54167
196.36	2246.875
200.472	2244.875
204.581	2201.875
208.687	2154.20833
212.79	2129.54167
216.889	2166.875
220.984	2172.875
225.077	2179.54167
229.165	2196.54167
233.251	2186.20833
237.333	2200.54167
241.412	2182.54167
245.487	2193.875
249.559	2169.54167
253.628	2178.20833
257.694	2163.875
261.756	2163.20833
265.814	2120.54167
269.87	2046.875
273.922	2003.20833
277.97	1982.875
282.016	1953.54167
286.058	1940.20833
290.097	1979.54167
294.132	1981.875
298.164	1974.54167
302.193	1922.875
306.219	1846.54167
310.241	1747.54167
314.26	1655.54167
318.276	1590.20833
322.288	1551.20833
326.297	1528.20833
330.303	1508.54167
334.305	1467.20833
338.305	1473.20833
342.301	1467.20833
346.294	1472.20833
350.283	1472.20833
354.269	1450.54167
358.252	1442.20833
362.232	1455.54167
366.209	1455.875
370.182	1440.875
374.152	1441.875
378.119	1457.54167
382.083	1431.20833
386.043	1467.54167
390	1464.20833
393.954	1510.54167
397.905	1519.875
401.852	1521.875
405.797	1490.20833
409.738	1597.20833
413.676	1690.875
417.61	1772.875
421.542	1568.875
425.47	1447.20833
429.396	1438.875
433.318	1418.875
437.236	1424.875
441.152	1457.20833
445.065	1404.20833
448.974	1421.54167
452.88	1407.875
456.783	1398.54167
460.683	1401.875
464.58	1421.54167
468.473	1404.875
472.364	1416.875
476.251	1420.875
480.135	1420.20833
484.016	1447.875
487.894	1443.20833
491.769	1440.20833
495.641	1440.20833
499.509	1444.875
503.375	1443.54167
507.237	1425.54167
511.096	1438.875
514.952	1443.54167
518.805	1457.875
522.655	1467.20833
526.502	1451.20833
530.346	1427.20833
534.187	1430.54167
538.024	1424.875
541.859	1411.875
545.69	1440.20833
549.519	1422.875
553.344	1410.875
557.166	1404.20833
560.985	1417.54167
564.802	1400.875
568.615	1382.875
572.425	1373.20833
576.232	1364.20833
580.036	1365.54167
583.836	1358.54167
587.634	1375.54167
591.429	1378.54167
595.221	1395.875
599.01	1376.54167
602.796	1387.54167
606.578	1391.54167
610.358	1414.875
614.135	1393.875
617.909	1399.875
621.679	1383.54167
625.447	1358.875
629.212	1382.54167
632.973	1398.54167
636.732	1408.20833
640.488	1406.875
644.241	1353.20833
647.991	1345.875
651.737	1378.54167
655.481	1344.875
659.222	1355.875
662.96	1344.875
666.695	1362.875
670.427	1367.54167
674.156	1372.20833
677.882	1356.54167
681.605	1358.20833
685.325	1333.54167
689.043	1369.20833
692.757	1350.875
696.468	1342.875
700.177	1345.875
703.882	1310.875
707.585	1315.54167
711.284	1304.875
714.981	1292.875
718.675	1299.875
722.366	1299.54167
726.054	1287.54167
729.739	1289.20833
733.421	1299.54167
737.1	1296.875
740.777	1310.20833
744.45	1303.54167
748.121	1302.20833
751.789	1334.875
755.453	1306.54167
759.115	1323.20833
762.774	1319.875
766.431	1325.875
770.084	1324.875
773.734	1316.875
777.382	1321.20833
781.027	1326.20833
784.669	1320.875
788.308	1312.54167
791.944	1337.54167
795.577	1343.20833
799.208	1333.20833
802.835	1352.20833
806.46	1358.54167
810.082	1375.54167
813.701	1355.875
817.317	1375.875
820.931	1366.54167
824.542	1365.20833
828.149	1327.875
831.754	1322.875
835.357	1322.54167
838.956	1338.54167
842.553	1370.20833
846.146	1383.875
849.737	1311.20833
853.326	1283.54167
856.911	1266.875
860.493	1301.20833
864.073	1358.20833
867.65	1453.875
871.225	1425.875
874.796	1322.54167
878.365	1293.54167
881.931	1297.875
885.494	1334.54167
889.054	1317.20833
892.612	1296.20833
896.166	1300.875
899.719	1280.875
903.268	1245.875
906.814	1259.20833
910.358	1255.875
913.899	1255.54167
917.438	1234.54167
920.973	1226.20833
924.506	1242.20833
928.036	1246.875
931.564	1274.875
935.088	1281.875
938.61	1262.875
942.129	1268.20833
945.646	1282.875
949.16	1293.54167
952.671	1292.20833
956.179	1309.20833
959.685	1302.875
963.188	1301.875
966.688	1299.54167
970.185	1259.875
973.68	1224.54167
977.173	1222.875
980.662	1198.54167
984.149	1214.875
987.633	1207.54167
991.114	1218.20833
994.593	1237.54167
998.069	1258.54167
1001.542	1311.875
1005.013	1296.54167
1008.481	1212.20833
1011.947	1165.20833
1015.409	1175.54167
1018.869	1171.20833
1022.327	1181.20833
1025.782	1156.20833
1029.234	1146.875
1032.683	1138.875
1036.13	1111.54167
1039.574	1073.875
1043.016	1062.54167
1046.455	1041.875
1049.891	1053.54167
1053.325	1045.875
1056.756	1036.875
1060.184	1037.20833
1063.61	1022.875
1067.033	1058.875
1070.454	1036.54167
1073.872	1064.875
1077.287	1035.875
1080.7	1037.54167
1084.11	1037.20833
1087.517	1047.20833
1090.922	1021.875
1094.325	1007.20833
1097.724	1006.54167
1101.122	1001.20833
1104.516	996.54167
1107.908	988.20833
1111.298	1000.875
1114.684	1002.20833
1118.069	1003.20833
1121.45	1032.20833
1124.83	1009.875
1128.206	1023.54167
1131.58	1035.875
1134.951	1056.54167
1138.32	1060.20833
1141.687	1098.875
1145.05	1111.20833
1148.412	1091.54167
1151.77	1089.875
1155.126	1085.20833
1158.48	1083.20833
1161.831	1089.54167
1165.18	1084.54167
1168.525	1096.875
1171.869	1092.875
1175.21	1096.20833
1178.548	1119.20833
1181.884	1124.54167
1185.217	1128.875
1188.548	1152.20833
1191.877	1161.54167
1195.202	1213.20833
1198.526	1214.20833
1201.846	1220.20833
1205.165	1211.875
1208.48	1214.875
1211.794	1228.54167
1215.104	1224.20833
1218.413	1201.20833
1221.719	1195.20833
1225.022	1176.54167
1228.323	1177.54167
1231.621	1179.20833
1234.917	1170.875
1238.21	1181.875
1241.501	1158.875
1244.79	1147.875
1248.076	1138.54167
1251.359	1165.54167
1254.64	1212.20833
1257.919	1189.875
1261.195	1189.875
1264.468	1227.875
1267.74	1239.875
1271.008	1223.20833
1274.275	1230.875
1277.538	1216.54167
1280.8	1210.54167
1284.059	1196.875
1287.315	1205.54167
1290.569	1208.875
1293.821	1232.54167
1297.07	1223.875
1300.317	1212.875
1303.562	1221.54167
1306.803	1209.875
1310.043	1200.54167
1313.28	1195.875
1316.515	1183.20833
1319.747	1200.20833
1322.977	1194.875
1326.204	1191.20833
1329.429	1174.54167
1332.652	1174.875
1335.872	1174.54167
1339.09	1152.20833
1342.306	1169.20833
1345.519	1155.20833
1348.729	1155.54167
1351.938	1149.54167
1355.144	1137.20833
1358.347	1119.875
1361.548	1117.875
1364.747	1113.875
1367.944	1098.54167
1371.138	1103.20833
1374.329	1102.20833
1377.518	1099.20833
1380.705	1116.54167
1383.89	1100.20833
1387.072	1064.875
1390.252	1048.54167
1393.429	1025.54167
1396.605	986.20833
1399.777	957.54167
1402.948	956.875
1406.116	946.20833
1409.282	962.54167
1412.445	939.875
1415.606	957.54167
1418.765	952.875
1421.921	969.54167
1425.075	980.20833
1428.227	985.54167
1431.376	1026.875
1434.524	1064.20833
1437.668	1077.20833
1440.811	1090.54167
1443.951	1084.875
1447.089	1091.20833
1450.224	1089.875
1453.357	1085.875
1456.488	1079.54167
1459.617	1080.875
1462.743	1066.20833
1465.867	1028.875
1468.989	1035.875
1472.108	1020.875
1475.225	993.20833
1478.34	973.875
1481.453	977.875
1484.563	981.54167
1487.671	981.875
1490.776	1004.54167
1493.88	997.54167
1496.981	1011.54167
1500.08	1022.875
1503.176	1021.875
1506.271	1034.875
1509.363	1054.875
1512.452	1050.20833
1515.54	1052.54167
1518.625	1080.875
1521.708	1101.875
1524.789	1124.54167
1527.867	1155.54167
1530.944	1207.875
1534.018	1208.20833
1537.089	1286.875
1540.159	1295.20833
1543.226	1272.875
1546.291	1262.54167
1549.354	1232.54167
1552.415	1231.20833
1555.473	1180.54167
1558.529	1178.20833
1561.583	1169.875
1564.634	1157.54167
1567.684	1148.20833
1570.731	1155.20833
1573.776	1166.875
1576.819	1171.54167
1579.859	1183.875
1582.898	1188.20833
1585.934	1216.20833
1588.968	1207.875
1591.999	1179.20833
1595.029	1180.54167
1598.056	1197.20833
1601.081	1220.875
1604.104	1221.20833
1607.125	1179.875
1610.144	1183.875
1613.16	1153.20833
1616.174	1133.875
1619.186	1134.20833
1622.196	1110.875
1625.203	1071.54167
1628.209	1071.20833
1631.212	1050.20833
1634.213	1056.875
1637.212	1063.20833
1640.209	1074.875
1643.203	1029.875
1646.196	1020.20833
1649.186	983.20833
1652.174	959.20833
1655.16	928.875
1658.144	925.54167
1661.125	885.875
1664.105	843.20833
1667.082	830.875
1670.057	767.20833
1673.03	736.20833
1676.001	714.20833
1678.97	666.54167
1681.937	640.875
1684.901	620.54167
1687.863	607.20833
1690.824	573.54167
1693.782	575.54167
1696.738	550.54167
1699.692	560.875
1702.643	538.20833
1705.593	532.875
1708.54	537.875
1711.486	541.54167
1714.429	512.54167
1717.37	523.875
1720.309	503.875
1723.246	507.54167
1726.181	500.875
1729.113	496.875
1732.044	508.54167
1734.972	490.875
1737.899	501.54167
1740.823	504.54167
1743.745	521.20833
1746.665	481.875
1749.583	479.54167
1752.499	463.875
1755.413	475.54167
1758.325	460.875
1761.235	471.20833
1764.142	440.54167
1767.048	457.875
1769.951	451.54167
1772.852	456.54167
1775.752	516.20833
1778.649	573.20833
1781.544	506.20833
1784.437	440.54167
1787.328	448.54167
1790.217	442.875
1793.104	415.875
1795.989	428.20833
1798.872	416.875
1801.753	439.54167
1804.631	422.875
1807.508	431.54167
1810.383	423.20833
1813.255	425.20833
1816.126	416.20833
1818.994	421.54167
1821.861	416.20833
1824.725	419.875
1827.587	417.875
1830.448	404.875
1833.306	402.875
1836.162	411.875
1839.017	409.875
1841.869	402.20833
1844.719	401.20833
1847.567	378.875
1850.414	386.875
1853.258	382.875
1856.1	403.54167
1858.94	403.20833
1861.778	393.54167
1864.614	378.20833
1867.448	385.875
1870.28	379.875
1873.111	399.54167
1875.939	384.875
1878.765	402.875
1881.589	383.54167
1884.411	384.54167
1887.231	398.875
1890.049	379.54167
1892.865	391.875
1895.68	382.54167
1898.492	404.20833
1901.302	386.875
1904.11	381.20833
1906.916	369.54167
1909.721	368.875
1912.523	380.20833
1915.323	353.54167
1918.122	367.20833
1920.918	369.54167
1923.712	353.20833
1926.505	365.875
1929.295	349.20833
1932.084	365.875
1934.87	365.54167
1937.655	358.20833
1940.438	350.20833
1943.218	355.20833
1945.997	352.54167
1948.774	369.875
1951.549	364.20833
1954.322	349.20833
1957.093	349.20833
1959.862	340.875
1962.629	349.875
1965.394	344.20833
1968.157	331.20833
1970.918	356.54167
1973.678	335.20833
1976.435	340.54167
1979.19	340.875
1981.944	326.875
1984.696	335.875
1987.445	325.54167
1990.193	332.54167
1992.939	350.875
1995.683	339.20833
1998.425	313.875
2001.165	341.54167
2003.903	318.54167
2006.639	326.54167
2009.374	332.875
2012.106	333.54167
2014.837	312.54167
2017.566	335.20833
2020.292	323.875
2023.017	318.54167
2025.74	318.54167
2028.461	310.20833
2031.18	327.875
2033.898	309.875
2036.613	316.54167
2039.327	326.20833
2042.038	310.54167
2044.748	312.54167
2047.456	319.54167
2050.162	299.20833
2052.866	302.54167
2055.568	314.54167
2058.268	303.54167
2060.967	322.54167
2063.663	295.54167
2066.358	299.875
2069.051	296.20833
2071.742	302.54167
2074.431	305.875
2077.118	304.54167
2079.804	287.20833
2082.487	292.54167
2085.169	305.20833
2087.849	325.875
2090.527	296.54167
2093.203	304.54167
2095.877	302.20833
2098.55	298.20833
2101.22	300.875
2103.889	316.875
2106.556	295.54167
2109.221	315.875
2111.884	310.20833
2114.546	332.875
2117.205	335.20833
2119.863	370.20833
2122.519	366.20833
2125.173	387.875
2127.825	418.875
2130.475	415.875
2133.124	406.54167
2135.771	391.875
2138.416	396.54167
2141.059	363.20833
2143.7	360.54167
2146.339	339.875
2148.977	310.875
2151.613	322.54167
2154.247	313.20833
2156.879	306.54167
2159.51	296.20833
2162.138	299.20833
2164.765	286.54167
2167.39	276.20833
2170.013	304.20833
2172.634	294.20833
2175.254	275.875
2177.872	317.875
2180.488	271.875
2183.102	269.20833
2185.714	272.875
2188.325	266.20833
2190.934	275.20833
2193.541	277.54167
2196.146	269.20833
2198.75	254.875
2201.351	257.875
2203.951	245.875
2206.549	267.875
2209.146	255.54167
2211.74	251.20833
2214.333	259.875
2216.924	245.20833
2219.514	248.875
2222.101	247.54167
2224.687	258.875
2227.271	244.875
2229.853	241.875
2232.433	225.875
2235.012	252.54167
2237.589	246.875
2240.164	258.875
2242.738	237.54167
2245.309	230.875
2247.879	253.54167
2250.448	247.875
2253.014	237.20833
2255.579	223.20833
2258.142	231.54167
2260.703	235.20833
2263.262	223.20833
2265.82	224.54167
2268.376	239.54167
2270.93	231.20833
2273.483	225.54167
2276.033	231.875
2278.583	217.875
2281.13	216.20833
2283.675	215.20833
2286.219	218.54167
2288.761	233.20833
2291.302	234.20833
2293.841	235.875
2296.377	211.54167
2298.913	229.20833
2301.446	232.20833
2303.978	217.875
2306.508	223.20833
2309.037	219.20833
2311.563	220.54167
2314.088	219.54167
2316.612	203.875
2319.133	223.54167
2321.653	220.20833
2324.171	212.875
2326.688	221.875
2329.202	213.875
2331.715	219.20833
2334.227	213.20833
2336.736	211.20833
2339.244	209.20833
2341.751	197.875
2344.255	224.54167
2346.758	212.875
2349.259	197.875
2351.759	211.54167
2354.257	202.875
2356.753	198.875
2359.247	202.20833
2361.74	205.20833
2364.231	209.20833
2366.721	212.54167
2369.209	199.54167
2371.695	202.20833
2374.179	197.875
2376.662	193.875
2379.143	223.20833
2381.622	205.20833
2384.1	220.20833
2386.576	207.20833
2389.051	211.20833
2391.524	218.54167
2393.995	204.54167
2396.464	198.20833
2398.932	197.20833
2401.398	199.875
2403.863	190.20833
2406.325	192.54167
2408.787	198.875
2411.246	197.54167
2413.704	193.875
2416.16	189.54167
2418.615	190.54167
2421.068	196.54167
2423.519	189.20833
2425.969	187.54167
2428.417	198.54167
2430.863	214.875
2433.308	193.20833
2435.751	195.875
2438.193	187.54167
2440.633	196.54167
2443.071	197.54167
2445.508	188.875
2447.943	184.20833
2450.376	182.20833
2452.808	189.54167
2455.238	177.20833
2457.667	211.875
2460.093	181.875
2462.519	176.20833
2464.942	178.875
2467.365	193.54167
2469.785	183.875
2472.204	180.54167
2474.621	184.20833
2477.037	198.875
2479.451	181.20833
2481.863	173.875
2484.274	182.875
2486.683	177.875
2489.091	196.20833
2491.497	186.20833
2493.901	189.20833
2496.304	179.54167
2498.705	193.875
2501.105	178.20833
2503.503	199.875
2505.899	170.20833
2508.294	194.875
2510.687	171.875
2513.079	176.875
2515.469	174.20833
2517.858	174.875
2520.245	191.54167
2522.63	177.875
2525.014	168.875
2527.396	172.54167
2529.776	170.54167
2532.156	180.54167
2534.533	168.20833
2536.909	166.875
2539.283	153.54167
2541.656	169.54167
2544.027	186.54167
2546.397	177.875
2548.765	165.20833
2551.131	172.875
2553.496	173.20833
2555.86	178.20833
2558.221	182.875
2560.582	167.875
2562.94	159.54167
2565.298	169.54167
2567.653	183.54167
2570.007	165.20833
2572.36	177.875
2574.711	166.875
2577.06	178.54167
2579.408	173.875
2581.754	168.54167
2584.099	174.875
2586.442	163.54167
2588.784	174.875
2591.124	168.54167
2593.463	166.20833
2595.8	171.54167
2598.135	157.54167
2600.469	160.875
2602.802	176.54167
2605.133	179.54167
2607.462	158.54167
2609.79	156.54167
2612.116	174.875
2614.441	163.20833
2616.764	167.54167
2619.086	163.875
2621.406	162.875
2623.725	169.54167
2626.042	159.54167
2628.358	156.20833
2630.672	167.20833
2632.985	176.20833
2635.296	165.20833
2637.606	166.54167
2639.914	161.54167
2642.22	159.54167
2644.525	157.54167
2646.829	165.20833
2649.131	174.54167
2651.432	168.54167
2653.731	167.20833
2656.028	176.875
2658.324	168.20833
2660.619	156.875
2662.912	176.20833
2665.204	152.20833
2667.494	170.875
2669.782	155.20833
2672.07	172.54167
2674.355	176.54167
2676.639	172.20833
2678.922	159.875
2681.203	173.875
2683.483	158.20833
2685.761	152.54167
2688.038	175.54167
2690.313	176.875
2692.587	164.875
2694.859	163.875
2697.13	161.54167
2699.399	170.875
2701.667	173.20833
2703.933	169.54167
2706.198	181.875
2708.461	177.54167
2710.723	175.54167
2712.984	172.20833
2715.243	177.20833
2717.5	171.875
2719.757	172.20833
2722.011	169.54167
2724.264	178.54167
2726.516	186.20833
2728.766	165.20833
2731.015	170.54167
2733.262	172.875
2735.508	164.20833
2737.753	182.875
2739.996	157.54167
2742.237	163.54167
2744.477	181.875
2746.716	184.54167
2748.953	172.20833
2751.189	174.875
2753.423	168.875
2755.656	165.20833
2757.887	158.20833
2760.117	166.20833
2762.346	161.54167
2764.573	149.54167
2766.798	160.875
2769.022	160.54167
2771.245	156.54167
2773.467	163.875
2775.686	157.875
2777.905	175.20833
2780.122	170.54167
2782.337	163.54167
2784.552	161.54167
2786.764	160.54167
2788.976	161.54167
2791.186	163.54167
2793.394	169.875
2795.601	172.875
2797.807	176.20833
2800.011	172.875
2802.214	181.54167
2804.415	173.875
2806.615	177.875
2808.814	176.54167
2811.011	176.54167
2813.206	182.875
2815.401	188.20833
2817.594	190.875
2819.785	187.54167
2821.975	175.54167
2824.164	178.54167
2826.351	184.875
2828.537	199.20833
2830.722	201.20833
2832.905	196.20833
2835.086	196.875
2837.267	219.875
2839.445	215.20833
2841.623	211.20833
2843.799	214.875
2845.974	224.20833
2848.147	225.54167
2850.319	237.54167
2852.489	247.54167
2854.659	245.54167
2856.826	239.875
2858.993	271.875
2861.158	252.54167
2863.321	253.875
2865.483	276.20833
2867.644	266.54167
2869.804	267.875
2871.962	264.875
2874.118	280.54167
2876.274	325.875
2878.428	307.54167
2880.58	294.875
2882.731	269.875
2884.881	272.20833
2887.03	274.54167
2889.177	272.20833
2891.322	278.20833
2893.467	260.54167
2895.61	250.54167
2897.751	272.20833
2899.892	261.20833
2902.03	266.54167
2904.168	259.875
2906.304	270.875
2908.439	280.875
2910.572	262.875
2912.704	268.875
2914.835	271.54167
2916.965	273.875
2919.093	281.875
2921.219	256.20833
2923.345	285.54167
2925.469	266.20833
2927.591	265.54167
2929.712	250.20833
2931.832	258.875
2933.951	256.54167
2936.068	245.54167
2938.184	247.875
2940.299	237.54167
2942.412	231.54167
2944.524	221.54167
2946.634	228.875
2948.744	201.20833
2950.851	236.54167
2952.958	204.54167
2955.063	213.20833
2957.167	202.20833
2959.269	191.20833
2961.371	221.20833
2963.471	189.54167
2965.569	209.20833
2967.666	181.54167
2969.762	187.54167
2971.857	179.875
2973.95	169.875
2976.042	186.20833
2978.133	173.54167
2980.222	167.54167
2982.31	158.20833
2984.396	142.20833
2986.482	154.875
2988.566	161.20833
2990.648	153.54167
2992.73	152.54167
2994.81	142.54167
2996.889	159.20833
2998.966	156.875
3001.042	169.54167
3003.117	149.54167
3005.191	157.54167
3007.263	158.875
3009.334	152.54167
3011.403	156.54167
3013.472	146.54167
3015.539	158.20833
3017.604	168.20833
3019.669	138.875
3021.732	142.54167
3023.794	148.20833
3025.854	136.875
3027.914	133.54167
3029.971	140.20833
3032.028	142.54167
3034.083	144.20833
3036.137	141.875
3038.19	128.54167
3040.242	124.875
3042.292	123.54167
3044.341	128.875
3046.388	148.20833
3048.435	120.875
3050.48	139.20833
3052.524	124.875
3054.566	113.20833
3056.607	123.20833
3058.647	125.875
3060.686	110.875
3062.723	104.875
3064.759	100.20833
3066.794	0.875
3068.828	0.54167
3070.86	1.54167
