-0.839	148.79167
3.438	163.45833
7.711	65.125
11.981	44.125
16.247	32.79167
20.509	34.45833
24.768	36.125
29.024	43.79167
33.276	30.79167
37.524	39.79167
41.769	28.125
46.01	27.125
50.247	43.125
54.481	51.45833
58.712	49.45833
62.939	37.45833
67.162	55.79167
71.382	47.79167
75.599	39.45833
79.812	42.79167
84.021	61.125
88.227	41.125
92.429	50.79167
96.628	39.45833
100.823	54.125
105.015	51.125
109.204	46.45833
113.388	59.45833
117.57	42.45833
121.748	62.45833
125.922	48.79167
130.093	66.125
134.261	65.79167
138.425	55.45833
142.585	82.45833
146.742	66.45833
150.896	84.45833
155.046	77.45833
159.193	118.45833
163.336	175.125
167.476	294.125
171.613	541.79167
175.746	878.45833
179.875	1263.125
184.002	1646.125
188.124	1929.79167
192.244	2038.45833
196.36	2052.45833
200.472	2012.79167
204.581	2009.79167
208.687	1938.79167
212.79	1924.45833
216.889	1935.79167
220.984	1936.79167
225.077	1971.125
229.165	1960.79167
233.251	1981.45833
237.333	1966.125
241.412	1935.45833
245.487	1926.45833
249.559	1888.45833
253.628	1887.45833
257.694	1875.45833
261.756	1880.79167
265.814	1836.79167
269.87	1776.79167
273.922	1734.45833
277.97	1736.45833
282.016	1723.79167
286.058	1680.45833
290.097	1734.79167
294.132	1746.79167
298.164	1737.45833
302.193	1670.79167
306.219	1582.79167
310.241	1485.125
314.26	1385.125
318.276	1335.45833
322.288	1291.45833
326.297	1240.45833
330.303	1220.125
334.305	1210.45833
338.305	1196.125
342.301	1190.125
346.294	1183.45833
350.283	1162.125
354.269	1157.79167
358.252	1163.125
362.232	1170.79167
366.209	1173.79167
370.182	1169.79167
374.152	1135.79167
378.119	1165.45833
382.083	1155.125
386.043	1164.125
390	1155.79167
393.954	1166.79167
397.905	1160.125
401.852	1170.125
405.797	1135.125
409.738	1151.45833
413.676	1154.125
417.61	1175.79167
421.542	1153.125
425.47	1131.45833
429.396	1134.79167
433.318	1118.125
437.236	1119.79167
441.152	1156.125
445.065	1113.125
448.974	1102.45833
452.88	1109.125
456.783	1089.45833
460.683	1094.45833
464.58	1107.79167
468.473	1115.79167
472.364	1118.45833
476.251	1106.79167
480.135	1112.79167
484.016	1134.79167
487.894	1129.125
491.769	1129.45833
495.641	1125.79167
499.509	1138.79167
503.375	1132.79167
507.237	1131.79167
511.096	1109.45833
514.952	1131.79167
518.805	1124.125
522.655	1122.45833
526.502	1112.45833
530.346	1137.45833
534.187	1122.125
538.024	1129.125
541.859	1109.45833
545.69	1139.45833
549.519	1138.45833
553.344	1113.79167
557.166	1095.79167
560.985	1087.45833
564.802	1087.79167
568.615	1082.79167
572.425	1066.79167
576.232	1055.125
580.036	1064.125
583.836	1071.79167
587.634	1070.125
591.429	1063.125
595.221	1104.45833
599.01	1086.79167
602.796	1084.79167
606.578	1092.125
610.358	1101.125
614.135	1092.79167
617.909	1093.79167
621.679	1084.79167
625.447	1055.45833
629.212	1081.79167
632.973	1089.125
636.732	1069.45833
640.488	1076.79167
644.241	1066.79167
647.991	1065.125
651.737	1093.79167
655.481	1049.79167
659.222	1072.125
662.96	1060.125
666.695	1073.79167
670.427	1083.45833
674.156	1079.45833
677.882	1076.45833
681.605	1084.45833
685.325	1062.125
689.043	1097.79167
692.757	1059.79167
696.468	1075.125
700.177	1054.45833
703.882	1046.125
707.585	1040.125
711.284	1034.45833
714.981	1028.125
718.675	1029.125
722.366	1043.125
726.054	1025.79167
729.739	1018.45833
733.421	1037.79167
737.1	1023.79167
740.777	1045.125
744.45	1040.79167
748.121	1024.125
751.789	1063.79167
755.453	1043.125
759.115	1067.125
762.774	1052.45833
766.431	1059.125
770.084	1086.45833
773.734	1059.125
777.382	1083.125
781.027	1069.79167
784.669	1071.45833
788.308	1081.125
791.944	1090.125
795.577	1096.79167
799.208	1108.79167
802.835	1125.79167
806.46	1125.45833
810.082	1106.125
813.701	1118.125
817.317	1130.125
820.931	1135.79167
824.542	1139.45833
828.149	1105.79167
831.754	1095.79167
835.357	1075.79167
838.956	1096.125
842.553	1091.79167
846.146	1087.79167
849.737	1060.45833
853.326	1063.125
856.911	1040.45833
860.493	1071.45833
864.073	1075.125
867.65	1092.79167
871.225	1106.125
874.796	1079.45833
878.365	1073.79167
881.931	1103.79167
885.494	1099.125
889.054	1089.125
892.612	1095.125
896.166	1069.79167
899.719	1054.79167
903.268	1052.125
906.814	1057.45833
910.358	1049.79167
913.899	1037.125
917.438	1038.79167
920.973	1024.79167
924.506	1035.125
928.036	1049.45833
931.564	1065.125
935.088	1093.125
938.61	1072.45833
942.129	1067.125
945.646	1087.79167
949.16	1103.125
952.671	1106.45833
956.179	1119.79167
959.685	1114.125
963.188	1138.79167
966.688	1103.79167
970.185	1084.125
973.68	1038.79167
977.173	1046.125
980.662	1032.125
984.149	1036.79167
987.633	1028.125
991.114	1041.79167
994.593	1056.125
998.069	1078.125
1001.542	1098.125
1005.013	1083.125
1008.481	1011.79167
1011.947	1016.79167
1015.409	993.125
1018.869	1013.45833
1022.327	1007.79167
1025.782	992.45833
1029.234	980.79167
1032.683	991.79167
1036.13	956.79167
1039.574	916.79167
1043.016	902.125
1046.455	887.45833
1049.891	867.125
1053.325	898.45833
1056.756	881.79167
1060.184	886.125
1063.61	871.79167
1067.033	895.125
1070.454	877.125
1073.872	903.45833
1077.287	887.125
1080.7	887.125
1084.11	883.45833
1087.517	898.125
1090.922	890.45833
1094.325	856.125
1097.724	865.125
1101.122	852.79167
1104.516	863.45833
1107.908	839.79167
1111.298	853.125
1114.684	856.125
1118.069	868.79167
1121.45	892.125
1124.83	866.125
1128.206	881.125
1131.58	886.45833
1134.951	895.125
1138.32	914.79167
1141.687	952.45833
1145.05	960.45833
1148.412	967.45833
1151.77	958.125
1155.126	956.79167
1158.48	933.79167
1161.831	965.125
1165.18	948.79167
1168.525	965.45833
1171.869	976.45833
1175.21	967.45833
1178.548	995.125
1181.884	986.125
1185.217	991.45833
1188.548	1012.125
1191.877	1033.79167
1195.202	1078.79167
1198.526	1098.45833
1201.846	1108.45833
1205.165	1088.125
1208.48	1086.79167
1211.794	1092.79167
1215.104	1094.45833
1218.413	1094.79167
1221.719	1075.45833
1225.022	1066.45833
1228.323	1050.79167
1231.621	1062.125
1234.917	1053.45833
1238.21	1056.45833
1241.501	1032.79167
1244.79	1035.79167
1248.076	1028.125
1251.359	1040.45833
1254.64	1079.45833
1257.919	1065.45833
1261.195	1070.45833
1264.468	1073.45833
1267.74	1101.79167
1271.008	1111.125
1274.275	1104.45833
1277.538	1092.79167
1280.8	1101.125
1284.059	1095.79167
1287.315	1112.79167
1290.569	1094.79167
1293.821	1100.79167
1297.07	1115.125
1300.317	1107.125
1303.562	1114.125
1306.803	1101.45833
1310.043	1108.45833
1313.28	1097.45833
1316.515	1083.125
1319.747	1106.125
1322.977	1078.45833
1326.204	1075.45833
1329.429	1067.79167
1332.652	1068.45833
1335.872	1064.45833
1339.09	1048.45833
1342.306	1048.79167
1345.519	1039.125
1348.729	1039.45833
1351.938	1048.45833
1355.144	1041.125
1358.347	1016.45833
1361.548	1017.79167
1364.747	1025.125
1367.944	1002.45833
1371.138	1010.125
1374.329	1002.79167
1377.518	999.45833
1380.705	1006.45833
1383.89	1007.125
1387.072	968.79167
1390.252	944.79167
1393.429	933.125
1396.605	911.125
1399.777	874.45833
1402.948	867.79167
1406.116	844.125
1409.282	851.125
1412.445	846.45833
1415.606	869.45833
1418.765	855.79167
1421.921	880.125
1425.075	875.79167
1428.227	898.125
1431.376	935.79167
1434.524	961.45833
1437.668	985.45833
1440.811	1009.125
1443.951	999.79167
1447.089	1009.45833
1450.224	999.125
1453.357	1005.125
1456.488	1012.79167
1459.617	992.79167
1462.743	985.125
1465.867	961.125
1468.989	945.125
1472.108	933.79167
1475.225	912.125
1478.34	898.125
1481.453	898.79167
1484.563	900.79167
1487.671	914.79167
1490.776	912.79167
1493.88	917.79167
1496.981	928.79167
1500.08	931.125
1503.176	939.125
1506.271	967.79167
1509.363	975.45833
1512.452	965.79167
1515.54	967.79167
1518.625	988.79167
1521.708	1014.79167
1524.789	1056.45833
1527.867	1064.79167
1530.944	1118.79167
1534.018	1158.79167
1537.089	1205.45833
1540.159	1200.45833
1543.226	1211.125
1546.291	1186.125
1549.354	1172.79167
1552.415	1142.125
1555.473	1124.125
1558.529	1101.79167
1561.583	1108.45833
1564.634	1070.79167
1567.684	1082.125
1570.731	1075.125
1573.776	1086.125
1576.819	1100.45833
1579.859	1106.45833
1582.898	1126.125
1585.934	1152.79167
1588.968	1152.125
1591.999	1124.125
1595.029	1121.125
1598.056	1139.125
1601.081	1156.45833
1604.104	1151.79167
1607.125	1129.79167
1610.144	1121.79167
1613.16	1086.125
1616.174	1076.125
1619.186	1064.79167
1622.196	1040.79167
1625.203	1011.45833
1628.209	1013.79167
1631.212	1003.125
1634.213	1024.45833
1637.212	1021.79167
1640.209	1021.125
1643.203	1002.45833
1646.196	969.79167
1649.186	917.45833
1652.174	903.125
1655.16	884.125
1658.144	864.45833
1661.125	823.79167
1664.105	791.79167
1667.082	773.45833
1670.057	727.125
1673.03	680.79167
1676.001	647.125
1678.97	612.125
1681.937	583.125
1684.901	562.125
1687.863	552.45833
1690.824	520.79167
1693.782	532.79167
1696.738	483.125
1699.692	491.79167
1702.643	466.45833
1705.593	483.79167
1708.54	470.79167
1711.486	481.79167
1714.429	456.79167
1717.37	464.79167
1720.309	450.125
1723.246	451.79167
1726.181	440.125
1729.113	426.45833
1732.044	438.125
1734.972	430.125
1737.899	441.125
1740.823	440.79167
1743.745	463.79167
1746.665	421.125
1749.583	417.125
1752.499	415.125
1755.413	410.125
1758.325	390.45833
1761.235	406.79167
1764.142	396.125
1767.048	397.79167
1769.951	385.125
1772.852	385.79167
1775.752	395.125
1778.649	383.45833
1781.544	400.125
1784.437	378.79167
1787.328	384.79167
1790.217	372.125
1793.104	358.79167
1795.989	370.125
1798.872	358.125
1801.753	377.45833
1804.631	366.125
1807.508	379.45833
1810.383	361.79167
1813.255	363.79167
1816.126	360.45833
1818.994	359.125
1821.861	361.45833
1824.725	357.79167
1827.587	369.125
1830.448	348.125
1833.306	346.45833
1836.162	369.45833
1839.017	347.45833
1841.869	349.45833
1844.719	350.79167
1847.567	332.79167
1850.414	339.125
1853.258	329.125
1856.1	348.125
1858.94	350.45833
1861.778	341.45833
1864.614	337.79167
1867.448	342.79167
1870.28	330.125
1873.111	348.125
1875.939	336.79167
1878.765	347.45833
1881.589	333.45833
1884.411	338.45833
1887.231	338.45833
1890.049	337.79167
1892.865	341.45833
1895.68	326.79167
1898.492	333.79167
1901.302	330.79167
1904.11	326.125
1906.916	330.45833
1909.721	323.79167
1912.523	324.79167
1915.323	314.125
1918.122	307.79167
1920.918	335.45833
1923.712	316.45833
1926.505	325.125
1929.295	295.79167
1932.084	318.79167
1934.87	325.125
1937.655	303.79167
1940.438	306.45833
1943.218	313.79167
1945.997	308.79167
1948.774	317.79167
1951.549	315.79167
1954.322	307.45833
1957.093	306.125
1959.862	310.45833
1962.629	299.125
1965.394	303.45833
1968.157	290.79167
1970.918	307.45833
1973.678	289.79167
1976.435	308.125
1979.19	297.79167
1981.944	288.45833
1984.696	292.125
1987.445	281.125
1990.193	292.79167
1992.939	303.45833
1995.683	287.45833
1998.425	267.79167
2001.165	310.45833
2003.903	269.45833
2006.639	289.79167
2009.374	297.79167
2012.106	287.45833
2014.837	271.45833
2017.566	292.125
2020.292	289.125
2023.017	281.125
2025.74	276.125
2028.461	265.45833
2031.18	279.79167
2033.898	271.79167
2036.613	281.45833
2039.327	281.79167
2042.038	275.45833
2044.748	278.45833
2047.456	277.125
2050.162	266.45833
2052.866	262.79167
2055.568	277.45833
2058.268	262.79167
2060.967	277.45833
2063.663	257.45833
2066.358	264.45833
2069.051	255.125
2071.742	258.45833
2074.431	267.79167
2077.118	259.79167
2079.804	248.45833
2082.487	263.125
2085.169	271.45833
2087.849	285.125
2090.527	259.45833
2093.203	266.79167
2095.877	263.79167
2098.55	261.125
2101.22	267.125
2103.889	277.45833
2106.556	265.79167
2109.221	279.79167
2111.884	273.79167
2114.546	298.45833
2117.205	298.79167
2119.863	337.45833
2122.519	324.45833
2125.173	355.125
2127.825	386.79167
2130.475	377.125
2133.124	370.79167
2135.771	355.45833
2138.416	363.45833
2141.059	322.45833
2143.7	328.45833
2146.339	297.45833
2148.977	279.79167
2151.613	286.125
2154.247	278.79167
2156.879	265.45833
2159.51	261.79167
2162.138	262.45833
2164.765	258.79167
2167.39	243.45833
2170.013	265.45833
2172.634	263.125
2175.254	249.45833
2177.872	285.45833
2180.488	247.45833
2183.102	240.79167
2185.714	239.125
2188.325	239.125
2190.934	236.45833
2193.541	244.45833
2196.146	230.79167
2198.75	222.125
2201.351	231.79167
2203.951	210.45833
2206.549	233.45833
2209.146	224.125
2211.74	218.79167
2214.333	223.79167
2216.924	218.125
2219.514	217.125
2222.101	221.45833
2224.687	235.125
2227.271	208.79167
2229.853	213.79167
2232.433	199.125
2235.012	222.125
2237.589	211.125
2240.164	225.45833
2242.738	212.125
2245.309	200.125
2247.879	223.79167
2250.448	222.79167
2253.014	202.45833
2255.579	194.45833
2258.142	205.79167
2260.703	202.79167
2263.262	196.125
2265.82	188.45833
2268.376	209.45833
2270.93	191.45833
2273.483	191.79167
2276.033	203.79167
2278.583	190.125
2281.13	189.79167
2283.675	186.125
2286.219	187.45833
2288.761	202.45833
2291.302	197.79167
2293.841	206.79167
2296.377	185.79167
2298.913	193.45833
2301.446	206.79167
2303.978	194.45833
2306.508	188.79167
2309.037	199.125
2311.563	189.79167
2314.088	190.79167
2316.612	173.45833
2319.133	190.45833
2321.653	184.45833
2324.171	180.125
2326.688	197.79167
2329.202	186.45833
2331.715	188.45833
2334.227	188.79167
2336.736	181.125
2339.244	178.125
2341.751	175.125
2344.255	188.79167
2346.758	183.45833
2349.259	176.45833
2351.759	185.125
2354.257	170.79167
2356.753	172.79167
2359.247	174.79167
2361.74	174.45833
2364.231	179.79167
2366.721	182.125
2369.209	169.79167
2371.695	171.45833
2374.179	166.125
2376.662	158.45833
2379.143	186.45833
2381.622	175.125
2384.1	173.125
2386.576	174.79167
2389.051	179.79167
2391.524	184.45833
2393.995	176.45833
2396.464	172.125
2398.932	166.45833
2401.398	173.45833
2403.863	162.45833
2406.325	168.79167
2408.787	169.79167
2411.246	165.45833
2413.704	164.125
2416.16	156.125
2418.615	162.79167
2421.068	172.125
2423.519	165.79167
2425.969	156.125
2428.417	171.125
2430.863	186.79167
2433.308	173.125
2435.751	163.79167
2438.193	162.79167
2440.633	166.79167
2443.071	167.125
2445.508	160.125
2447.943	162.79167
2450.376	158.79167
2452.808	168.79167
2455.238	153.125
2457.667	180.125
2460.093	149.79167
2462.519	141.125
2464.942	151.79167
2467.365	160.45833
2469.785	160.79167
2472.204	152.45833
2474.621	160.125
2477.037	171.45833
2479.451	146.125
2481.863	144.45833
2484.274	146.125
2486.683	152.45833
2489.091	167.125
2491.497	151.125
2493.901	155.125
2496.304	151.125
2498.705	163.79167
2501.105	159.45833
2503.503	176.125
2505.899	146.125
2508.294	168.79167
2510.687	146.45833
2513.079	150.45833
2515.469	143.79167
2517.858	144.79167
2520.245	160.79167
2522.63	145.125
2525.014	145.79167
2527.396	145.125
2529.776	140.45833
2532.156	149.79167
2534.533	139.79167
2536.909	139.45833
2539.283	126.125
2541.656	138.125
2544.027	151.45833
2546.397	149.79167
2548.765	141.79167
2551.131	144.79167
2553.496	148.45833
2555.86	147.79167
2558.221	149.125
2560.582	138.45833
2562.94	131.79167
2565.298	143.45833
2567.653	151.125
2570.007	132.45833
2572.36	150.125
2574.711	130.45833
2577.06	155.125
2579.408	143.79167
2581.754	138.79167
2584.099	140.45833
2586.442	139.45833
2588.784	141.45833
2591.124	140.125
2593.463	134.79167
2595.8	141.45833
2598.135	123.79167
2600.469	134.45833
2602.802	146.79167
2605.133	145.79167
2607.462	131.45833
2609.79	126.125
2612.116	143.79167
2614.441	130.79167
2616.764	140.45833
2619.086	135.125
2621.406	133.79167
2623.725	146.45833
2626.042	129.79167
2628.358	126.125
2630.672	137.125
2632.985	142.79167
2635.296	136.125
2637.606	135.45833
2639.914	128.79167
2642.22	133.125
2644.525	135.125
2646.829	135.45833
2649.131	148.45833
2651.432	139.125
2653.731	123.45833
2656.028	142.79167
2658.324	141.45833
2660.619	123.45833
2662.912	142.125
2665.204	121.125
2667.494	139.45833
2669.782	126.45833
2672.07	144.79167
2674.355	145.79167
2676.639	134.79167
2678.922	132.125
2681.203	133.45833
2683.483	123.79167
2685.761	119.125
2688.038	136.125
2690.313	138.45833
2692.587	130.125
2694.859	127.79167
2697.13	131.45833
2699.399	131.125
2701.667	148.125
2703.933	133.125
2706.198	145.125
2708.461	143.125
2710.723	142.79167
2712.984	137.79167
2715.243	140.125
2717.5	134.45833
2719.757	148.125
2722.011	136.79167
2724.264	142.79167
2726.516	149.125
2728.766	133.125
2731.015	132.79167
2733.262	134.45833
2735.508	135.125
2737.753	147.125
2739.996	121.45833
2742.237	123.125
2744.477	139.45833
2746.716	148.45833
2748.953	145.125
2751.189	141.79167
2753.423	137.125
2755.656	127.125
2757.887	124.45833
2760.117	134.45833
2762.346	124.45833
2764.573	118.125
2766.798	122.45833
2769.022	129.45833
2771.245	123.45833
2773.467	126.45833
2775.686	131.125
2777.905	132.79167
2780.122	125.79167
2782.337	135.125
2784.552	121.79167
2786.764	131.79167
2788.976	117.45833
2791.186	128.45833
2793.394	126.79167
2795.601	137.45833
2797.807	136.125
2800.011	134.45833
2802.214	139.125
2804.415	132.79167
2806.615	132.125
2808.814	137.125
2811.011	142.79167
2813.206	144.79167
2815.401	154.79167
2817.594	147.125
2819.785	153.125
2821.975	139.79167
2824.164	151.45833
2826.351	142.45833
2828.537	160.125
2830.722	161.45833
2832.905	154.79167
2835.086	159.125
2837.267	179.79167
2839.445	172.45833
2841.623	172.79167
2843.799	184.125
2845.974	190.125
2848.147	187.125
2850.319	204.79167
2852.489	207.79167
2854.659	207.79167
2856.826	212.125
2858.993	234.45833
2861.158	205.125
2863.321	216.79167
2865.483	230.125
2867.644	222.45833
2869.804	215.125
2871.962	211.45833
2874.118	221.45833
2876.274	224.79167
2878.428	222.45833
2880.58	218.45833
2882.731	209.45833
2884.881	221.45833
2887.03	227.45833
2889.177	223.125
2891.322	229.79167
2893.467	218.79167
2895.61	214.79167
2897.751	230.79167
2899.892	217.79167
2902.03	231.79167
2904.168	228.79167
2906.304	223.79167
2908.439	247.125
2910.572	221.125
2912.704	230.45833
2914.835	243.125
2916.965	231.45833
2919.093	251.79167
2921.219	220.79167
2923.345	245.79167
2925.469	228.125
2927.591	227.45833
2929.712	212.125
2931.832	224.45833
2933.951	218.125
2936.068	209.79167
2938.184	211.125
2940.299	203.79167
2942.412	201.45833
2944.524	178.125
2946.634	196.125
2948.744	168.125
2950.851	204.45833
2952.958	171.125
2955.063	173.45833
2957.167	161.125
2959.269	154.45833
2961.371	182.125
2963.471	152.79167
2965.569	168.79167
2967.666	148.79167
2969.762	145.79167
2971.857	143.45833
2973.95	134.79167
2976.042	143.45833
2978.133	133.45833
2980.222	136.125
2982.31	125.125
2984.396	108.125
2986.482	120.125
2988.566	120.45833
2990.648	124.45833
2992.73	119.79167
2994.81	114.45833
2996.889	123.79167
2998.966	112.79167
3001.042	126.79167
3003.117	111.45833
3005.191	117.125
3007.263	122.79167
3009.334	111.45833
3011.403	117.79167
3013.472	107.79167
3015.539	126.45833
3017.604	133.125
3019.669	97.79167
3021.732	106.45833
3023.794	108.125
3025.854	102.45833
3027.914	94.125
3029.971	100.79167
3032.028	104.125
3034.083	108.45833
3036.137	103.125
3038.19	90.45833
3040.242	87.79167
3042.292	85.125
3044.341	100.125
3046.388	108.125
3048.435	84.125
3050.48	107.125
3052.524	92.125
3054.566	81.79167
3056.607	92.79167
3058.647	88.45833
3060.686	79.79167
3062.723	72.125
3064.759	78.45833
3066.794	-1.875
3068.828	1.45833
3070.86	1.79167
