-0.839	149.54167
3.438	167.20833
7.711	68.54167
11.981	44.20833
16.247	32.20833
20.509	36.875
24.768	34.54167
29.024	42.54167
33.276	32.875
37.524	43.20833
41.769	31.54167
46.01	26.875
50.247	45.54167
54.481	52.54167
58.712	53.20833
62.939	33.20833
67.162	56.20833
71.382	41.875
75.599	37.20833
79.812	41.20833
84.021	66.875
88.227	40.54167
92.429	47.54167
96.628	38.20833
100.823	50.875
105.015	53.54167
109.204	43.875
113.388	55.20833
117.57	43.20833
121.748	56.20833
125.922	48.20833
130.093	62.54167
134.261	64.54167
138.425	51.875
142.585	83.54167
146.742	63.875
150.896	77.875
155.046	72.875
159.193	114.54167
163.336	162.20833
167.476	284.54167
171.613	502.54167
175.746	817.875
179.875	1173.54167
184.002	1507.20833
188.124	1777.875
192.244	1868.20833
196.36	1859.54167
200.472	1837.54167
204.581	1818.875
208.687	1753.54167
212.79	1733.875
216.889	1738.54167
220.984	1771.875
225.077	1780.875
229.165	1760.20833
233.251	1778.875
237.333	1757.54167
241.412	1726.875
245.487	1738.875
249.559	1703.54167
253.628	1691.54167
257.694	1680.875
261.756	1679.54167
265.814	1649.54167
269.87	1571.20833
273.922	1528.20833
277.97	1514.20833
282.016	1525.875
286.058	1503.20833
290.097	1538.54167
294.132	1539.20833
298.164	1526.875
302.193	1471.20833
306.219	1400.875
310.241	1307.54167
314.26	1207.875
318.276	1142.20833
322.288	1101.875
326.297	1066.875
330.303	1037.54167
334.305	1019.54167
338.305	1025.875
342.301	992.20833
346.294	980.54167
350.283	976.875
354.269	974.54167
358.252	974.875
362.232	977.54167
366.209	968.875
370.182	950.54167
374.152	962.54167
378.119	969.875
382.083	946.54167
386.043	973.54167
390	941.875
393.954	968.54167
397.905	956.875
401.852	973.54167
405.797	944.54167
409.738	947.20833
413.676	956.20833
417.61	958.875
421.542	942.875
425.47	913.20833
429.396	930.20833
433.318	916.54167
437.236	922.54167
441.152	937.875
445.065	901.20833
448.974	904.875
452.88	900.20833
456.783	899.20833
460.683	886.875
464.58	887.54167
468.473	908.875
472.364	897.875
476.251	901.875
480.135	914.20833
484.016	923.20833
487.894	923.54167
491.769	917.54167
495.641	905.54167
499.509	909.20833
503.375	921.875
507.237	904.875
511.096	916.20833
514.952	914.54167
518.805	910.20833
522.655	906.20833
526.502	908.54167
530.346	918.20833
534.187	910.875
538.024	911.54167
541.859	898.20833
545.69	933.875
549.519	909.20833
553.344	913.54167
557.166	879.20833
560.985	879.54167
564.802	887.54167
568.615	869.20833
572.425	856.20833
576.232	861.20833
580.036	856.54167
583.836	874.875
587.634	877.20833
591.429	868.20833
595.221	908.875
599.01	886.875
602.796	886.875
606.578	891.875
610.358	889.54167
614.135	892.20833
617.909	895.54167
621.679	877.54167
625.447	878.54167
629.212	877.20833
632.973	879.20833
636.732	875.54167
640.488	882.20833
644.241	861.875
647.991	860.20833
651.737	881.54167
655.481	857.20833
659.222	863.875
662.96	853.875
666.695	868.20833
670.427	868.875
674.156	871.54167
677.882	887.20833
681.605	874.54167
685.325	861.54167
689.043	885.20833
692.757	860.875
696.468	856.875
700.177	863.20833
703.882	851.20833
707.585	837.54167
711.284	854.20833
714.981	834.54167
718.675	842.875
722.366	851.875
726.054	838.54167
729.739	845.875
733.421	845.20833
737.1	854.875
740.777	867.20833
744.45	845.875
748.121	848.54167
751.789	886.875
755.453	876.54167
759.115	874.875
762.774	871.20833
766.431	876.20833
770.084	877.875
773.734	872.54167
777.382	903.54167
781.027	902.20833
784.669	907.54167
788.308	889.20833
791.944	912.875
795.577	926.875
799.208	917.20833
802.835	912.875
806.46	925.20833
810.082	937.20833
813.701	923.54167
817.317	943.875
820.931	939.20833
824.542	948.54167
828.149	924.54167
831.754	909.20833
835.357	910.20833
838.956	918.875
842.553	915.20833
846.146	919.875
849.737	886.20833
853.326	903.20833
856.911	890.20833
860.493	913.20833
864.073	915.875
867.65	927.54167
871.225	941.54167
874.796	923.54167
878.365	920.54167
881.931	917.875
885.494	933.875
889.054	926.20833
892.612	933.875
896.166	927.54167
899.719	912.54167
903.268	884.20833
906.814	901.20833
910.358	898.54167
913.899	892.54167
917.438	880.20833
920.973	862.875
924.506	875.875
928.036	896.20833
931.564	913.20833
935.088	928.54167
938.61	908.20833
942.129	910.54167
945.646	923.54167
949.16	934.20833
952.671	948.875
956.179	967.20833
959.685	948.875
963.188	964.54167
966.688	937.875
970.185	911.54167
973.68	899.20833
977.173	890.54167
980.662	879.875
984.149	892.54167
987.633	860.54167
991.114	874.875
994.593	894.54167
998.069	915.54167
1001.542	935.20833
1005.013	928.875
1008.481	862.875
1011.947	855.20833
1015.409	850.54167
1018.869	853.54167
1022.327	860.875
1025.782	846.54167
1029.234	825.54167
1032.683	830.875
1036.13	817.20833
1039.574	785.875
1043.016	769.875
1046.455	760.20833
1049.891	742.54167
1053.325	762.20833
1056.756	751.54167
1060.184	763.54167
1063.61	736.875
1067.033	750.875
1070.454	744.54167
1073.872	780.54167
1077.287	752.875
1080.7	751.54167
1084.11	752.20833
1087.517	758.54167
1090.922	747.54167
1094.325	732.875
1097.724	733.20833
1101.122	725.54167
1104.516	728.875
1107.908	715.54167
1111.298	737.54167
1114.684	746.875
1118.069	742.20833
1121.45	757.875
1124.83	738.875
1128.206	748.875
1131.58	754.54167
1134.951	795.875
1138.32	789.20833
1141.687	828.875
1145.05	827.20833
1148.412	840.875
1151.77	841.875
1155.126	833.20833
1158.48	816.20833
1161.831	833.54167
1165.18	819.875
1168.525	833.54167
1171.869	853.875
1175.21	835.54167
1178.548	866.20833
1181.884	872.54167
1185.217	882.54167
1188.548	901.875
1191.877	916.875
1195.202	956.20833
1198.526	963.20833
1201.846	965.20833
1205.165	976.20833
1208.48	984.875
1211.794	981.20833
1215.104	966.875
1218.413	966.875
1221.719	967.20833
1225.022	955.54167
1228.323	926.875
1231.621	941.20833
1234.917	938.20833
1238.21	948.875
1241.501	929.54167
1244.79	923.875
1248.076	895.875
1251.359	918.54167
1254.64	966.875
1257.919	935.54167
1261.195	952.20833
1264.468	963.875
1267.74	972.875
1271.008	982.54167
1274.275	993.875
1277.538	967.20833
1280.8	963.875
1284.059	968.875
1287.315	985.54167
1290.569	977.20833
1293.821	989.20833
1297.07	990.20833
1300.317	1004.875
1303.562	1001.875
1306.803	996.20833
1310.043	995.20833
1313.28	981.875
1316.515	975.20833
1319.747	978.875
1322.977	967.875
1326.204	957.875
1329.429	943.20833
1332.652	946.54167
1335.872	955.54167
1339.09	919.20833
1342.306	910.875
1345.519	913.20833
1348.729	913.875
1351.938	927.875
1355.144	904.875
1358.347	899.54167
1361.548	903.875
1364.747	894.875
1367.944	876.875
1371.138	896.54167
1374.329	876.54167
1377.518	890.20833
1380.705	889.20833
1383.89	885.54167
1387.072	867.875
1390.252	846.875
1393.429	808.20833
1396.605	792.20833
1399.777	760.875
1402.948	764.875
1406.116	739.54167
1409.282	758.875
1412.445	763.54167
1415.606	756.875
1418.765	762.875
1421.921	784.54167
1425.075	783.54167
1428.227	794.875
1431.376	838.54167
1434.524	855.54167
1437.668	885.20833
1440.811	898.20833
1443.951	896.54167
1447.089	911.875
1450.224	910.20833
1453.357	900.20833
1456.488	896.20833
1459.617	876.54167
1462.743	874.20833
1465.867	842.20833
1468.989	853.54167
1472.108	825.54167
1475.225	819.875
1478.34	798.54167
1481.453	792.875
1484.563	788.20833
1487.671	810.20833
1490.776	818.875
1493.88	825.20833
1496.981	835.20833
1500.08	856.54167
1503.176	847.875
1506.271	857.875
1509.363	868.875
1512.452	868.20833
1515.54	888.20833
1518.625	890.54167
1521.708	945.20833
1524.789	949.875
1527.867	967.875
1530.944	1015.20833
1534.018	1048.54167
1537.089	1107.54167
1540.159	1102.20833
1543.226	1113.20833
1546.291	1091.20833
1549.354	1076.20833
1552.415	1046.20833
1555.473	1033.20833
1558.529	1019.875
1561.583	1014.875
1564.634	997.20833
1567.684	1004.875
1570.731	988.20833
1573.776	997.20833
1576.819	1020.54167
1579.859	1030.20833
1582.898	1033.875
1585.934	1042.20833
1588.968	1051.54167
1591.999	1031.20833
1595.029	1038.875
1598.056	1046.875
1601.081	1063.54167
1604.104	1055.875
1607.125	1031.875
1610.144	1022.20833
1613.16	998.20833
1616.174	974.20833
1619.186	955.875
1622.196	929.875
1625.203	921.875
1628.209	916.54167
1631.212	894.875
1634.213	902.875
1637.212	912.54167
1640.209	914.54167
1643.203	874.54167
1646.196	856.54167
1649.186	831.20833
1652.174	811.54167
1655.16	773.20833
1658.144	763.875
1661.125	727.20833
1664.105	709.875
1667.082	679.54167
1670.057	632.20833
1673.03	606.54167
1676.001	569.20833
1678.97	532.54167
1681.937	516.54167
1684.901	490.875
1687.863	478.875
1690.824	450.54167
1693.782	453.54167
1696.738	415.875
1699.692	422.20833
1702.643	414.20833
1705.593	397.54167
1708.54	403.54167
1711.486	412.20833
1714.429	387.20833
1717.37	401.875
1720.309	386.54167
1723.246	400.20833
1726.181	376.54167
1729.113	375.54167
1732.044	376.54167
1734.972	366.54167
1737.899	383.20833
1740.823	380.54167
1743.745	402.875
1746.665	363.20833
1749.583	350.20833
1752.499	354.20833
1755.413	353.54167
1758.325	331.20833
1761.235	342.54167
1764.142	327.54167
1767.048	334.20833
1769.951	331.54167
1772.852	330.54167
1775.752	333.20833
1778.649	332.54167
1781.544	347.20833
1784.437	309.875
1787.328	328.875
1790.217	325.20833
1793.104	296.54167
1795.989	308.20833
1798.872	294.54167
1801.753	328.54167
1804.631	310.54167
1807.508	317.875
1810.383	320.20833
1813.255	318.875
1816.126	307.54167
1818.994	310.875
1821.861	304.54167
1824.725	315.875
1827.587	308.875
1830.448	304.54167
1833.306	291.20833
1836.162	311.54167
1839.017	299.54167
1841.869	299.20833
1844.719	297.875
1847.567	285.875
1850.414	286.875
1853.258	283.54167
1856.1	291.20833
1858.94	299.20833
1861.778	292.20833
1864.614	281.54167
1867.448	283.20833
1870.28	269.875
1873.111	297.54167
1875.939	289.54167
1878.765	297.54167
1881.589	281.54167
1884.411	281.20833
1887.231	288.54167
1890.049	287.875
1892.865	292.54167
1895.68	275.20833
1898.492	281.54167
1901.302	276.875
1904.11	276.54167
1906.916	274.875
1909.721	279.20833
1912.523	274.875
1915.323	264.54167
1918.122	269.54167
1920.918	285.54167
1923.712	257.54167
1926.505	274.54167
1929.295	249.20833
1932.084	269.20833
1934.87	273.54167
1937.655	259.54167
1940.438	257.875
1943.218	265.20833
1945.997	267.54167
1948.774	270.54167
1951.549	269.875
1954.322	261.875
1957.093	256.20833
1959.862	260.54167
1962.629	260.20833
1965.394	260.20833
1968.157	248.54167
1970.918	267.54167
1973.678	245.20833
1976.435	263.20833
1979.19	253.20833
1981.944	240.20833
1984.696	243.54167
1987.445	248.20833
1990.193	255.875
1992.939	258.20833
1995.683	255.20833
1998.425	233.20833
2001.165	262.20833
2003.903	238.20833
2006.639	248.20833
2009.374	248.20833
2012.106	252.875
2014.837	223.875
2017.566	251.20833
2020.292	243.20833
2023.017	236.875
2025.74	233.875
2028.461	229.875
2031.18	238.875
2033.898	227.54167
2036.613	236.54167
2039.327	243.20833
2042.038	224.54167
2044.748	230.20833
2047.456	250.54167
2050.162	224.875
2052.866	231.875
2055.568	244.20833
2058.268	231.54167
2060.967	239.54167
2063.663	219.54167
2066.358	224.875
2069.051	225.54167
2071.742	230.875
2074.431	236.54167
2077.118	225.20833
2079.804	219.875
2082.487	218.20833
2085.169	237.875
2087.849	248.875
2090.527	226.54167
2093.203	235.875
2095.877	224.20833
2098.55	223.20833
2101.22	234.875
2103.889	243.54167
2106.556	230.54167
2109.221	247.875
2111.884	245.54167
2114.546	266.54167
2117.205	268.875
2119.863	304.54167
2122.519	296.54167
2125.173	321.875
2127.825	354.875
2130.475	351.20833
2133.124	334.54167
2135.771	315.20833
2138.416	323.20833
2141.059	288.875
2143.7	295.875
2146.339	268.875
2148.977	240.20833
2151.613	251.54167
2154.247	251.875
2156.879	237.875
2159.51	229.20833
2162.138	227.54167
2164.765	223.875
2167.39	212.875
2170.013	238.20833
2172.634	233.20833
2175.254	224.20833
2177.872	253.54167
2180.488	211.20833
2183.102	213.20833
2185.714	220.54167
2188.325	199.54167
2190.934	210.875
2193.541	220.54167
2196.146	206.20833
2198.75	195.875
2201.351	194.875
2203.951	187.54167
2206.549	204.875
2209.146	198.54167
2211.74	187.875
2214.333	204.875
2216.924	186.875
2219.514	194.54167
2222.101	192.54167
2224.687	210.54167
2227.271	183.20833
2229.853	187.54167
2232.433	177.875
2235.012	198.54167
2237.589	190.20833
2240.164	203.875
2242.738	182.875
2245.309	180.875
2247.879	194.875
2250.448	193.20833
2253.014	178.20833
2255.579	174.54167
2258.142	180.20833
2260.703	175.875
2263.262	176.875
2265.82	167.875
2268.376	184.20833
2270.93	175.875
2273.483	164.875
2276.033	181.20833
2278.583	169.54167
2281.13	168.20833
2283.675	161.54167
2286.219	167.875
2288.761	174.20833
2291.302	172.54167
2293.841	185.875
2296.377	166.875
2298.913	165.875
2301.446	177.875
2303.978	171.875
2306.508	169.54167
2309.037	172.54167
2311.563	169.875
2314.088	169.875
2316.612	153.875
2319.133	170.54167
2321.653	171.20833
2324.171	160.54167
2326.688	178.20833
2329.202	167.20833
2331.715	168.875
2334.227	164.20833
2336.736	161.54167
2339.244	163.54167
2341.751	150.54167
2344.255	171.20833
2346.758	163.875
2349.259	152.54167
2351.759	162.54167
2354.257	154.20833
2356.753	149.20833
2359.247	152.875
2361.74	158.54167
2364.231	160.54167
2366.721	156.20833
2369.209	154.54167
2371.695	148.20833
2374.179	154.54167
2376.662	145.54167
2379.143	159.875
2381.622	154.875
2384.1	159.20833
2386.576	151.20833
2389.051	162.54167
2391.524	163.54167
2393.995	164.54167
2396.464	152.20833
2398.932	146.20833
2401.398	154.20833
2403.863	141.54167
2406.325	146.54167
2408.787	155.875
2411.246	148.875
2413.704	147.54167
2416.16	146.54167
2418.615	149.54167
2421.068	149.20833
2423.519	150.875
2425.969	136.875
2428.417	161.20833
2430.863	170.20833
2433.308	156.20833
2435.751	152.20833
2438.193	146.54167
2440.633	146.54167
2443.071	151.54167
2445.508	143.20833
2447.943	142.20833
2450.376	144.20833
2452.808	151.20833
2455.238	136.20833
2457.667	170.54167
2460.093	134.875
2462.519	132.54167
2464.942	135.875
2467.365	142.54167
2469.785	144.54167
2472.204	135.54167
2474.621	139.875
2477.037	158.875
2479.451	128.875
2481.863	130.54167
2484.274	128.54167
2486.683	137.875
2489.091	149.20833
2491.497	140.54167
2493.901	134.20833
2496.304	139.875
2498.705	148.54167
2501.105	136.54167
2503.503	160.875
2505.899	125.54167
2508.294	150.54167
2510.687	132.20833
2513.079	134.54167
2515.469	126.875
2517.858	131.20833
2520.245	150.875
2522.63	133.20833
2525.014	130.54167
2527.396	128.20833
2529.776	130.54167
2532.156	139.20833
2534.533	122.20833
2536.909	126.20833
2539.283	119.54167
2541.656	124.54167
2544.027	146.20833
2546.397	137.20833
2548.765	121.875
2551.131	131.875
2553.496	137.54167
2555.86	135.875
2558.221	140.54167
2560.582	121.875
2562.94	117.20833
2565.298	129.54167
2567.653	142.20833
2570.007	117.20833
2572.36	136.20833
2574.711	123.20833
2577.06	140.875
2579.408	126.54167
2581.754	123.20833
2584.099	125.54167
2586.442	126.20833
2588.784	134.875
2591.124	123.875
2593.463	127.20833
2595.8	128.20833
2598.135	120.54167
2600.469	116.54167
2602.802	135.54167
2605.133	133.54167
2607.462	120.54167
2609.79	118.20833
2612.116	129.875
2614.441	122.54167
2616.764	129.54167
2619.086	121.54167
2621.406	119.54167
2623.725	133.20833
2626.042	123.20833
2628.358	117.875
2630.672	124.54167
2632.985	130.875
2635.296	128.20833
2637.606	121.875
2639.914	114.20833
2642.22	118.875
2644.525	117.54167
2646.829	128.20833
2649.131	132.54167
2651.432	129.875
2653.731	123.20833
2656.028	130.54167
2658.324	130.54167
2660.619	116.20833
2662.912	130.875
2665.204	109.20833
2667.494	126.54167
2669.782	111.875
2672.07	129.875
2674.355	133.875
2676.639	121.875
2678.922	121.20833
2681.203	129.20833
2683.483	117.875
2685.761	114.875
2688.038	131.54167
2690.313	138.20833
2692.587	128.54167
2694.859	117.54167
2697.13	121.875
2699.399	126.20833
2701.667	129.54167
2703.933	123.875
2706.198	138.20833
2708.461	133.20833
2710.723	133.54167
2712.984	127.20833
2715.243	134.20833
2717.5	125.54167
2719.757	129.875
2722.011	126.54167
2724.264	139.20833
2726.516	140.20833
2728.766	120.20833
2731.015	129.875
2733.262	129.54167
2735.508	122.20833
2737.753	128.20833
2739.996	118.20833
2742.237	123.54167
2744.477	137.54167
2746.716	137.20833
2748.953	135.875
2751.189	132.54167
2753.423	131.54167
2755.656	118.54167
2757.887	120.54167
2760.117	124.20833
2762.346	114.20833
2764.573	104.54167
2766.798	114.875
2769.022	122.54167
2771.245	112.54167
2773.467	120.875
2775.686	117.875
2777.905	127.54167
2780.122	118.54167
2782.337	125.20833
2784.552	118.54167
2786.764	123.54167
2788.976	119.875
2791.186	124.20833
2793.394	123.54167
2795.601	125.875
2797.807	129.54167
2800.011	126.54167
2802.214	134.875
2804.415	126.875
2806.615	125.54167
2808.814	130.875
2811.011	137.875
2813.206	139.54167
2815.401	150.875
2817.594	142.20833
2819.785	149.20833
2821.975	133.20833
2824.164	143.54167
2826.351	137.875
2828.537	156.54167
2830.722	151.875
2832.905	148.875
2835.086	150.20833
2837.267	178.54167
2839.445	172.54167
2841.623	171.54167
2843.799	168.875
2845.974	181.54167
2848.147	179.875
2850.319	196.54167
2852.489	204.20833
2854.659	200.875
2856.826	205.54167
2858.993	225.20833
2861.158	201.20833
2863.321	203.875
2865.483	224.54167
2867.644	221.875
2869.804	216.20833
2871.962	211.54167
2874.118	213.54167
2876.274	215.54167
2878.428	212.875
2880.58	223.875
2882.731	205.54167
2884.881	217.54167
2887.03	220.875
2889.177	209.875
2891.322	224.54167
2893.467	211.875
2895.61	209.54167
2897.751	222.875
2899.892	209.875
2902.03	219.875
2904.168	218.54167
2906.304	211.875
2908.439	240.54167
2910.572	214.20833
2912.704	221.875
2914.835	230.875
2916.965	219.875
2919.093	240.875
2921.219	212.20833
2923.345	240.875
2925.469	223.54167
2927.591	218.20833
2929.712	203.875
2931.832	217.875
2933.951	206.20833
2936.068	206.875
2938.184	200.20833
2940.299	193.875
2942.412	189.54167
2944.524	175.20833
2946.634	181.54167
2948.744	160.20833
2950.851	196.54167
2952.958	165.20833
2955.063	168.875
2957.167	161.54167
2959.269	148.54167
2961.371	177.875
2963.471	147.54167
2965.569	166.54167
2967.666	138.20833
2969.762	134.875
2971.857	130.20833
2973.95	130.54167
2976.042	141.20833
2978.133	130.54167
2980.222	134.875
2982.31	113.54167
2984.396	106.20833
2986.482	113.54167
2988.566	117.54167
2990.648	114.875
2992.73	114.54167
2994.81	101.54167
2996.889	119.875
2998.966	108.54167
3001.042	122.54167
3003.117	108.54167
3005.191	112.20833
3007.263	117.875
3009.334	111.875
3011.403	114.875
3013.472	102.20833
3015.539	120.875
3017.604	127.875
3019.669	95.20833
3021.732	103.54167
3023.794	103.875
3025.854	91.54167
3027.914	90.54167
3029.971	97.54167
3032.028	98.875
3034.083	102.20833
3036.137	102.54167
3038.19	92.20833
3040.242	83.54167
3042.292	84.20833
3044.341	90.20833
3046.388	107.54167
3048.435	85.20833
3050.48	103.54167
3052.524	93.20833
3054.566	78.20833
3056.607	91.20833
3058.647	85.875
3060.686	73.54167
3062.723	75.20833
3064.759	70.875
3066.794	-0.45833
3068.828	0.20833
3070.86	2.54167
