-0.839	145.79167
3.438	164.45833
7.711	68.79167
11.981	45.79167
16.247	32.79167
20.509	41.45833
24.768	37.45833
29.024	44.45833
33.276	32.125
37.524	40.125
41.769	32.45833
46.01	27.79167
50.247	45.45833
54.481	52.125
58.712	53.125
62.939	37.125
67.162	53.79167
71.382	42.45833
75.599	36.79167
79.812	41.45833
84.021	63.45833
88.227	42.125
92.429	50.79167
96.628	38.125
100.823	52.79167
105.015	52.125
109.204	47.45833
113.388	59.45833
117.57	48.45833
121.748	60.45833
125.922	52.125
130.093	69.125
134.261	66.45833
138.425	56.125
142.585	88.125
146.742	69.45833
150.896	88.125
155.046	80.125
159.193	121.125
163.336	177.125
167.476	313.45833
171.613	582.45833
175.746	929.79167
179.875	1373.125
184.002	1777.125
188.124	2117.79167
192.244	2190.79167
196.36	2244.79167
200.472	2226.125
204.581	2195.125
208.687	2142.125
212.79	2139.125
216.889	2133.79167
220.984	2170.125
225.077	2190.79167
229.165	2188.125
233.251	2171.125
237.333	2177.125
241.412	2187.45833
245.487	2169.45833
249.559	2124.125
253.628	2115.125
257.694	2113.79167
261.756	2103.125
265.814	2063.45833
269.87	2006.125
273.922	1946.125
277.97	1939.45833
282.016	1939.45833
286.058	1912.79167
290.097	1953.79167
294.132	1964.125
298.164	1953.125
302.193	1891.125
306.219	1780.125
310.241	1712.45833
314.26	1621.79167
318.276	1560.125
322.288	1525.45833
326.297	1483.45833
330.303	1464.125
334.305	1447.125
338.305	1438.125
342.301	1440.125
346.294	1426.45833
350.283	1436.45833
354.269	1413.125
358.252	1399.125
362.232	1401.45833
366.209	1418.79167
370.182	1404.125
374.152	1394.79167
378.119	1398.79167
382.083	1388.79167
386.043	1428.125
390	1394.79167
393.954	1420.125
397.905	1419.45833
401.852	1427.45833
405.797	1405.125
409.738	1401.125
413.676	1425.125
417.61	1432.125
421.542	1416.45833
425.47	1409.45833
429.396	1405.125
433.318	1389.45833
437.236	1391.79167
441.152	1428.45833
445.065	1370.45833
448.974	1378.45833
452.88	1372.45833
456.783	1347.45833
460.683	1372.45833
464.58	1380.79167
468.473	1386.125
472.364	1365.79167
476.251	1382.79167
480.135	1377.125
484.016	1396.79167
487.894	1394.125
491.769	1399.125
495.641	1392.79167
499.509	1396.45833
503.375	1423.79167
507.237	1387.125
511.096	1398.45833
514.952	1389.79167
518.805	1395.79167
522.655	1410.125
526.502	1391.45833
530.346	1398.79167
534.187	1394.45833
538.024	1386.125
541.859	1381.79167
545.69	1403.79167
549.519	1399.79167
553.344	1386.79167
557.166	1380.79167
560.985	1365.45833
564.802	1358.45833
568.615	1363.125
572.425	1312.79167
576.232	1313.45833
580.036	1325.125
583.836	1333.45833
587.634	1331.79167
591.429	1339.79167
595.221	1367.125
599.01	1363.125
602.796	1344.125
606.578	1374.45833
610.358	1372.79167
614.135	1367.45833
617.909	1365.45833
621.679	1347.45833
625.447	1349.45833
629.212	1342.125
632.973	1351.45833
636.732	1335.45833
640.488	1325.45833
644.241	1306.45833
647.991	1315.45833
651.737	1336.79167
655.481	1302.79167
659.222	1314.125
662.96	1319.125
666.695	1341.79167
670.427	1337.79167
674.156	1329.45833
677.882	1337.79167
681.605	1334.45833
685.325	1305.45833
689.043	1337.45833
692.757	1325.79167
696.468	1316.125
700.177	1300.45833
703.882	1293.125
707.585	1284.45833
711.284	1299.125
714.981	1269.45833
718.675	1267.79167
722.366	1279.45833
726.054	1264.125
729.739	1259.79167
733.421	1278.125
737.1	1266.125
740.777	1276.125
744.45	1267.79167
748.121	1284.79167
751.789	1299.125
755.453	1275.45833
759.115	1289.125
762.774	1289.45833
766.431	1287.45833
770.084	1294.125
773.734	1283.79167
777.382	1296.45833
781.027	1310.79167
784.669	1297.45833
788.308	1306.125
791.944	1305.79167
795.577	1326.125
799.208	1315.79167
802.835	1320.125
806.46	1335.79167
810.082	1329.79167
813.701	1336.45833
817.317	1364.125
820.931	1351.45833
824.542	1342.125
828.149	1316.79167
831.754	1292.45833
835.357	1299.79167
838.956	1318.125
842.553	1305.125
846.146	1279.79167
849.737	1261.125
853.326	1264.125
856.911	1241.45833
860.493	1284.45833
864.073	1274.79167
867.65	1294.79167
871.225	1294.79167
874.796	1289.45833
878.365	1278.125
881.931	1288.125
885.494	1299.45833
889.054	1298.45833
892.612	1285.79167
896.166	1265.79167
899.719	1250.45833
903.268	1236.45833
906.814	1249.45833
910.358	1235.125
913.899	1224.125
917.438	1224.125
920.973	1213.79167
924.506	1212.79167
928.036	1237.79167
931.564	1252.45833
935.088	1269.79167
938.61	1260.125
942.129	1244.45833
945.646	1266.45833
949.16	1265.79167
952.671	1268.45833
956.179	1302.79167
959.685	1292.45833
963.188	1307.125
966.688	1275.45833
970.185	1250.125
973.68	1223.79167
977.173	1211.125
980.662	1198.45833
984.149	1217.45833
987.633	1184.45833
991.114	1203.45833
994.593	1237.125
998.069	1235.79167
1001.542	1265.79167
1005.013	1239.79167
1008.481	1177.125
1011.947	1179.125
1015.409	1168.79167
1018.869	1174.45833
1022.327	1176.79167
1025.782	1147.125
1029.234	1154.45833
1032.683	1130.79167
1036.13	1109.125
1039.574	1080.125
1043.016	1054.125
1046.455	1045.125
1049.891	1016.79167
1053.325	1046.125
1056.756	1020.79167
1060.184	1044.125
1063.61	1023.79167
1067.033	1043.45833
1070.454	1024.125
1073.872	1059.45833
1077.287	1024.45833
1080.7	1042.125
1084.11	1027.79167
1087.517	1026.79167
1090.922	1015.125
1094.325	1003.79167
1097.724	1004.79167
1101.122	992.45833
1104.516	986.125
1107.908	966.79167
1111.298	981.45833
1114.684	986.45833
1118.069	1002.79167
1121.45	1009.79167
1124.83	988.45833
1128.206	1017.45833
1131.58	1016.45833
1134.951	1042.45833
1138.32	1056.125
1141.687	1090.79167
1145.05	1104.125
1148.412	1102.45833
1151.77	1076.125
1155.126	1076.125
1158.48	1078.45833
1161.831	1082.45833
1165.18	1073.45833
1168.525	1094.45833
1171.869	1103.45833
1175.21	1107.45833
1178.548	1110.79167
1181.884	1118.45833
1185.217	1115.79167
1188.548	1136.125
1191.877	1153.45833
1195.202	1199.45833
1198.526	1221.79167
1201.846	1207.45833
1205.165	1228.125
1208.48	1228.79167
1211.794	1217.45833
1215.104	1218.125
1218.413	1203.79167
1221.719	1203.79167
1225.022	1182.45833
1228.323	1182.79167
1231.621	1194.79167
1234.917	1165.79167
1238.21	1191.45833
1241.501	1161.79167
1244.79	1148.45833
1248.076	1138.125
1251.359	1153.45833
1254.64	1192.79167
1257.919	1172.125
1261.195	1201.125
1264.468	1200.45833
1267.74	1211.45833
1271.008	1223.125
1274.275	1229.79167
1277.538	1220.125
1280.8	1218.79167
1284.059	1200.45833
1287.315	1216.45833
1290.569	1221.125
1293.821	1232.79167
1297.07	1230.125
1300.317	1222.79167
1303.562	1221.45833
1306.803	1214.125
1310.043	1209.79167
1313.28	1197.79167
1316.515	1184.79167
1319.747	1204.45833
1322.977	1196.45833
1326.204	1188.125
1329.429	1166.125
1332.652	1181.45833
1335.872	1184.79167
1339.09	1157.45833
1342.306	1154.125
1345.519	1155.79167
1348.729	1154.125
1351.938	1153.125
1355.144	1124.125
1358.347	1120.45833
1361.548	1131.125
1364.747	1124.125
1367.944	1099.79167
1371.138	1094.45833
1374.329	1105.125
1377.518	1102.79167
1380.705	1105.45833
1383.89	1111.45833
1387.072	1078.125
1390.252	1052.45833
1393.429	1023.45833
1396.605	1012.125
1399.777	965.125
1402.948	975.45833
1406.116	958.45833
1409.282	958.125
1412.445	952.79167
1415.606	944.125
1418.765	946.79167
1421.921	965.79167
1425.075	981.125
1428.227	1003.79167
1431.376	1023.45833
1434.524	1057.79167
1437.668	1085.79167
1440.811	1089.79167
1443.951	1109.125
1447.089	1109.125
1450.224	1102.79167
1453.357	1085.79167
1456.488	1069.45833
1459.617	1075.125
1462.743	1055.125
1465.867	1030.45833
1468.989	1037.125
1472.108	1027.79167
1475.225	1001.79167
1478.34	1002.79167
1481.453	972.45833
1484.563	990.79167
1487.671	988.125
1490.776	1015.125
1493.88	1009.79167
1496.981	1034.125
1500.08	1033.45833
1503.176	1035.45833
1506.271	1047.79167
1509.363	1062.125
1512.452	1055.125
1515.54	1077.125
1518.625	1076.79167
1521.708	1115.125
1524.789	1139.79167
1527.867	1158.79167
1530.944	1202.125
1534.018	1238.125
1537.089	1295.125
1540.159	1309.79167
1543.226	1307.45833
1546.291	1272.45833
1549.354	1259.125
1552.415	1238.79167
1555.473	1208.79167
1558.529	1201.45833
1561.583	1172.125
1564.634	1174.125
1567.684	1169.125
1570.731	1165.45833
1573.776	1194.79167
1576.819	1180.125
1579.859	1196.79167
1582.898	1200.125
1585.934	1214.45833
1588.968	1230.125
1591.999	1219.125
1595.029	1205.79167
1598.056	1222.45833
1601.081	1241.125
1604.104	1237.45833
1607.125	1226.125
1610.144	1193.125
1613.16	1172.45833
1616.174	1145.125
1619.186	1135.45833
1622.196	1102.45833
1625.203	1085.125
1628.209	1075.79167
1631.212	1080.125
1634.213	1085.125
1637.212	1091.79167
1640.209	1082.125
1643.203	1062.79167
1646.196	1030.125
1649.186	984.45833
1652.174	980.79167
1655.16	940.125
1658.144	930.79167
1661.125	878.125
1664.105	844.79167
1667.082	817.45833
1670.057	774.45833
1673.03	736.79167
1676.001	720.79167
1678.97	672.45833
1681.937	644.45833
1684.901	610.79167
1687.863	605.45833
1690.824	575.45833
1693.782	577.45833
1696.738	548.125
1699.692	541.79167
1702.643	520.125
1705.593	539.79167
1708.54	526.125
1711.486	533.125
1714.429	508.45833
1717.37	515.125
1720.309	508.45833
1723.246	505.45833
1726.181	489.79167
1729.113	501.79167
1732.044	497.125
1734.972	497.45833
1737.899	500.79167
1740.823	496.79167
1743.745	512.45833
1746.665	473.125
1749.583	476.45833
1752.499	473.79167
1755.413	467.125
1758.325	441.125
1761.235	469.45833
1764.142	448.79167
1767.048	452.45833
1769.951	450.125
1772.852	447.79167
1775.752	445.45833
1778.649	446.45833
1781.544	462.79167
1784.437	430.45833
1787.328	434.79167
1790.217	445.79167
1793.104	405.79167
1795.989	418.125
1798.872	413.79167
1801.753	426.79167
1804.631	415.79167
1807.508	432.45833
1810.383	422.45833
1813.255	420.79167
1816.126	408.79167
1818.994	410.79167
1821.861	414.79167
1824.725	411.79167
1827.587	410.45833
1830.448	407.125
1833.306	394.79167
1836.162	411.125
1839.017	400.125
1841.869	396.125
1844.719	401.45833
1847.567	383.125
1850.414	380.45833
1853.258	375.79167
1856.1	394.79167
1858.94	400.79167
1861.778	386.125
1864.614	377.45833
1867.448	388.45833
1870.28	373.79167
1873.111	390.79167
1875.939	376.45833
1878.765	397.125
1881.589	376.125
1884.411	380.45833
1887.231	387.125
1890.049	385.45833
1892.865	396.45833
1895.68	374.45833
1898.492	376.125
1901.302	370.125
1904.11	373.45833
1906.916	378.125
1909.721	365.125
1912.523	375.79167
1915.323	359.125
1918.122	356.125
1920.918	374.125
1923.712	344.125
1926.505	370.45833
1929.295	347.45833
1932.084	366.79167
1934.87	356.79167
1937.655	349.125
1940.438	344.79167
1943.218	353.125
1945.997	347.79167
1948.774	365.45833
1951.549	364.45833
1954.322	342.125
1957.093	348.79167
1959.862	343.125
1962.629	337.125
1965.394	342.45833
1968.157	337.45833
1970.918	352.125
1973.678	334.45833
1976.435	343.125
1979.19	329.125
1981.944	320.79167
1984.696	324.125
1987.445	327.45833
1990.193	332.79167
1992.939	344.45833
1995.683	337.125
1998.425	318.125
2001.165	342.45833
2003.903	311.79167
2006.639	321.125
2009.374	331.79167
2012.106	332.125
2014.837	303.45833
2017.566	333.79167
2020.292	321.125
2023.017	318.45833
2025.74	313.125
2028.461	310.125
2031.18	316.125
2033.898	301.45833
2036.613	314.125
2039.327	316.125
2042.038	299.79167
2044.748	310.125
2047.456	312.45833
2050.162	294.79167
2052.866	304.79167
2055.568	319.79167
2058.268	297.125
2060.967	310.79167
2063.663	298.125
2066.358	296.45833
2069.051	296.45833
2071.742	299.79167
2074.431	310.125
2077.118	297.45833
2079.804	284.125
2082.487	293.45833
2085.169	304.45833
2087.849	322.79167
2090.527	286.79167
2093.203	301.125
2095.877	300.79167
2098.55	294.79167
2101.22	308.79167
2103.889	312.45833
2106.556	298.45833
2109.221	315.79167
2111.884	310.45833
2114.546	327.125
2117.205	340.79167
2119.863	373.125
2122.519	371.45833
2125.173	395.79167
2127.825	419.45833
2130.475	423.125
2133.124	399.45833
2135.771	382.45833
2138.416	389.45833
2141.059	369.125
2143.7	358.45833
2146.339	335.79167
2148.977	311.125
2151.613	326.79167
2154.247	307.79167
2156.879	301.79167
2159.51	292.125
2162.138	291.45833
2164.765	288.45833
2167.39	283.45833
2170.013	305.45833
2172.634	299.45833
2175.254	276.125
2177.872	314.79167
2180.488	271.125
2183.102	275.79167
2185.714	277.45833
2188.325	263.125
2190.934	276.45833
2193.541	275.125
2196.146	259.45833
2198.75	254.79167
2201.351	254.45833
2203.951	247.79167
2206.549	260.79167
2209.146	247.125
2211.74	241.45833
2214.333	254.125
2216.924	241.45833
2219.514	250.79167
2222.101	241.79167
2224.687	258.45833
2227.271	239.45833
2229.853	243.45833
2232.433	228.45833
2235.012	247.45833
2237.589	239.79167
2240.164	262.125
2242.738	234.45833
2245.309	230.125
2247.879	249.125
2250.448	248.45833
2253.014	227.79167
2255.579	219.45833
2258.142	228.79167
2260.703	225.79167
2263.262	222.125
2265.82	217.125
2268.376	233.79167
2270.93	223.79167
2273.483	217.125
2276.033	227.45833
2278.583	216.45833
2281.13	216.125
2283.675	216.125
2286.219	215.45833
2288.761	224.125
2291.302	226.45833
2293.841	229.79167
2296.377	206.45833
2298.913	224.79167
2301.446	228.125
2303.978	225.79167
2306.508	219.125
2309.037	216.125
2311.563	212.125
2314.088	220.45833
2316.612	201.45833
2319.133	212.45833
2321.653	211.125
2324.171	206.45833
2326.688	215.45833
2329.202	212.45833
2331.715	218.79167
2334.227	207.125
2336.736	205.45833
2339.244	202.45833
2341.751	193.45833
2344.255	206.45833
2346.758	202.125
2349.259	197.79167
2351.759	206.125
2354.257	193.125
2356.753	194.79167
2359.247	197.79167
2361.74	194.79167
2364.231	188.45833
2366.721	208.79167
2369.209	195.125
2371.695	201.45833
2374.179	184.79167
2376.662	179.79167
2379.143	204.125
2381.622	191.45833
2384.1	204.125
2386.576	190.45833
2389.051	209.45833
2391.524	196.125
2393.995	198.125
2396.464	187.79167
2398.932	184.79167
2401.398	186.79167
2403.863	188.45833
2406.325	179.125
2408.787	193.125
2411.246	185.79167
2413.704	189.79167
2416.16	178.125
2418.615	178.79167
2421.068	189.125
2423.519	183.79167
2425.969	177.79167
2428.417	193.79167
2430.863	207.45833
2433.308	192.45833
2435.751	190.125
2438.193	189.79167
2440.633	184.125
2443.071	190.79167
2445.508	182.79167
2447.943	180.79167
2450.376	177.45833
2452.808	189.125
2455.238	166.79167
2457.667	210.45833
2460.093	177.45833
2462.519	164.45833
2464.942	170.45833
2467.365	180.45833
2469.785	183.79167
2472.204	173.125
2474.621	175.125
2477.037	195.125
2479.451	170.125
2481.863	162.45833
2484.274	166.125
2486.683	170.45833
2489.091	182.79167
2491.497	177.79167
2493.901	178.45833
2496.304	173.79167
2498.705	184.45833
2501.105	175.125
2503.503	190.125
2505.899	166.125
2508.294	190.45833
2510.687	169.125
2513.079	164.125
2515.469	163.79167
2517.858	159.79167
2520.245	180.79167
2522.63	169.79167
2525.014	162.125
2527.396	163.79167
2529.776	162.125
2532.156	170.125
2534.533	156.79167
2536.909	161.79167
2539.283	151.125
2541.656	157.125
2544.027	172.125
2546.397	166.79167
2548.765	162.45833
2551.131	164.45833
2553.496	169.125
2555.86	166.79167
2558.221	171.125
2560.582	159.79167
2562.94	149.45833
2565.298	162.125
2567.653	168.125
2570.007	152.45833
2572.36	172.45833
2574.711	158.125
2577.06	172.125
2579.408	162.125
2581.754	153.79167
2584.099	158.79167
2586.442	160.125
2588.784	166.125
2591.124	160.45833
2593.463	156.125
2595.8	163.79167
2598.135	146.79167
2600.469	151.125
2602.802	165.79167
2605.133	165.125
2607.462	149.79167
2609.79	152.45833
2612.116	166.45833
2614.441	153.79167
2616.764	159.125
2619.086	152.125
2621.406	147.45833
2623.725	163.45833
2626.042	147.79167
2628.358	150.79167
2630.672	156.79167
2632.985	169.79167
2635.296	162.125
2637.606	151.45833
2639.914	152.45833
2642.22	150.45833
2644.525	158.79167
2646.829	153.125
2649.131	166.125
2651.432	157.125
2653.731	153.79167
2656.028	167.45833
2658.324	160.45833
2660.619	149.79167
2662.912	158.125
2665.204	143.125
2667.494	161.45833
2669.782	147.125
2672.07	167.79167
2674.355	169.45833
2676.639	159.125
2678.922	152.45833
2681.203	161.45833
2683.483	148.125
2685.761	143.79167
2688.038	163.45833
2690.313	165.79167
2692.587	153.45833
2694.859	149.45833
2697.13	153.45833
2699.399	156.79167
2701.667	159.125
2703.933	156.79167
2706.198	165.125
2708.461	162.45833
2710.723	162.45833
2712.984	159.125
2715.243	167.45833
2717.5	160.45833
2719.757	164.79167
2722.011	163.79167
2724.264	164.45833
2726.516	173.45833
2728.766	151.125
2731.015	161.45833
2733.262	159.79167
2735.508	159.79167
2737.753	157.79167
2739.996	152.45833
2742.237	151.45833
2744.477	163.79167
2746.716	173.79167
2748.953	161.79167
2751.189	162.125
2753.423	158.125
2755.656	146.125
2757.887	150.45833
2760.117	151.79167
2762.346	151.79167
2764.573	140.79167
2766.798	147.45833
2769.022	148.79167
2771.245	148.125
2773.467	154.125
2775.686	150.125
2777.905	155.125
2780.122	158.45833
2782.337	157.45833
2784.552	149.45833
2786.764	149.79167
2788.976	151.79167
2791.186	147.79167
2793.394	150.45833
2795.601	160.45833
2797.807	163.79167
2800.011	160.79167
2802.214	166.125
2804.415	167.45833
2806.615	158.45833
2808.814	164.45833
2811.011	168.79167
2813.206	165.45833
2815.401	181.79167
2817.594	174.125
2819.785	173.79167
2821.975	162.79167
2824.164	169.125
2826.351	164.79167
2828.537	178.125
2830.722	191.125
2832.905	178.79167
2835.086	184.79167
2837.267	198.79167
2839.445	204.45833
2841.623	200.79167
2843.799	206.79167
2845.974	214.125
2848.147	210.45833
2850.319	219.79167
2852.489	229.79167
2854.659	230.125
2856.826	237.79167
2858.993	256.79167
2861.158	241.125
2863.321	234.125
2865.483	253.125
2867.644	248.125
2869.804	253.45833
2871.962	244.79167
2874.118	244.125
2876.274	251.125
2878.428	242.79167
2880.58	248.125
2882.731	241.125
2884.881	249.45833
2887.03	248.125
2889.177	248.125
2891.322	252.45833
2893.467	242.45833
2895.61	241.125
2897.751	254.45833
2899.892	249.79167
2902.03	246.79167
2904.168	248.45833
2906.304	246.79167
2908.439	265.79167
2910.572	250.79167
2912.704	254.45833
2914.835	259.45833
2916.965	256.45833
2919.093	275.45833
2921.219	241.125
2923.345	275.79167
2925.469	254.45833
2927.591	245.45833
2929.712	234.45833
2931.832	246.79167
2933.951	240.45833
2936.068	235.79167
2938.184	238.125
2940.299	224.79167
2942.412	221.45833
2944.524	202.79167
2946.634	212.45833
2948.744	193.45833
2950.851	225.45833
2952.958	192.45833
2955.063	199.79167
2957.167	192.45833
2959.269	176.125
2961.371	205.125
2963.471	178.125
2965.569	194.125
2967.666	170.79167
2969.762	165.79167
2971.857	162.79167
2973.95	158.45833
2976.042	165.79167
2978.133	158.79167
2980.222	159.79167
2982.31	149.125
2984.396	136.125
2986.482	143.125
2988.566	150.125
2990.648	149.45833
2992.73	144.45833
2994.81	130.45833
2996.889	142.45833
2998.966	137.45833
3001.042	148.79167
3003.117	137.79167
3005.191	140.125
3007.263	137.125
3009.334	137.125
3011.403	139.125
3013.472	135.79167
3015.539	148.45833
3017.604	152.79167
3019.669	125.79167
3021.732	127.45833
3023.794	137.79167
3025.854	122.125
3027.914	117.125
3029.971	119.79167
3032.028	125.125
3034.083	133.79167
3036.137	128.79167
3038.19	109.45833
3040.242	107.125
3042.292	104.45833
3044.341	111.79167
3046.388	125.79167
3048.435	106.125
3050.48	125.79167
3052.524	116.45833
3054.566	97.45833
3056.607	113.125
3058.647	111.79167
3060.686	97.45833
3062.723	93.125
3064.759	93.45833
3066.794	0.45833
3068.828	-0.54167
3070.86	0.125
