-0.839	142.125
3.438	159.125
7.711	68.79167
11.981	43.45833
16.247	30.79167
20.509	38.45833
24.768	33.79167
29.024	45.125
33.276	31.79167
37.524	42.125
41.769	32.125
46.01	26.45833
50.247	42.79167
54.481	52.125
58.712	57.45833
62.939	34.79167
67.162	55.45833
71.382	43.79167
75.599	37.79167
79.812	42.79167
84.021	61.45833
88.227	41.45833
92.429	51.125
96.628	38.45833
100.823	54.45833
105.015	54.125
109.204	46.79167
113.388	61.125
117.57	43.79167
121.748	58.79167
125.922	51.125
130.093	69.79167
134.261	67.79167
138.425	55.125
142.585	81.79167
146.742	68.79167
150.896	84.79167
155.046	81.79167
159.193	122.125
163.336	176.125
167.476	309.79167
171.613	564.125
175.746	909.125
179.875	1323.79167
184.002	1732.125
188.124	2066.79167
192.244	2183.125
196.36	2179.79167
200.472	2181.45833
204.581	2179.125
208.687	2107.125
212.79	2101.125
216.889	2121.45833
220.984	2162.79167
225.077	2155.79167
229.165	2157.79167
233.251	2200.125
237.333	2193.125
241.412	2161.79167
245.487	2137.79167
249.559	2124.79167
253.628	2128.45833
257.694	2115.125
261.756	2100.79167
265.814	2057.45833
269.87	2040.125
273.922	1973.125
277.97	1968.79167
282.016	1960.79167
286.058	1939.79167
290.097	1984.79167
294.132	2007.45833
298.164	2005.45833
302.193	1940.79167
306.219	1816.45833
310.241	1753.45833
314.26	1636.45833
318.276	1580.79167
322.288	1536.79167
326.297	1499.125
330.303	1459.79167
334.305	1446.45833
338.305	1439.125
342.301	1436.79167
346.294	1441.79167
350.283	1415.45833
354.269	1410.125
358.252	1399.45833
362.232	1421.45833
366.209	1410.125
370.182	1409.79167
374.152	1393.79167
378.119	1402.45833
382.083	1405.45833
386.043	1421.79167
390	1405.125
393.954	1424.45833
397.905	1418.45833
401.852	1428.45833
405.797	1410.45833
409.738	1395.79167
413.676	1430.125
417.61	1429.45833
421.542	1425.79167
425.47	1390.79167
429.396	1400.45833
433.318	1380.125
437.236	1383.45833
441.152	1432.125
445.065	1366.125
448.974	1370.79167
452.88	1357.45833
456.783	1367.79167
460.683	1357.79167
464.58	1384.79167
468.473	1380.79167
472.364	1373.45833
476.251	1373.79167
480.135	1389.125
484.016	1406.45833
487.894	1416.125
491.769	1417.79167
495.641	1406.45833
499.509	1400.125
503.375	1406.45833
507.237	1391.79167
511.096	1406.45833
514.952	1394.45833
518.805	1373.45833
522.655	1386.125
526.502	1382.45833
530.346	1405.125
534.187	1386.45833
538.024	1393.125
541.859	1385.125
545.69	1422.45833
549.519	1403.45833
553.344	1382.45833
557.166	1374.45833
560.985	1367.79167
564.802	1367.125
568.615	1358.125
572.425	1337.79167
576.232	1325.125
580.036	1339.125
583.836	1338.79167
587.634	1340.45833
591.429	1335.125
595.221	1376.45833
599.01	1345.45833
602.796	1351.79167
606.578	1360.79167
610.358	1367.45833
614.135	1350.79167
617.909	1364.125
621.679	1348.79167
625.447	1339.45833
629.212	1349.45833
632.973	1351.45833
636.732	1340.125
640.488	1339.79167
644.241	1317.45833
647.991	1323.45833
651.737	1346.125
655.481	1297.79167
659.222	1316.125
662.96	1324.79167
666.695	1339.45833
670.427	1326.79167
674.156	1334.125
677.882	1329.45833
681.605	1330.125
685.325	1322.45833
689.043	1340.45833
692.757	1315.125
696.468	1315.125
700.177	1321.125
703.882	1294.45833
707.585	1292.79167
711.284	1296.45833
714.981	1274.79167
718.675	1275.125
722.366	1271.45833
726.054	1271.125
729.739	1266.79167
733.421	1277.79167
737.1	1274.45833
740.777	1274.45833
744.45	1284.79167
748.121	1270.125
751.789	1303.125
755.453	1284.45833
759.115	1296.79167
762.774	1304.45833
766.431	1290.79167
770.084	1294.125
773.734	1288.125
777.382	1312.79167
781.027	1307.79167
784.669	1294.125
788.308	1294.125
791.944	1330.45833
795.577	1335.45833
799.208	1316.79167
802.835	1336.45833
806.46	1337.125
810.082	1331.79167
813.701	1329.45833
817.317	1346.45833
820.931	1348.79167
824.542	1338.79167
828.149	1325.79167
831.754	1296.79167
835.357	1293.45833
838.956	1316.125
842.553	1313.125
846.146	1300.125
849.737	1274.125
853.326	1264.45833
856.911	1256.125
860.493	1286.45833
864.073	1277.45833
867.65	1296.125
871.225	1315.125
874.796	1297.79167
878.365	1286.125
881.931	1285.125
885.494	1299.125
889.054	1283.79167
892.612	1295.45833
896.166	1286.45833
899.719	1256.45833
903.268	1246.125
906.814	1262.125
910.358	1252.79167
913.899	1228.45833
917.438	1218.125
920.973	1198.79167
924.506	1222.45833
928.036	1253.45833
931.564	1249.45833
935.088	1256.45833
938.61	1243.125
942.129	1245.79167
945.646	1278.45833
949.16	1279.79167
952.671	1289.79167
956.179	1312.125
959.685	1282.79167
963.188	1304.45833
966.688	1286.125
970.185	1245.45833
973.68	1218.45833
977.173	1226.79167
980.662	1190.79167
984.149	1209.79167
987.633	1198.125
991.114	1219.125
994.593	1217.45833
998.069	1249.45833
1001.542	1277.45833
1005.013	1246.79167
1008.481	1190.79167
1011.947	1183.45833
1015.409	1149.125
1018.869	1157.125
1022.327	1167.45833
1025.782	1149.45833
1029.234	1143.125
1032.683	1133.79167
1036.13	1106.79167
1039.574	1071.125
1043.016	1056.125
1046.455	1038.45833
1049.891	1027.45833
1053.325	1051.125
1056.756	1027.45833
1060.184	1053.79167
1063.61	1031.45833
1067.033	1039.79167
1070.454	1037.45833
1073.872	1055.79167
1077.287	1036.45833
1080.7	1031.45833
1084.11	1041.45833
1087.517	1033.79167
1090.922	1017.125
1094.325	1007.125
1097.724	1007.125
1101.122	997.45833
1104.516	994.45833
1107.908	983.79167
1111.298	997.79167
1114.684	1004.125
1118.069	1000.125
1121.45	1015.45833
1124.83	995.79167
1128.206	1015.125
1131.58	1027.79167
1134.951	1055.45833
1138.32	1049.45833
1141.687	1095.79167
1145.05	1103.125
1148.412	1115.79167
1151.77	1095.45833
1155.126	1087.125
1158.48	1073.79167
1161.831	1088.45833
1165.18	1083.79167
1168.525	1094.45833
1171.869	1103.125
1175.21	1105.79167
1178.548	1121.125
1181.884	1121.125
1185.217	1127.125
1188.548	1152.125
1191.877	1162.79167
1195.202	1212.45833
1198.526	1231.125
1201.846	1236.45833
1205.165	1232.79167
1208.48	1236.125
1211.794	1242.45833
1215.104	1232.125
1218.413	1212.125
1221.719	1229.125
1225.022	1192.45833
1228.323	1193.45833
1231.621	1193.45833
1234.917	1164.125
1238.21	1190.45833
1241.501	1173.45833
1244.79	1158.45833
1248.076	1140.79167
1251.359	1172.45833
1254.64	1214.45833
1257.919	1189.125
1261.195	1199.79167
1264.468	1219.45833
1267.74	1248.79167
1271.008	1237.125
1274.275	1252.125
1277.538	1235.125
1280.8	1223.45833
1284.059	1220.125
1287.315	1236.79167
1290.569	1228.45833
1293.821	1235.45833
1297.07	1233.79167
1300.317	1242.125
1303.562	1238.45833
1306.803	1226.79167
1310.043	1226.79167
1313.28	1208.125
1316.515	1203.79167
1319.747	1205.125
1322.977	1200.125
1326.204	1178.125
1329.429	1175.45833
1332.652	1180.79167
1335.872	1174.125
1339.09	1158.79167
1342.306	1154.125
1345.519	1150.79167
1348.729	1142.125
1351.938	1148.45833
1355.144	1137.79167
1358.347	1120.125
1361.548	1140.45833
1364.747	1130.45833
1367.944	1100.125
1371.138	1112.79167
1374.329	1100.79167
1377.518	1110.79167
1380.705	1109.79167
1383.89	1107.79167
1387.072	1087.79167
1390.252	1057.79167
1393.429	1015.125
1396.605	996.125
1399.777	952.79167
1402.948	961.125
1406.116	956.125
1409.282	949.45833
1412.445	950.79167
1415.606	945.45833
1418.765	960.45833
1421.921	987.125
1425.075	991.45833
1428.227	1010.45833
1431.376	1027.79167
1434.524	1067.79167
1437.668	1079.79167
1440.811	1094.45833
1443.951	1100.45833
1447.089	1106.125
1450.224	1099.45833
1453.357	1119.45833
1456.488	1094.79167
1459.617	1090.125
1462.743	1073.79167
1465.867	1039.125
1468.989	1033.79167
1472.108	1022.79167
1475.225	1021.125
1478.34	984.79167
1481.453	985.125
1484.563	956.45833
1487.671	989.45833
1490.776	1013.79167
1493.88	1017.125
1496.981	1030.79167
1500.08	1019.79167
1503.176	1026.125
1506.271	1035.45833
1509.363	1065.45833
1512.452	1055.45833
1515.54	1061.45833
1518.625	1074.79167
1521.708	1106.79167
1524.789	1136.79167
1527.867	1148.79167
1530.944	1213.45833
1534.018	1229.125
1537.089	1297.125
1540.159	1300.125
1543.226	1296.79167
1546.291	1278.45833
1549.354	1255.125
1552.415	1232.79167
1555.473	1212.45833
1558.529	1192.79167
1561.583	1181.45833
1564.634	1161.125
1567.684	1162.45833
1570.731	1175.79167
1573.776	1165.125
1576.819	1181.79167
1579.859	1198.125
1582.898	1190.45833
1585.934	1209.79167
1588.968	1231.79167
1591.999	1208.125
1595.029	1206.45833
1598.056	1222.125
1601.081	1243.45833
1604.104	1231.45833
1607.125	1222.45833
1610.144	1202.125
1613.16	1165.79167
1616.174	1152.45833
1619.186	1134.79167
1622.196	1120.125
1625.203	1070.45833
1628.209	1080.125
1631.212	1065.125
1634.213	1073.45833
1637.212	1076.125
1640.209	1068.125
1643.203	1030.45833
1646.196	1002.45833
1649.186	987.79167
1652.174	958.125
1655.16	927.79167
1658.144	917.125
1661.125	887.45833
1664.105	850.79167
1667.082	822.79167
1670.057	779.45833
1673.03	740.125
1676.001	708.79167
1678.97	658.79167
1681.937	637.45833
1684.901	614.45833
1687.863	598.125
1690.824	569.125
1693.782	580.45833
1696.738	550.79167
1699.692	539.45833
1702.643	528.45833
1705.593	526.125
1708.54	515.79167
1711.486	532.45833
1714.429	502.125
1717.37	507.45833
1720.309	495.79167
1723.246	503.79167
1726.181	480.79167
1729.113	486.125
1732.044	495.125
1734.972	479.79167
1737.899	499.45833
1740.823	494.45833
1743.745	507.79167
1746.665	468.45833
1749.583	463.125
1752.499	456.125
1755.413	459.45833
1758.325	442.45833
1761.235	459.45833
1764.142	433.45833
1767.048	428.45833
1769.951	441.79167
1772.852	433.79167
1775.752	439.79167
1778.649	435.45833
1781.544	453.79167
1784.437	410.79167
1787.328	428.45833
1790.217	426.79167
1793.104	407.79167
1795.989	407.79167
1798.872	406.45833
1801.753	418.125
1804.631	421.125
1807.508	417.125
1810.383	415.45833
1813.255	407.125
1816.126	408.125
1818.994	405.125
1821.861	392.45833
1824.725	412.45833
1827.587	410.79167
1830.448	398.125
1833.306	390.79167
1836.162	403.79167
1839.017	405.125
1841.869	397.45833
1844.719	386.79167
1847.567	371.45833
1850.414	369.79167
1853.258	374.79167
1856.1	383.79167
1858.94	394.45833
1861.778	379.45833
1864.614	376.79167
1867.448	381.125
1870.28	363.125
1873.111	393.45833
1875.939	370.79167
1878.765	385.45833
1881.589	367.125
1884.411	380.125
1887.231	380.79167
1890.049	371.79167
1892.865	376.125
1895.68	362.79167
1898.492	365.125
1901.302	353.125
1904.11	357.125
1906.916	367.45833
1909.721	353.125
1912.523	368.45833
1915.323	345.45833
1918.122	344.79167
1920.918	368.45833
1923.712	342.79167
1926.505	355.45833
1929.295	336.79167
1932.084	361.125
1934.87	355.125
1937.655	345.45833
1940.438	340.79167
1943.218	342.79167
1945.997	348.79167
1948.774	343.125
1951.549	350.125
1954.322	345.79167
1957.093	349.125
1959.862	340.45833
1962.629	343.125
1965.394	338.125
1968.157	330.45833
1970.918	343.125
1973.678	323.125
1976.435	339.45833
1979.19	329.125
1981.944	318.125
1984.696	323.45833
1987.445	318.125
1990.193	327.45833
1992.939	341.125
1995.683	314.79167
1998.425	304.79167
2001.165	346.45833
2003.903	302.79167
2006.639	314.125
2009.374	322.79167
2012.106	324.125
2014.837	297.79167
2017.566	319.125
2020.292	313.79167
2023.017	312.125
2025.74	304.45833
2028.461	301.125
2031.18	305.45833
2033.898	300.45833
2036.613	305.79167
2039.327	309.45833
2042.038	294.125
2044.748	303.125
2047.456	306.79167
2050.162	285.125
2052.866	294.45833
2055.568	314.45833
2058.268	299.79167
2060.967	298.79167
2063.663	280.45833
2066.358	290.79167
2069.051	290.125
2071.742	288.45833
2074.431	301.79167
2077.118	291.45833
2079.804	279.79167
2082.487	282.79167
2085.169	297.45833
2087.849	315.125
2090.527	285.79167
2093.203	293.45833
2095.877	292.79167
2098.55	296.45833
2101.22	297.125
2103.889	312.125
2106.556	292.125
2109.221	303.125
2111.884	306.79167
2114.546	320.79167
2117.205	331.125
2119.863	358.79167
2122.519	358.125
2125.173	372.79167
2127.825	414.45833
2130.475	409.45833
2133.124	392.79167
2135.771	370.79167
2138.416	393.45833
2141.059	353.45833
2143.7	357.125
2146.339	330.45833
2148.977	298.125
2151.613	317.79167
2154.247	303.79167
2156.879	290.125
2159.51	286.125
2162.138	283.45833
2164.765	287.45833
2167.39	265.79167
2170.013	291.125
2172.634	288.45833
2175.254	274.45833
2177.872	306.79167
2180.488	259.45833
2183.102	269.79167
2185.714	264.45833
2188.325	248.125
2190.934	262.45833
2193.541	267.79167
2196.146	259.79167
2198.75	239.79167
2201.351	252.45833
2203.951	229.125
2206.549	247.79167
2209.146	239.125
2211.74	239.125
2214.333	247.125
2216.924	237.45833
2219.514	240.125
2222.101	241.45833
2224.687	247.79167
2227.271	228.79167
2229.853	234.45833
2232.433	222.125
2235.012	240.45833
2237.589	235.79167
2240.164	246.125
2242.738	227.79167
2245.309	232.125
2247.879	243.125
2250.448	238.45833
2253.014	226.79167
2255.579	207.79167
2258.142	223.79167
2260.703	229.45833
2263.262	218.79167
2265.82	211.79167
2268.376	224.79167
2270.93	210.45833
2273.483	207.125
2276.033	220.125
2278.583	210.79167
2281.13	208.125
2283.675	203.45833
2286.219	207.79167
2288.761	218.79167
2291.302	215.125
2293.841	223.45833
2296.377	200.79167
2298.913	209.79167
2301.446	215.45833
2303.978	212.125
2306.508	206.79167
2309.037	210.45833
2311.563	213.79167
2314.088	204.125
2316.612	191.79167
2319.133	207.45833
2321.653	209.125
2324.171	199.79167
2326.688	211.45833
2329.202	203.79167
2331.715	208.79167
2334.227	196.125
2336.736	200.45833
2339.244	195.79167
2341.751	177.79167
2344.255	199.79167
2346.758	197.79167
2349.259	184.45833
2351.759	199.125
2354.257	179.45833
2356.753	186.45833
2359.247	188.45833
2361.74	187.125
2364.231	192.79167
2366.721	198.45833
2369.209	186.45833
2371.695	189.45833
2374.179	183.45833
2376.662	169.125
2379.143	205.125
2381.622	184.79167
2384.1	190.79167
2386.576	182.79167
2389.051	195.125
2391.524	198.45833
2393.995	190.79167
2396.464	180.45833
2398.932	177.125
2401.398	186.79167
2403.863	176.79167
2406.325	175.125
2408.787	188.45833
2411.246	179.45833
2413.704	179.125
2416.16	172.45833
2418.615	177.125
2421.068	181.79167
2423.519	173.79167
2425.969	172.125
2428.417	185.45833
2430.863	199.45833
2433.308	184.79167
2435.751	183.45833
2438.193	184.79167
2440.633	177.79167
2443.071	183.45833
2445.508	170.79167
2447.943	172.79167
2450.376	170.125
2452.808	177.45833
2455.238	164.45833
2457.667	195.45833
2460.093	163.79167
2462.519	154.79167
2464.942	164.125
2467.365	174.79167
2469.785	175.79167
2472.204	162.45833
2474.621	162.125
2477.037	184.79167
2479.451	158.125
2481.863	158.125
2484.274	155.125
2486.683	167.125
2489.091	170.79167
2491.497	171.125
2493.901	167.125
2496.304	164.45833
2498.705	171.79167
2501.105	160.45833
2503.503	177.45833
2505.899	151.125
2508.294	179.45833
2510.687	156.125
2513.079	160.125
2515.469	155.125
2517.858	156.45833
2520.245	174.125
2522.63	162.45833
2525.014	152.125
2527.396	149.125
2529.776	155.125
2532.156	158.45833
2534.533	149.125
2536.909	145.45833
2539.283	138.125
2541.656	154.79167
2544.027	167.79167
2546.397	152.79167
2548.765	146.45833
2551.131	147.79167
2553.496	154.125
2555.86	157.125
2558.221	158.125
2560.582	145.125
2562.94	138.45833
2565.298	151.45833
2567.653	164.125
2570.007	136.125
2572.36	159.125
2574.711	145.45833
2577.06	162.79167
2579.408	150.125
2581.754	143.45833
2584.099	146.125
2586.442	144.45833
2588.784	152.79167
2591.124	147.125
2593.463	144.79167
2595.8	150.45833
2598.135	133.45833
2600.469	140.79167
2602.802	151.45833
2605.133	156.125
2607.462	137.79167
2609.79	130.79167
2612.116	153.79167
2614.441	138.45833
2616.764	146.79167
2619.086	146.125
2621.406	138.79167
2623.725	149.45833
2626.042	145.79167
2628.358	136.125
2630.672	140.79167
2632.985	155.125
2635.296	147.125
2637.606	144.45833
2639.914	132.79167
2642.22	139.125
2644.525	139.79167
2646.829	139.125
2649.131	154.125
2651.432	142.79167
2653.731	141.125
2656.028	151.45833
2658.324	141.79167
2660.619	131.125
2662.912	145.79167
2665.204	126.125
2667.494	144.125
2669.782	137.79167
2672.07	146.79167
2674.355	151.125
2676.639	149.125
2678.922	143.125
2681.203	147.45833
2683.483	136.125
2685.761	126.45833
2688.038	148.45833
2690.313	153.79167
2692.587	134.125
2694.859	135.125
2697.13	138.45833
2699.399	142.45833
2701.667	146.79167
2703.933	138.79167
2706.198	148.45833
2708.461	149.125
2710.723	153.125
2712.984	141.125
2715.243	149.45833
2717.5	140.125
2719.757	142.45833
2722.011	138.79167
2724.264	153.45833
2726.516	157.79167
2728.766	136.45833
2731.015	145.45833
2733.262	147.79167
2735.508	142.125
2737.753	147.125
2739.996	128.45833
2742.237	136.125
2744.477	148.79167
2746.716	151.125
2748.953	149.125
2751.189	158.79167
2753.423	148.125
2755.656	139.125
2757.887	134.125
2760.117	131.79167
2762.346	127.79167
2764.573	120.79167
2766.798	127.79167
2769.022	133.45833
2771.245	129.79167
2773.467	129.125
2775.686	125.45833
2777.905	131.79167
2780.122	129.125
2782.337	139.79167
2784.552	127.125
2786.764	135.45833
2788.976	128.125
2791.186	138.125
2793.394	138.125
2795.601	144.45833
2797.807	145.125
2800.011	138.125
2802.214	147.45833
2804.415	138.79167
2806.615	140.45833
2808.814	145.79167
2811.011	149.45833
2813.206	147.79167
2815.401	157.45833
2817.594	159.79167
2819.785	156.125
2821.975	147.125
2824.164	154.125
2826.351	154.79167
2828.537	170.45833
2830.722	164.79167
2832.905	163.79167
2835.086	166.79167
2837.267	192.45833
2839.445	180.45833
2841.623	188.45833
2843.799	182.45833
2845.974	195.125
2848.147	198.125
2850.319	213.79167
2852.489	221.79167
2854.659	219.79167
2856.826	221.45833
2858.993	240.79167
2861.158	220.45833
2863.321	225.79167
2865.483	237.79167
2867.644	237.79167
2869.804	231.45833
2871.962	225.79167
2874.118	229.45833
2876.274	232.125
2878.428	230.79167
2880.58	238.45833
2882.731	220.125
2884.881	229.45833
2887.03	232.45833
2889.177	232.79167
2891.322	240.45833
2893.467	225.79167
2895.61	223.79167
2897.751	246.125
2899.892	226.79167
2902.03	237.45833
2904.168	233.45833
2906.304	238.45833
2908.439	252.79167
2910.572	230.45833
2912.704	236.79167
2914.835	246.79167
2916.965	245.45833
2919.093	259.79167
2921.219	227.79167
2923.345	250.45833
2925.469	236.125
2927.591	234.45833
2929.712	221.125
2931.832	227.79167
2933.951	229.79167
2936.068	217.45833
2938.184	209.79167
2940.299	203.125
2942.412	204.79167
2944.524	188.45833
2946.634	197.45833
2948.744	172.125
2950.851	204.125
2952.958	171.79167
2955.063	180.125
2957.167	165.125
2959.269	155.45833
2961.371	186.125
2963.471	158.125
2965.569	167.125
2967.666	147.125
2969.762	147.45833
2971.857	142.45833
2973.95	134.79167
2976.042	146.125
2978.133	141.125
2980.222	135.79167
2982.31	125.45833
2984.396	113.45833
2986.482	118.79167
2988.566	120.125
2990.648	121.125
2992.73	122.79167
2994.81	110.79167
2996.889	118.79167
2998.966	115.45833
3001.042	130.45833
3003.117	108.79167
3005.191	118.45833
3007.263	122.79167
3009.334	111.79167
3011.403	120.79167
3013.472	107.79167
3015.539	126.79167
3017.604	132.125
3019.669	99.125
3021.732	106.79167
3023.794	110.45833
3025.854	100.45833
3027.914	96.125
3029.971	100.125
3032.028	101.79167
3034.083	112.125
3036.137	105.45833
3038.19	91.45833
3040.242	86.45833
3042.292	90.45833
3044.341	92.79167
3046.388	105.125
3048.435	80.125
3050.48	110.45833
3052.524	92.79167
3054.566	76.79167
3056.607	89.125
3058.647	90.45833
3060.686	75.45833
3062.723	73.125
3064.759	76.79167
3066.794	2.125
3068.828	1.45833
3070.86	1.45833
