-0.839	142.08333
3.438	159.41667
7.711	66.08333
11.981	43.41667
16.247	31.41667
20.509	40.41667
24.768	37.41667
29.024	45.41667
33.276	31.08333
37.524	41.41667
41.769	28.41667
46.01	26.75
50.247	45.75
54.481	53.41667
58.712	55.08333
62.939	36.08333
67.162	50.08333
71.382	43.41667
75.599	37.75
79.812	44.41667
84.021	63.41667
88.227	40.41667
92.429	52.41667
96.628	39.41667
100.823	50.41667
105.015	56.08333
109.204	46.75
113.388	59.08333
117.57	47.08333
121.748	62.41667
125.922	51.41667
130.093	65.08333
134.261	66.41667
138.425	59.41667
142.585	91.41667
146.742	67.41667
150.896	81.08333
155.046	78.41667
159.193	120.41667
163.336	170.41667
167.476	306.75
171.613	551.75
175.746	897.08333
179.875	1295.08333
184.002	1703.08333
188.124	2019.75
192.244	2146.08333
196.36	2139.75
200.472	2137.75
204.581	2115.08333
208.687	2059.75
212.79	2067.08333
216.889	2074.41667
220.984	2100.41667
225.077	2120.41667
229.165	2149.41667
233.251	2120.08333
237.333	2133.08333
241.412	2116.08333
245.487	2102.41667
249.559	2068.75
253.628	2063.08333
257.694	2059.41667
261.756	2064.08333
265.814	2008.08333
269.87	1976.75
273.922	1928.08333
277.97	1914.41667
282.016	1899.75
286.058	1895.41667
290.097	1931.08333
294.132	1952.08333
298.164	1950.75
302.193	1884.75
306.219	1785.75
310.241	1689.41667
314.26	1592.41667
318.276	1518.41667
322.288	1484.75
326.297	1417.08333
330.303	1415.41667
334.305	1382.75
338.305	1377.75
342.301	1387.41667
346.294	1373.41667
350.283	1364.08333
354.269	1347.41667
358.252	1343.41667
362.232	1368.41667
366.209	1362.75
370.182	1344.08333
374.152	1336.08333
378.119	1352.41667
382.083	1339.41667
386.043	1355.75
390	1334.08333
393.954	1360.08333
397.905	1354.41667
401.852	1377.75
405.797	1344.75
409.738	1353.41667
413.676	1370.75
417.61	1376.41667
421.542	1343.41667
425.47	1339.75
429.396	1345.08333
433.318	1319.75
437.236	1322.08333
441.152	1355.41667
445.065	1314.41667
448.974	1314.41667
452.88	1301.41667
456.783	1311.41667
460.683	1304.08333
464.58	1307.41667
468.473	1309.41667
472.364	1323.41667
476.251	1319.75
480.135	1333.08333
484.016	1352.75
487.894	1353.41667
491.769	1348.08333
495.641	1354.41667
499.509	1347.41667
503.375	1351.08333
507.237	1333.41667
511.096	1337.75
514.952	1333.41667
518.805	1343.08333
522.655	1326.75
526.502	1333.75
530.346	1343.08333
534.187	1343.41667
538.024	1338.08333
541.859	1339.41667
545.69	1356.41667
549.519	1344.08333
553.344	1337.75
557.166	1334.41667
560.985	1321.08333
564.802	1314.75
568.615	1293.75
572.425	1274.08333
576.232	1278.75
580.036	1290.75
583.836	1276.41667
587.634	1293.75
591.429	1289.08333
595.221	1303.08333
599.01	1310.08333
602.796	1314.75
606.578	1307.75
610.358	1324.75
614.135	1301.41667
617.909	1312.41667
621.679	1298.08333
625.447	1293.75
629.212	1300.08333
632.973	1281.75
636.732	1289.41667
640.488	1291.41667
644.241	1252.75
647.991	1261.75
651.737	1286.08333
655.481	1249.41667
659.222	1261.75
662.96	1258.41667
666.695	1287.41667
670.427	1279.08333
674.156	1276.08333
677.882	1282.08333
681.605	1265.08333
685.325	1273.75
689.043	1287.75
692.757	1268.41667
696.468	1268.08333
700.177	1258.75
703.882	1258.08333
707.585	1234.75
711.284	1232.41667
714.981	1212.08333
718.675	1223.41667
722.366	1225.75
726.054	1222.08333
729.739	1209.41667
733.421	1224.75
737.1	1226.08333
740.777	1244.41667
744.45	1228.08333
748.121	1234.41667
751.789	1259.41667
755.453	1236.75
759.115	1243.75
762.774	1242.08333
766.431	1249.08333
770.084	1251.75
773.734	1241.41667
777.382	1270.41667
781.027	1264.08333
784.669	1270.41667
788.308	1251.41667
791.944	1282.75
795.577	1277.41667
799.208	1289.08333
802.835	1279.41667
806.46	1269.08333
810.082	1296.08333
813.701	1271.08333
817.317	1297.41667
820.931	1309.75
824.542	1293.08333
828.149	1277.08333
831.754	1271.08333
835.357	1262.75
838.956	1268.41667
842.553	1266.41667
846.146	1233.41667
849.737	1213.75
853.326	1227.41667
856.911	1228.08333
860.493	1235.41667
864.073	1241.75
867.65	1258.41667
871.225	1258.08333
874.796	1263.41667
878.365	1244.08333
881.931	1266.75
885.494	1279.08333
889.054	1257.08333
892.612	1266.41667
896.166	1248.08333
899.719	1227.08333
903.268	1206.75
906.814	1207.41667
910.358	1190.75
913.899	1184.41667
917.438	1184.75
920.973	1165.08333
924.506	1187.75
928.036	1205.41667
931.564	1207.08333
935.088	1248.41667
938.61	1210.75
942.129	1218.08333
945.646	1240.41667
949.16	1236.08333
952.671	1268.41667
956.179	1270.41667
959.685	1258.08333
963.188	1265.75
966.688	1252.08333
970.185	1218.08333
973.68	1197.75
977.173	1189.75
980.662	1175.41667
984.149	1177.08333
987.633	1165.75
991.114	1176.41667
994.593	1203.75
998.069	1214.41667
1001.542	1230.08333
1005.013	1228.41667
1008.481	1154.75
1011.947	1143.41667
1015.409	1132.41667
1018.869	1141.75
1022.327	1133.08333
1025.782	1130.41667
1029.234	1117.41667
1032.683	1103.08333
1036.13	1078.75
1039.574	1039.75
1043.016	1037.41667
1046.455	1003.41667
1049.891	1002.08333
1053.325	1011.41667
1056.756	1007.75
1060.184	1015.75
1063.61	1007.75
1067.033	1012.41667
1070.454	1008.75
1073.872	1023.41667
1077.287	1005.08333
1080.7	1019.41667
1084.11	1016.75
1087.517	1004.08333
1090.922	998.08333
1094.325	967.41667
1097.724	975.75
1101.122	969.41667
1104.516	971.08333
1107.908	955.75
1111.298	970.08333
1114.684	963.75
1118.069	978.75
1121.45	995.41667
1124.83	972.41667
1128.206	996.08333
1131.58	996.08333
1134.951	1016.75
1138.32	1029.75
1141.687	1056.41667
1145.05	1089.08333
1148.412	1080.41667
1151.77	1074.41667
1155.126	1063.41667
1158.48	1051.75
1161.831	1052.08333
1165.18	1057.75
1168.525	1064.75
1171.869	1068.08333
1175.21	1084.08333
1178.548	1097.08333
1181.884	1102.75
1185.217	1101.75
1188.548	1128.08333
1191.877	1138.08333
1195.202	1191.41667
1198.526	1205.75
1201.846	1201.75
1205.165	1199.41667
1208.48	1205.41667
1211.794	1203.08333
1215.104	1204.41667
1218.413	1201.41667
1221.719	1200.75
1225.022	1178.08333
1228.323	1164.75
1231.621	1150.75
1234.917	1157.08333
1238.21	1178.75
1241.501	1144.75
1244.79	1128.75
1248.076	1129.08333
1251.359	1151.08333
1254.64	1181.08333
1257.919	1165.08333
1261.195	1189.75
1264.468	1187.08333
1267.74	1206.75
1271.008	1214.75
1274.275	1212.75
1277.538	1199.75
1280.8	1209.75
1284.059	1188.41667
1287.315	1214.08333
1290.569	1205.41667
1293.821	1212.41667
1297.07	1216.41667
1300.317	1222.75
1303.562	1224.41667
1306.803	1199.41667
1310.043	1192.41667
1313.28	1198.08333
1316.515	1171.41667
1319.747	1192.75
1322.977	1177.75
1326.204	1159.41667
1329.429	1148.41667
1332.652	1170.75
1335.872	1157.75
1339.09	1143.08333
1342.306	1138.75
1345.519	1123.75
1348.729	1120.41667
1351.938	1129.41667
1355.144	1102.41667
1358.347	1113.08333
1361.548	1110.41667
1364.747	1102.75
1367.944	1075.75
1371.138	1078.08333
1374.329	1088.41667
1377.518	1086.08333
1380.705	1083.08333
1383.89	1077.41667
1387.072	1056.41667
1390.252	1030.08333
1393.429	1011.08333
1396.605	983.41667
1399.777	947.75
1402.948	940.75
1406.116	917.08333
1409.282	937.41667
1412.445	935.41667
1415.606	939.08333
1418.765	937.08333
1421.921	950.75
1425.075	954.08333
1428.227	1000.41667
1431.376	1018.08333
1434.524	1053.41667
1437.668	1065.75
1440.811	1075.75
1443.951	1085.75
1447.089	1098.75
1450.224	1082.41667
1453.357	1076.41667
1456.488	1071.08333
1459.617	1059.08333
1462.743	1047.08333
1465.867	1014.41667
1468.989	1008.08333
1472.108	1002.41667
1475.225	980.08333
1478.34	968.75
1481.453	966.75
1484.563	964.41667
1487.671	958.41667
1490.776	994.75
1493.88	995.75
1496.981	1002.75
1500.08	1007.08333
1503.176	1007.08333
1506.271	1026.75
1509.363	1036.08333
1512.452	1038.08333
1515.54	1038.75
1518.625	1055.08333
1521.708	1091.41667
1524.789	1102.08333
1527.867	1136.41667
1530.944	1191.75
1534.018	1214.41667
1537.089	1273.08333
1540.159	1279.75
1543.226	1284.08333
1546.291	1251.75
1549.354	1234.08333
1552.415	1225.08333
1555.473	1210.08333
1558.529	1175.75
1561.583	1160.75
1564.634	1152.75
1567.684	1140.41667
1570.731	1156.08333
1573.776	1152.08333
1576.819	1156.75
1579.859	1169.41667
1582.898	1191.08333
1585.934	1208.08333
1588.968	1204.08333
1591.999	1174.75
1595.029	1176.75
1598.056	1187.75
1601.081	1210.75
1604.104	1203.75
1607.125	1185.41667
1610.144	1176.41667
1613.16	1143.75
1616.174	1115.75
1619.186	1116.08333
1622.196	1082.41667
1625.203	1070.75
1628.209	1041.08333
1631.212	1036.41667
1634.213	1049.75
1637.212	1047.75
1640.209	1046.41667
1643.203	1009.75
1646.196	988.08333
1649.186	942.41667
1652.174	944.08333
1655.16	905.75
1658.144	896.75
1661.125	863.08333
1664.105	822.08333
1667.082	810.75
1670.057	756.08333
1673.03	726.08333
1676.001	687.08333
1678.97	647.75
1681.937	622.08333
1684.901	580.75
1687.863	588.75
1690.824	547.08333
1693.782	564.75
1696.738	515.41667
1699.692	524.75
1702.643	515.08333
1705.593	513.41667
1708.54	498.41667
1711.486	508.08333
1714.429	496.75
1717.37	496.75
1720.309	481.75
1723.246	487.75
1726.181	477.08333
1729.113	470.41667
1732.044	480.75
1734.972	464.41667
1737.899	473.08333
1740.823	477.75
1743.745	497.41667
1746.665	455.41667
1749.583	457.08333
1752.499	437.08333
1755.413	450.75
1758.325	430.75
1761.235	440.41667
1764.142	432.08333
1767.048	414.08333
1769.951	429.08333
1772.852	424.08333
1775.752	438.08333
1778.649	420.75
1781.544	441.41667
1784.437	412.08333
1787.328	421.08333
1790.217	413.08333
1793.104	394.41667
1795.989	403.41667
1798.872	399.08333
1801.753	422.75
1804.631	402.75
1807.508	412.08333
1810.383	400.41667
1813.255	402.08333
1816.126	391.41667
1818.994	395.41667
1821.861	391.08333
1824.725	401.08333
1827.587	397.75
1830.448	390.08333
1833.306	388.41667
1836.162	390.08333
1839.017	378.08333
1841.869	374.08333
1844.719	385.75
1847.567	351.41667
1850.414	357.41667
1853.258	357.41667
1856.1	376.75
1858.94	382.08333
1861.778	375.08333
1864.614	362.08333
1867.448	372.08333
1870.28	357.41667
1873.111	371.41667
1875.939	362.75
1878.765	386.08333
1881.589	364.41667
1884.411	357.08333
1887.231	377.08333
1890.049	359.75
1892.865	367.41667
1895.68	349.08333
1898.492	361.41667
1901.302	354.41667
1904.11	355.75
1906.916	351.41667
1909.721	342.41667
1912.523	365.41667
1915.323	336.75
1918.122	341.75
1920.918	361.75
1923.712	334.75
1926.505	339.75
1929.295	325.75
1932.084	330.08333
1934.87	341.75
1937.655	342.41667
1940.438	332.08333
1943.218	327.08333
1945.997	329.75
1948.774	339.41667
1951.549	343.41667
1954.322	331.41667
1957.093	331.08333
1959.862	326.75
1962.629	326.41667
1965.394	326.41667
1968.157	317.75
1970.918	326.75
1973.678	319.41667
1976.435	331.75
1979.19	312.75
1981.944	309.08333
1984.696	316.08333
1987.445	310.08333
1990.193	321.41667
1992.939	329.41667
1995.683	318.75
1998.425	291.08333
2001.165	334.75
2003.903	299.08333
2006.639	305.08333
2009.374	311.08333
2012.106	312.75
2014.837	288.41667
2017.566	308.75
2020.292	304.75
2023.017	303.08333
2025.74	305.08333
2028.461	296.08333
2031.18	299.75
2033.898	289.08333
2036.613	298.75
2039.327	300.08333
2042.038	283.41667
2044.748	298.08333
2047.456	295.08333
2050.162	279.75
2052.866	289.75
2055.568	303.41667
2058.268	282.75
2060.967	299.75
2063.663	288.41667
2066.358	286.08333
2069.051	283.08333
2071.742	289.08333
2074.431	295.08333
2077.118	284.75
2079.804	275.08333
2082.487	279.08333
2085.169	296.41667
2087.849	300.75
2090.527	279.08333
2093.203	287.08333
2095.877	280.41667
2098.55	284.75
2101.22	297.41667
2103.889	294.08333
2106.556	282.41667
2109.221	300.08333
2111.884	290.75
2114.546	316.41667
2117.205	324.08333
2119.863	354.41667
2122.519	351.08333
2125.173	373.75
2127.825	398.75
2130.475	409.41667
2133.124	392.08333
2135.771	370.41667
2138.416	377.75
2141.059	340.08333
2143.7	342.75
2146.339	316.75
2148.977	289.08333
2151.613	301.75
2154.247	293.75
2156.879	291.08333
2159.51	275.75
2162.138	274.41667
2164.765	272.75
2167.39	260.08333
2170.013	285.08333
2172.634	281.75
2175.254	258.75
2177.872	304.75
2180.488	255.08333
2183.102	257.08333
2185.714	254.41667
2188.325	247.41667
2190.934	253.08333
2193.541	259.75
2196.146	251.08333
2198.75	242.08333
2201.351	244.41667
2203.951	230.75
2206.549	250.41667
2209.146	238.08333
2211.74	231.75
2214.333	246.41667
2216.924	228.41667
2219.514	229.08333
2222.101	229.41667
2224.687	244.75
2227.271	228.08333
2229.853	228.75
2232.433	213.41667
2235.012	238.75
2237.589	233.08333
2240.164	236.75
2242.738	223.08333
2245.309	217.75
2247.879	238.08333
2250.448	229.75
2253.014	215.08333
2255.579	210.75
2258.142	217.08333
2260.703	215.41667
2263.262	214.08333
2265.82	204.41667
2268.376	221.08333
2270.93	212.08333
2273.483	205.75
2276.033	219.75
2278.583	209.41667
2281.13	206.75
2283.675	197.75
2286.219	202.75
2288.761	211.75
2291.302	212.08333
2293.841	214.75
2296.377	201.08333
2298.913	213.08333
2301.446	219.08333
2303.978	207.08333
2306.508	205.08333
2309.037	205.41667
2311.563	200.75
2314.088	203.75
2316.612	181.08333
2319.133	204.41667
2321.653	201.41667
2324.171	193.41667
2326.688	208.41667
2329.202	199.08333
2331.715	196.41667
2334.227	197.75
2336.736	192.08333
2339.244	194.75
2341.751	188.41667
2344.255	195.41667
2346.758	200.41667
2349.259	180.41667
2351.759	193.75
2354.257	180.75
2356.753	179.75
2359.247	188.08333
2361.74	186.75
2364.231	180.75
2366.721	193.41667
2369.209	181.75
2371.695	184.75
2374.179	176.41667
2376.662	172.75
2379.143	193.75
2381.622	179.75
2384.1	184.08333
2386.576	175.41667
2389.051	190.08333
2391.524	189.75
2393.995	185.75
2396.464	180.75
2398.932	167.08333
2401.398	180.08333
2403.863	179.08333
2406.325	173.75
2408.787	177.08333
2411.246	173.41667
2413.704	170.41667
2416.16	171.41667
2418.615	175.75
2421.068	179.41667
2423.519	172.41667
2425.969	168.08333
2428.417	186.08333
2430.863	194.41667
2433.308	178.08333
2435.751	176.75
2438.193	172.75
2440.633	173.41667
2443.071	180.41667
2445.508	163.41667
2447.943	166.75
2450.376	166.08333
2452.808	174.41667
2455.238	155.08333
2457.667	194.08333
2460.093	158.41667
2462.519	156.75
2464.942	161.75
2467.365	166.08333
2469.785	167.75
2472.204	159.41667
2474.621	164.41667
2477.037	178.75
2479.451	147.75
2481.863	150.41667
2484.274	153.08333
2486.683	167.08333
2489.091	166.08333
2491.497	165.75
2493.901	159.08333
2496.304	162.41667
2498.705	165.75
2501.105	159.75
2503.503	176.41667
2505.899	146.75
2508.294	175.08333
2510.687	154.75
2513.079	154.08333
2515.469	149.08333
2517.858	149.08333
2520.245	170.08333
2522.63	157.08333
2525.014	150.41667
2527.396	152.75
2529.776	148.08333
2532.156	160.41667
2534.533	152.41667
2536.909	142.75
2539.283	132.08333
2541.656	151.08333
2544.027	161.08333
2546.397	151.41667
2548.765	150.41667
2551.131	149.41667
2553.496	153.41667
2555.86	153.75
2558.221	157.08333
2560.582	144.08333
2562.94	134.41667
2565.298	151.08333
2567.653	158.41667
2570.007	142.41667
2572.36	152.08333
2574.711	134.75
2577.06	161.08333
2579.408	147.41667
2581.754	145.75
2584.099	145.41667
2586.442	142.41667
2588.784	150.75
2591.124	148.08333
2593.463	147.08333
2595.8	142.75
2598.135	138.08333
2600.469	134.41667
2602.802	151.75
2605.133	151.41667
2607.462	136.08333
2609.79	129.75
2612.116	153.75
2614.441	137.41667
2616.764	149.41667
2619.086	135.75
2621.406	138.75
2623.725	152.75
2626.042	139.08333
2628.358	132.41667
2630.672	137.08333
2632.985	147.08333
2635.296	142.08333
2637.606	138.75
2639.914	130.08333
2642.22	133.08333
2644.525	137.41667
2646.829	142.41667
2649.131	149.75
2651.432	142.08333
2653.731	133.41667
2656.028	151.75
2658.324	142.08333
2660.619	130.41667
2662.912	147.75
2665.204	126.08333
2667.494	139.75
2669.782	127.08333
2672.07	145.41667
2674.355	145.08333
2676.639	142.08333
2678.922	133.41667
2681.203	144.75
2683.483	137.08333
2685.761	124.08333
2688.038	146.41667
2690.313	147.08333
2692.587	140.08333
2694.859	134.41667
2697.13	139.08333
2699.399	140.41667
2701.667	145.08333
2703.933	141.75
2706.198	146.75
2708.461	147.41667
2710.723	149.75
2712.984	142.08333
2715.243	147.75
2717.5	137.08333
2719.757	145.41667
2722.011	137.41667
2724.264	146.08333
2726.516	153.41667
2728.766	135.08333
2731.015	140.41667
2733.262	144.08333
2735.508	140.08333
2737.753	146.08333
2739.996	129.75
2742.237	134.08333
2744.477	144.75
2746.716	154.08333
2748.953	146.75
2751.189	147.41667
2753.423	146.41667
2755.656	135.08333
2757.887	130.75
2760.117	129.08333
2762.346	131.08333
2764.573	117.75
2766.798	127.41667
2769.022	133.75
2771.245	122.08333
2773.467	131.75
2775.686	127.08333
2777.905	138.75
2780.122	134.75
2782.337	139.08333
2784.552	128.41667
2786.764	136.75
2788.976	123.08333
2791.186	133.08333
2793.394	129.75
2795.601	143.08333
2797.807	146.75
2800.011	138.75
2802.214	150.41667
2804.415	143.08333
2806.615	133.75
2808.814	142.75
2811.011	142.75
2813.206	149.08333
2815.401	156.75
2817.594	151.08333
2819.785	162.08333
2821.975	144.75
2824.164	151.41667
2826.351	150.75
2828.537	168.75
2830.722	159.08333
2832.905	158.75
2835.086	162.41667
2837.267	183.08333
2839.445	185.08333
2841.623	181.75
2843.799	185.41667
2845.974	193.75
2848.147	198.41667
2850.319	207.75
2852.489	215.41667
2854.659	215.08333
2856.826	214.08333
2858.993	234.41667
2861.158	215.75
2863.321	219.75
2865.483	237.75
2867.644	230.08333
2869.804	237.08333
2871.962	224.41667
2874.118	231.75
2876.274	223.08333
2878.428	230.41667
2880.58	232.75
2882.731	217.08333
2884.881	229.41667
2887.03	236.08333
2889.177	232.08333
2891.322	234.08333
2893.467	230.75
2895.61	221.75
2897.751	239.41667
2899.892	231.75
2902.03	232.75
2904.168	237.08333
2906.304	235.08333
2908.439	251.75
2910.572	227.08333
2912.704	233.41667
2914.835	252.08333
2916.965	241.75
2919.093	260.75
2921.219	223.08333
2923.345	254.41667
2925.469	239.41667
2927.591	237.41667
2929.712	216.75
2931.832	228.08333
2933.951	223.75
2936.068	217.75
2938.184	212.41667
2940.299	204.75
2942.412	203.75
2944.524	183.75
2946.634	191.75
2948.744	169.75
2950.851	197.08333
2952.958	166.75
2955.063	172.41667
2957.167	169.75
2959.269	152.41667
2961.371	182.75
2963.471	155.75
2965.569	167.08333
2967.666	146.75
2969.762	147.41667
2971.857	138.41667
2973.95	133.08333
2976.042	144.41667
2978.133	131.08333
2980.222	136.75
2982.31	127.08333
2984.396	112.41667
2986.482	118.75
2988.566	119.75
2990.648	118.75
2992.73	118.75
2994.81	105.41667
2996.889	126.08333
2998.966	115.08333
3001.042	127.41667
3003.117	114.08333
3005.191	118.41667
3007.263	122.08333
3009.334	106.08333
3011.403	114.08333
3013.472	108.75
3015.539	120.08333
3017.604	131.41667
3019.669	101.41667
3021.732	105.75
3023.794	106.08333
3025.854	95.41667
3027.914	96.08333
3029.971	98.41667
3032.028	99.75
3034.083	107.41667
3036.137	103.08333
3038.19	95.75
3040.242	83.08333
3042.292	88.08333
3044.341	91.08333
3046.388	110.08333
3048.435	85.41667
3050.48	105.75
3052.524	86.75
3054.566	78.08333
3056.607	90.75
3058.647	85.08333
3060.686	79.08333
3062.723	72.41667
3064.759	76.75
3066.794	0.41667
3068.828	1.08333
3070.86	0.75
