-0.839	138.875
3.438	160.54167
7.711	63.20833
11.981	42.54167
16.247	30.54167
20.509	39.20833
24.768	36.20833
29.024	43.54167
33.276	28.54167
37.524	38.875
41.769	27.54167
46.01	26.875
50.247	41.54167
54.481	51.875
58.712	54.54167
62.939	41.54167
67.162	54.20833
71.382	47.875
75.599	39.20833
79.812	44.875
84.021	65.54167
88.227	41.20833
92.429	51.875
96.628	35.875
100.823	50.20833
105.015	54.875
109.204	44.54167
113.388	59.54167
117.57	45.20833
121.748	56.875
125.922	48.875
130.093	62.20833
134.261	66.20833
138.425	52.20833
142.585	83.54167
146.742	59.20833
150.896	80.875
155.046	75.875
159.193	110.54167
163.336	164.54167
167.476	280.54167
171.613	516.54167
175.746	825.54167
179.875	1185.20833
184.002	1545.20833
188.124	1818.875
192.244	1911.54167
196.36	1921.54167
200.472	1903.54167
204.581	1878.54167
208.687	1827.54167
212.79	1811.20833
216.889	1832.54167
220.984	1873.54167
225.077	1857.54167
229.165	1863.875
233.251	1861.20833
237.333	1866.20833
241.412	1827.54167
245.487	1831.54167
249.559	1815.20833
253.628	1800.20833
257.694	1786.875
261.756	1772.20833
265.814	1745.20833
269.87	1702.20833
273.922	1660.875
277.97	1645.54167
282.016	1625.875
286.058	1627.20833
290.097	1638.875
294.132	1662.20833
298.164	1658.54167
302.193	1602.875
306.219	1503.54167
310.241	1402.54167
314.26	1312.20833
318.276	1266.54167
322.288	1221.875
326.297	1171.20833
330.303	1154.54167
334.305	1136.54167
338.305	1112.875
342.301	1123.54167
346.294	1115.875
350.283	1083.20833
354.269	1107.875
358.252	1085.875
362.232	1099.54167
366.209	1104.54167
370.182	1087.875
374.152	1076.54167
378.119	1080.54167
382.083	1068.20833
386.043	1096.54167
390	1063.875
393.954	1089.875
397.905	1086.54167
401.852	1102.875
405.797	1071.875
409.738	1077.54167
413.676	1083.875
417.61	1085.20833
421.542	1063.20833
425.47	1056.875
429.396	1059.875
433.318	1048.875
437.236	1046.54167
441.152	1078.875
445.065	1032.875
448.974	1040.875
452.88	1019.875
456.783	1026.875
460.683	1026.54167
464.58	1034.54167
468.473	1043.54167
472.364	1038.54167
476.251	1044.875
480.135	1047.54167
484.016	1052.20833
487.894	1065.875
491.769	1068.54167
495.641	1056.20833
499.509	1050.20833
503.375	1051.54167
507.237	1048.54167
511.096	1057.54167
514.952	1067.54167
518.805	1066.54167
522.655	1064.20833
526.502	1054.20833
530.346	1059.20833
534.187	1057.54167
538.024	1060.875
541.859	1048.875
545.69	1080.20833
549.519	1060.875
553.344	1049.54167
557.166	1035.20833
560.985	1044.54167
564.802	1040.54167
568.615	1019.20833
572.425	1003.20833
576.232	1013.20833
580.036	1002.20833
583.836	1007.20833
587.634	1010.875
591.429	1009.54167
595.221	1050.875
599.01	1027.20833
602.796	1022.54167
606.578	1028.54167
610.358	1039.20833
614.135	1026.875
617.909	1026.20833
621.679	1019.54167
625.447	1011.54167
629.212	1020.875
632.973	1030.875
636.732	1014.20833
640.488	1014.54167
644.241	1006.875
647.991	992.875
651.737	1036.875
655.481	983.20833
659.222	991.875
662.96	1004.20833
666.695	1005.54167
670.427	1013.20833
674.156	1017.875
677.882	1012.54167
681.605	1019.54167
685.325	997.20833
689.043	1013.54167
692.757	997.54167
696.468	994.20833
700.177	993.20833
703.882	971.875
707.585	979.875
711.284	980.20833
714.981	971.54167
718.675	968.875
722.366	973.875
726.054	971.20833
729.739	969.875
733.421	980.54167
737.1	980.20833
740.777	989.875
744.45	977.54167
748.121	975.20833
751.789	1024.20833
755.453	972.875
759.115	992.875
762.774	993.20833
766.431	990.875
770.084	1002.54167
773.734	1009.20833
777.382	1027.20833
781.027	1015.54167
784.669	1008.20833
788.308	1015.20833
791.944	1030.54167
795.577	1047.875
799.208	1034.20833
802.835	1046.20833
806.46	1040.54167
810.082	1032.54167
813.701	1036.20833
817.317	1054.54167
820.931	1053.875
824.542	1049.20833
828.149	1037.875
831.754	1036.54167
835.357	1019.54167
838.956	1023.20833
842.553	1032.20833
846.146	1015.54167
849.737	987.875
853.326	1015.54167
856.911	986.54167
860.493	1007.875
864.073	1021.875
867.65	1024.875
871.225	1042.54167
874.796	1027.54167
878.365	1019.54167
881.931	1029.54167
885.494	1043.875
889.054	1025.20833
892.612	1026.54167
896.166	1014.875
899.719	1009.875
903.268	983.20833
906.814	991.875
910.358	985.54167
913.899	974.54167
917.438	974.54167
920.973	950.54167
924.506	977.875
928.036	982.20833
931.564	995.875
935.088	1013.20833
938.61	996.54167
942.129	1005.875
945.646	1007.54167
949.16	1028.54167
952.671	1048.54167
956.179	1052.54167
959.685	1030.54167
963.188	1042.875
966.688	1037.20833
970.185	1013.875
973.68	968.20833
977.173	979.875
980.662	961.20833
984.149	978.875
987.633	952.875
991.114	980.875
994.593	991.875
998.069	994.875
1001.542	1028.875
1005.013	1013.875
1008.481	959.54167
1011.947	935.20833
1015.409	924.875
1018.869	944.875
1022.327	950.20833
1025.782	925.875
1029.234	915.875
1032.683	905.20833
1036.13	881.20833
1039.574	865.54167
1043.016	840.54167
1046.455	830.20833
1049.891	819.54167
1053.325	825.20833
1056.756	819.20833
1060.184	823.54167
1063.61	824.875
1067.033	829.875
1070.454	823.54167
1073.872	856.875
1077.287	829.875
1080.7	829.54167
1084.11	832.20833
1087.517	833.875
1090.922	818.20833
1094.325	796.54167
1097.724	793.20833
1101.122	798.875
1104.516	796.54167
1107.908	778.20833
1111.298	811.20833
1114.684	800.54167
1118.069	801.54167
1121.45	827.54167
1124.83	811.54167
1128.206	819.54167
1131.58	830.54167
1134.951	844.54167
1138.32	847.54167
1141.687	877.875
1145.05	901.875
1148.412	905.875
1151.77	889.875
1155.126	894.54167
1158.48	887.20833
1161.831	871.875
1165.18	885.54167
1168.525	902.20833
1171.869	903.54167
1175.21	907.20833
1178.548	918.875
1181.884	916.875
1185.217	930.54167
1188.548	960.875
1191.877	974.20833
1195.202	1010.875
1198.526	1027.875
1201.846	1025.20833
1205.165	1023.875
1208.48	1028.54167
1211.794	1030.20833
1215.104	1043.54167
1218.413	1024.875
1221.719	1019.875
1225.022	1001.54167
1228.323	973.875
1231.621	980.875
1234.917	981.20833
1238.21	1012.54167
1241.501	979.20833
1244.79	981.54167
1248.076	954.54167
1251.359	976.54167
1254.64	1013.875
1257.919	977.20833
1261.195	999.54167
1264.468	1018.54167
1267.74	1025.54167
1271.008	1022.54167
1274.275	1017.875
1277.538	1005.875
1280.8	1025.20833
1284.059	1012.54167
1287.315	1025.20833
1290.569	1025.20833
1293.821	1036.875
1297.07	1040.54167
1300.317	1047.20833
1303.562	1047.875
1306.803	1026.20833
1310.043	1029.54167
1313.28	1015.54167
1316.515	1002.875
1319.747	1016.875
1322.977	1004.875
1326.204	992.20833
1329.429	981.875
1332.652	987.875
1335.872	978.875
1339.09	957.20833
1342.306	970.875
1345.519	964.54167
1348.729	949.54167
1351.938	965.20833
1355.144	932.20833
1358.347	936.875
1361.548	930.20833
1364.747	934.875
1367.944	905.875
1371.138	927.54167
1374.329	919.20833
1377.518	923.54167
1380.705	928.20833
1383.89	927.20833
1387.072	893.20833
1390.252	862.875
1393.429	843.54167
1396.605	822.20833
1399.777	800.875
1402.948	786.54167
1406.116	776.875
1409.282	792.54167
1412.445	782.54167
1415.606	786.875
1418.765	802.875
1421.921	811.54167
1425.075	813.20833
1428.227	841.875
1431.376	868.54167
1434.524	899.875
1437.668	920.875
1440.811	912.875
1443.951	935.875
1447.089	928.54167
1450.224	930.54167
1453.357	926.875
1456.488	917.20833
1459.617	908.54167
1462.743	903.875
1465.867	874.875
1468.989	864.20833
1472.108	856.875
1475.225	831.20833
1478.34	827.20833
1481.453	819.875
1484.563	829.875
1487.671	823.875
1490.776	838.54167
1493.88	849.54167
1496.981	866.54167
1500.08	867.875
1503.176	869.20833
1506.271	877.875
1509.363	898.20833
1512.452	901.20833
1515.54	891.54167
1518.625	909.875
1521.708	939.20833
1524.789	956.54167
1527.867	975.20833
1530.944	1040.54167
1534.018	1055.20833
1537.089	1119.20833
1540.159	1115.20833
1543.226	1115.875
1546.291	1098.20833
1549.354	1081.875
1552.415	1055.54167
1555.473	1030.54167
1558.529	1023.54167
1561.583	1012.54167
1564.634	1010.54167
1567.684	1005.20833
1570.731	1003.875
1573.776	1004.54167
1576.819	1021.54167
1579.859	1020.875
1582.898	1046.54167
1585.934	1045.54167
1588.968	1054.20833
1591.999	1045.20833
1595.029	1040.54167
1598.056	1053.20833
1601.081	1082.54167
1604.104	1077.54167
1607.125	1044.20833
1610.144	1031.54167
1613.16	1007.20833
1616.174	973.875
1619.186	957.20833
1622.196	942.875
1625.203	914.54167
1628.209	920.875
1631.212	911.875
1634.213	911.875
1637.212	900.54167
1640.209	908.54167
1643.203	888.875
1646.196	857.54167
1649.186	819.875
1652.174	818.54167
1655.16	769.54167
1658.144	777.20833
1661.125	739.20833
1664.105	722.54167
1667.082	702.875
1670.057	652.875
1673.03	619.54167
1676.001	595.20833
1678.97	554.875
1681.937	536.875
1684.901	505.20833
1687.863	502.20833
1690.824	471.54167
1693.782	479.20833
1696.738	444.875
1699.692	454.54167
1702.643	432.875
1705.593	429.54167
1708.54	431.875
1711.486	438.20833
1714.429	411.20833
1717.37	421.20833
1720.309	413.54167
1723.246	417.20833
1726.181	400.20833
1729.113	400.54167
1732.044	404.54167
1734.972	389.875
1737.899	411.875
1740.823	406.54167
1743.745	427.875
1746.665	383.20833
1749.583	377.54167
1752.499	376.20833
1755.413	386.54167
1758.325	363.54167
1761.235	364.54167
1764.142	355.20833
1767.048	350.20833
1769.951	356.875
1772.852	355.20833
1775.752	368.875
1778.649	357.875
1781.544	362.875
1784.437	346.20833
1787.328	356.875
1790.217	341.20833
1793.104	323.20833
1795.989	336.54167
1798.872	329.54167
1801.753	346.20833
1804.631	340.875
1807.508	340.54167
1810.383	331.54167
1813.255	335.54167
1816.126	331.20833
1818.994	331.20833
1821.861	326.20833
1824.725	331.875
1827.587	342.875
1830.448	327.20833
1833.306	317.20833
1836.162	329.54167
1839.017	320.875
1841.869	328.20833
1844.719	314.54167
1847.567	301.54167
1850.414	303.875
1853.258	303.54167
1856.1	311.20833
1858.94	323.20833
1861.778	308.20833
1864.614	303.875
1867.448	317.54167
1870.28	300.54167
1873.111	319.20833
1875.939	313.20833
1878.765	323.54167
1881.589	309.20833
1884.411	308.54167
1887.231	315.54167
1890.049	312.875
1892.865	309.875
1895.68	297.875
1898.492	304.875
1901.302	301.54167
1904.11	297.54167
1906.916	299.875
1909.721	298.20833
1912.523	300.54167
1915.323	289.20833
1918.122	291.54167
1920.918	295.875
1923.712	291.20833
1926.505	290.20833
1929.295	272.20833
1932.084	294.875
1934.87	287.20833
1937.655	280.54167
1940.438	277.20833
1943.218	283.54167
1945.997	288.875
1948.774	289.875
1951.549	291.20833
1954.322	279.875
1957.093	277.54167
1959.862	278.54167
1962.629	276.875
1965.394	275.54167
1968.157	264.20833
1970.918	288.54167
1973.678	270.875
1976.435	282.54167
1979.19	264.875
1981.944	262.20833
1984.696	266.54167
1987.445	265.875
1990.193	265.54167
1992.939	282.875
1995.683	268.20833
1998.425	250.54167
2001.165	288.54167
2003.903	254.875
2006.639	260.54167
2009.374	272.54167
2012.106	271.875
2014.837	243.54167
2017.566	269.875
2020.292	258.875
2023.017	254.20833
2025.74	246.875
2028.461	248.54167
2031.18	263.875
2033.898	250.20833
2036.613	253.20833
2039.327	247.875
2042.038	245.20833
2044.748	250.20833
2047.456	257.20833
2050.162	245.20833
2052.866	250.54167
2055.568	265.54167
2058.268	243.54167
2060.967	253.875
2063.663	242.875
2066.358	235.875
2069.051	236.875
2071.742	245.875
2074.431	246.875
2077.118	243.20833
2079.804	237.20833
2082.487	241.54167
2085.169	252.20833
2087.849	260.20833
2090.527	235.875
2093.203	244.54167
2095.877	247.875
2098.55	239.54167
2101.22	249.875
2103.889	253.20833
2106.556	243.875
2109.221	256.875
2111.884	244.875
2114.546	266.875
2117.205	272.875
2119.863	307.54167
2122.519	298.875
2125.173	320.875
2127.825	341.875
2130.475	346.54167
2133.124	321.20833
2135.771	314.875
2138.416	317.875
2141.059	298.54167
2143.7	290.20833
2146.339	276.54167
2148.977	250.20833
2151.613	257.54167
2154.247	252.875
2156.879	248.20833
2159.51	239.20833
2162.138	243.20833
2164.765	239.875
2167.39	223.875
2170.013	247.875
2172.634	242.20833
2175.254	230.54167
2177.872	268.875
2180.488	220.875
2183.102	215.54167
2185.714	226.875
2188.325	209.20833
2190.934	222.54167
2193.541	227.875
2196.146	220.875
2198.75	212.875
2201.351	214.20833
2203.951	192.875
2206.549	219.875
2209.146	216.54167
2211.74	197.20833
2214.333	212.875
2216.924	198.20833
2219.514	211.54167
2222.101	199.875
2224.687	213.54167
2227.271	193.875
2229.853	197.875
2232.433	188.54167
2235.012	214.20833
2237.589	201.875
2240.164	215.20833
2242.738	194.20833
2245.309	194.875
2247.879	206.54167
2250.448	206.20833
2253.014	188.875
2255.579	181.20833
2258.142	188.54167
2260.703	189.875
2263.262	189.20833
2265.82	176.54167
2268.376	195.54167
2270.93	179.875
2273.483	176.20833
2276.033	185.20833
2278.583	178.875
2281.13	181.20833
2283.675	172.54167
2286.219	181.54167
2288.761	190.54167
2291.302	185.20833
2293.841	194.875
2296.377	175.54167
2298.913	185.54167
2301.446	195.20833
2303.978	180.875
2306.508	178.875
2309.037	181.875
2311.563	179.20833
2314.088	183.20833
2316.612	168.20833
2319.133	180.20833
2321.653	184.54167
2324.171	170.20833
2326.688	187.20833
2329.202	173.20833
2331.715	179.875
2334.227	176.875
2336.736	175.875
2339.244	166.54167
2341.751	158.54167
2344.255	178.20833
2346.758	174.875
2349.259	165.20833
2351.759	178.875
2354.257	161.875
2356.753	161.875
2359.247	160.875
2361.74	165.875
2364.231	168.20833
2366.721	175.54167
2369.209	163.54167
2371.695	167.875
2374.179	160.875
2376.662	156.875
2379.143	178.54167
2381.622	159.54167
2384.1	164.54167
2386.576	157.54167
2389.051	177.20833
2391.524	174.20833
2393.995	172.20833
2396.464	162.20833
2398.932	157.20833
2401.398	166.20833
2403.863	159.20833
2406.325	153.54167
2408.787	165.875
2411.246	165.875
2413.704	158.54167
2416.16	157.875
2418.615	153.54167
2421.068	163.20833
2423.519	156.54167
2425.969	150.54167
2428.417	168.20833
2430.863	176.54167
2433.308	170.20833
2435.751	165.875
2438.193	156.875
2440.633	157.875
2443.071	164.875
2445.508	155.20833
2447.943	154.20833
2450.376	155.54167
2452.808	156.875
2455.238	148.875
2457.667	176.875
2460.093	144.875
2462.519	144.20833
2464.942	150.54167
2467.365	154.875
2469.785	153.54167
2472.204	146.20833
2474.621	151.54167
2477.037	166.875
2479.451	141.20833
2481.863	140.20833
2484.274	143.875
2486.683	154.20833
2489.091	160.20833
2491.497	158.54167
2493.901	157.20833
2496.304	146.54167
2498.705	158.54167
2501.105	150.875
2503.503	168.54167
2505.899	138.20833
2508.294	165.875
2510.687	145.54167
2513.079	143.54167
2515.469	137.875
2517.858	144.20833
2520.245	162.20833
2522.63	146.20833
2525.014	142.54167
2527.396	143.20833
2529.776	146.54167
2532.156	149.20833
2534.533	138.54167
2536.909	134.875
2539.283	124.20833
2541.656	137.875
2544.027	151.875
2546.397	145.20833
2548.765	138.54167
2551.131	146.54167
2553.496	146.875
2555.86	150.54167
2558.221	147.875
2560.582	140.54167
2562.94	130.20833
2565.298	138.54167
2567.653	150.54167
2570.007	131.875
2572.36	149.875
2574.711	133.20833
2577.06	153.20833
2579.408	142.875
2581.754	145.875
2584.099	139.875
2586.442	136.875
2588.784	144.20833
2591.124	137.54167
2593.463	138.20833
2595.8	146.20833
2598.135	125.54167
2600.469	137.54167
2602.802	146.875
2605.133	154.54167
2607.462	136.20833
2609.79	128.875
2612.116	150.20833
2614.441	130.54167
2616.764	140.20833
2619.086	141.54167
2621.406	136.20833
2623.725	146.875
2626.042	132.20833
2628.358	126.20833
2630.672	138.20833
2632.985	143.20833
2635.296	142.20833
2637.606	135.20833
2639.914	130.54167
2642.22	129.20833
2644.525	137.54167
2646.829	137.20833
2649.131	147.875
2651.432	141.875
2653.731	127.875
2656.028	146.20833
2658.324	142.20833
2660.619	128.20833
2662.912	146.875
2665.204	128.20833
2667.494	140.20833
2669.782	131.20833
2672.07	148.875
2674.355	146.875
2676.639	139.20833
2678.922	137.20833
2681.203	144.20833
2683.483	130.875
2685.761	127.54167
2688.038	148.20833
2690.313	150.54167
2692.587	146.875
2694.859	138.54167
2697.13	134.20833
2699.399	140.20833
2701.667	147.20833
2703.933	137.875
2706.198	154.20833
2708.461	149.20833
2710.723	145.875
2712.984	141.54167
2715.243	150.875
2717.5	146.20833
2719.757	153.20833
2722.011	145.20833
2724.264	152.54167
2726.516	159.875
2728.766	132.54167
2731.015	146.54167
2733.262	142.54167
2735.508	147.54167
2737.753	147.54167
2739.996	129.54167
2742.237	143.54167
2744.477	152.20833
2746.716	154.54167
2748.953	147.20833
2751.189	158.875
2753.423	147.875
2755.656	136.54167
2757.887	133.875
2760.117	143.54167
2762.346	137.20833
2764.573	121.54167
2766.798	135.20833
2769.022	134.54167
2771.245	132.20833
2773.467	139.20833
2775.686	134.20833
2777.905	138.875
2780.122	141.54167
2782.337	139.20833
2784.552	139.54167
2786.764	136.20833
2788.976	134.54167
2791.186	141.20833
2793.394	141.875
2795.601	149.54167
2797.807	146.875
2800.011	146.54167
2802.214	150.875
2804.415	148.20833
2806.615	143.54167
2808.814	148.875
2811.011	151.20833
2813.206	153.20833
2815.401	164.20833
2817.594	162.20833
2819.785	163.20833
2821.975	147.20833
2824.164	155.875
2826.351	153.875
2828.537	171.54167
2830.722	169.875
2832.905	165.54167
2835.086	168.54167
2837.267	186.54167
2839.445	186.875
2841.623	181.54167
2843.799	188.875
2845.974	195.20833
2848.147	194.875
2850.319	213.875
2852.489	215.54167
2854.659	217.875
2856.826	226.875
2858.993	238.875
2861.158	211.875
2863.321	221.54167
2865.483	234.875
2867.644	229.875
2869.804	234.20833
2871.962	226.20833
2874.118	230.20833
2876.274	232.54167
2878.428	230.875
2880.58	230.875
2882.731	215.54167
2884.881	231.20833
2887.03	232.54167
2889.177	233.54167
2891.322	239.54167
2893.467	222.875
2895.61	227.54167
2897.751	242.54167
2899.892	224.54167
2902.03	230.20833
2904.168	229.54167
2906.304	232.875
2908.439	252.54167
2910.572	229.875
2912.704	239.875
2914.835	240.54167
2916.965	232.875
2919.093	256.875
2921.219	224.20833
2923.345	254.54167
2925.469	244.20833
2927.591	227.875
2929.712	222.20833
2931.832	235.875
2933.951	225.54167
2936.068	218.20833
2938.184	222.20833
2940.299	212.20833
2942.412	201.54167
2944.524	191.875
2946.634	203.20833
2948.744	179.54167
2950.851	212.20833
2952.958	179.20833
2955.063	192.54167
2957.167	250.875
2959.269	188.20833
2961.371	197.875
2963.471	165.20833
2965.569	187.875
2967.666	158.875
2969.762	157.20833
2971.857	154.875
2973.95	146.54167
2976.042	158.54167
2978.133	149.20833
2980.222	149.875
2982.31	138.20833
2984.396	127.875
2986.482	131.54167
2988.566	139.54167
2990.648	142.54167
2992.73	134.875
2994.81	121.875
2996.889	143.54167
2998.966	130.875
3001.042	143.20833
3003.117	127.875
3005.191	140.20833
3007.263	137.54167
3009.334	133.20833
3011.403	132.54167
3013.472	131.54167
3015.539	139.20833
3017.604	146.875
3019.669	116.54167
3021.732	126.54167
3023.794	126.875
3025.854	116.875
3027.914	112.875
3029.971	115.54167
3032.028	118.54167
3034.083	123.875
3036.137	124.20833
3038.19	108.54167
3040.242	106.20833
3042.292	104.875
3044.341	109.875
3046.388	123.54167
3048.435	98.875
3050.48	122.54167
3052.524	113.875
3054.566	95.54167
3056.607	105.54167
3058.647	102.54167
3060.686	95.20833
3062.723	90.875
3064.759	94.20833
3066.794	0.875
3068.828	-1.79167
3070.86	3.54167
