-0.839	144.70833
3.438	159.375
7.711	68.70833
11.981	41.70833
16.247	33.04167
20.509	39.70833
24.768	36.04167
29.024	44.70833
33.276	32.04167
37.524	43.70833
41.769	32.04167
46.01	29.375
50.247	47.375
54.481	51.70833
58.712	60.70833
62.939	35.70833
67.162	56.70833
71.382	48.375
75.599	40.375
79.812	46.04167
84.021	66.70833
88.227	45.375
92.429	55.70833
96.628	41.04167
100.823	56.375
105.015	52.70833
109.204	48.04167
113.388	59.04167
117.57	50.70833
121.748	62.375
125.922	53.375
130.093	71.04167
134.261	69.04167
138.425	59.70833
142.585	94.70833
146.742	67.70833
150.896	87.70833
155.046	89.04167
159.193	133.04167
163.336	198.375
167.476	341.70833
171.613	614.70833
175.746	1003.375
179.875	1487.375
184.002	1956.70833
188.124	2321.04167
192.244	2463.375
196.36	2518.70833
200.472	2496.375
204.581	2463.70833
208.687	2406.375
212.79	2414.70833
216.889	2445.375
220.984	2474.375
225.077	2492.375
229.165	2495.70833
233.251	2514.70833
237.333	2518.375
241.412	2492.70833
245.487	2482.70833
249.559	2447.70833
253.628	2434.70833
257.694	2438.04167
261.756	2459.70833
265.814	2421.70833
269.87	2377.70833
273.922	2313.04167
277.97	2319.04167
282.016	2312.70833
286.058	2289.375
290.097	2326.04167
294.132	2388.04167
298.164	2362.70833
302.193	2311.70833
306.219	2174.375
310.241	2088.375
314.26	1990.70833
318.276	1917.70833
322.288	1878.375
326.297	1822.70833
330.303	1828.70833
334.305	1801.04167
338.305	1794.04167
342.301	1805.375
346.294	1798.375
350.283	1785.70833
354.269	1778.375
358.252	1770.70833
362.232	1788.04167
366.209	1779.04167
370.182	1759.375
374.152	1759.70833
378.119	1781.70833
382.083	1752.70833
386.043	1793.04167
390	1761.70833
393.954	1800.375
397.905	1791.04167
401.852	1808.04167
405.797	1797.375
409.738	1784.04167
413.676	1801.04167
417.61	1818.375
421.542	1808.375
425.47	1776.70833
429.396	1779.375
433.318	1740.375
437.236	1776.70833
441.152	1810.70833
445.065	1761.04167
448.974	1778.04167
452.88	1752.375
456.783	1750.375
460.683	1736.375
464.58	1758.375
468.473	1786.70833
472.364	1764.375
476.251	1772.70833
480.135	1771.375
484.016	1781.04167
487.894	1796.70833
491.769	1825.04167
495.641	1781.70833
499.509	1808.04167
503.375	1812.04167
507.237	1774.04167
511.096	1775.04167
514.952	1772.70833
518.805	1776.70833
522.655	1769.375
526.502	1754.375
530.346	1804.70833
534.187	1790.04167
538.024	1789.375
541.859	1768.04167
545.69	1804.375
549.519	1789.04167
553.344	1786.04167
557.166	1754.70833
560.985	1760.70833
564.802	1747.375
568.615	1735.375
572.425	1710.70833
576.232	1708.375
580.036	1707.375
583.836	1712.70833
587.634	1704.375
591.429	1716.04167
595.221	1746.70833
599.01	1722.70833
602.796	1736.04167
606.578	1747.375
610.358	1756.04167
614.135	1748.04167
617.909	1744.70833
621.679	1739.04167
625.447	1707.375
629.212	1736.04167
632.973	1734.04167
636.732	1693.04167
640.488	1702.04167
644.241	1684.375
647.991	1696.375
651.737	1719.375
655.481	1659.04167
659.222	1670.04167
662.96	1691.375
666.695	1702.375
670.427	1697.375
674.156	1706.70833
677.882	1698.70833
681.605	1695.375
685.325	1681.04167
689.043	1719.375
692.757	1676.04167
696.468	1675.70833
700.177	1669.375
703.882	1638.70833
707.585	1627.70833
711.284	1622.375
714.981	1620.04167
718.675	1604.04167
722.366	1622.04167
726.054	1603.375
729.739	1615.375
733.421	1606.04167
737.1	1612.70833
740.777	1621.70833
744.45	1610.04167
748.121	1622.375
751.789	1643.70833
755.453	1629.375
759.115	1624.04167
762.774	1627.70833
766.431	1619.375
770.084	1626.04167
773.734	1623.70833
777.382	1636.375
781.027	1631.375
784.669	1629.04167
788.308	1618.375
791.944	1639.04167
795.577	1629.375
799.208	1663.70833
802.835	1628.375
806.46	1653.70833
810.082	1648.375
813.701	1659.375
817.317	1667.70833
820.931	1657.04167
824.542	1671.04167
828.149	1632.375
831.754	1613.70833
835.357	1596.70833
838.956	1634.375
842.553	1624.375
846.146	1595.04167
849.737	1569.70833
853.326	1545.70833
856.911	1547.375
860.493	1566.70833
864.073	1576.70833
867.65	1580.04167
871.225	1574.70833
874.796	1570.375
878.365	1564.375
881.931	1562.70833
885.494	1585.375
889.054	1563.04167
892.612	1580.04167
896.166	1554.70833
899.719	1546.70833
903.268	1507.375
906.814	1524.70833
910.358	1502.04167
913.899	1472.04167
917.438	1479.375
920.973	1474.375
924.506	1492.70833
928.036	1511.375
931.564	1504.04167
935.088	1545.70833
938.61	1514.70833
942.129	1517.70833
945.646	1540.04167
949.16	1537.70833
952.671	1550.70833
956.179	1572.70833
959.685	1539.375
963.188	1551.375
966.688	1537.04167
970.185	1509.375
973.68	1467.70833
977.173	1468.375
980.662	1448.70833
984.149	1462.04167
987.633	1453.375
991.114	1465.04167
994.593	1470.70833
998.069	1509.70833
1001.542	1515.70833
1005.013	1500.04167
1008.481	1450.04167
1011.947	1416.375
1015.409	1399.375
1018.869	1417.70833
1022.327	1407.04167
1025.782	1388.375
1029.234	1380.70833
1032.683	1374.70833
1036.13	1332.375
1039.574	1297.375
1043.016	1263.375
1046.455	1264.70833
1049.891	1248.70833
1053.325	1256.04167
1056.756	1241.04167
1060.184	1247.375
1063.61	1242.70833
1067.033	1243.70833
1070.454	1256.04167
1073.872	1279.375
1077.287	1249.70833
1080.7	1242.70833
1084.11	1249.04167
1087.517	1236.70833
1090.922	1231.70833
1094.325	1201.375
1097.724	1208.04167
1101.122	1196.04167
1104.516	1189.375
1107.908	1172.04167
1111.298	1175.375
1114.684	1201.04167
1118.069	1204.04167
1121.45	1202.70833
1124.83	1197.375
1128.206	1212.375
1131.58	1227.375
1134.951	1238.70833
1138.32	1261.04167
1141.687	1287.04167
1145.05	1301.04167
1148.412	1308.70833
1151.77	1303.375
1155.126	1286.375
1158.48	1265.04167
1161.831	1282.70833
1165.18	1281.375
1168.525	1282.70833
1171.869	1281.04167
1175.21	1292.375
1178.548	1287.04167
1181.884	1314.375
1185.217	1296.375
1188.548	1325.375
1191.877	1352.04167
1195.202	1407.04167
1198.526	1418.70833
1201.846	1413.04167
1205.165	1412.04167
1208.48	1426.375
1211.794	1417.375
1215.104	1430.04167
1218.413	1396.04167
1221.719	1390.375
1225.022	1384.375
1228.323	1372.04167
1231.621	1369.04167
1234.917	1356.04167
1238.21	1370.375
1241.501	1339.70833
1244.79	1338.375
1248.076	1332.04167
1251.359	1336.04167
1254.64	1393.04167
1257.919	1369.70833
1261.195	1402.375
1264.468	1408.04167
1267.74	1417.04167
1271.008	1418.375
1274.275	1416.04167
1277.538	1397.375
1280.8	1407.375
1284.059	1402.70833
1287.315	1418.375
1290.569	1398.70833
1293.821	1405.70833
1297.07	1393.375
1300.317	1393.04167
1303.562	1386.375
1306.803	1379.375
1310.043	1379.04167
1313.28	1382.375
1316.515	1365.375
1319.747	1377.04167
1322.977	1351.04167
1326.204	1366.375
1329.429	1343.70833
1332.652	1337.375
1335.872	1346.70833
1339.09	1314.04167
1342.306	1319.04167
1345.519	1308.70833
1348.729	1317.04167
1351.938	1312.375
1355.144	1288.70833
1358.347	1280.70833
1361.548	1280.04167
1364.747	1279.04167
1367.944	1252.70833
1371.138	1252.70833
1374.329	1246.04167
1377.518	1246.04167
1380.705	1243.04167
1383.89	1242.04167
1387.072	1220.04167
1390.252	1197.70833
1393.429	1161.70833
1396.605	1136.375
1399.777	1120.04167
1402.948	1108.70833
1406.116	1102.70833
1409.282	1098.375
1412.445	1092.04167
1415.606	1106.70833
1418.765	1102.70833
1421.921	1118.70833
1425.075	1133.70833
1428.227	1145.04167
1431.376	1173.70833
1434.524	1194.70833
1437.668	1214.375
1440.811	1233.375
1443.951	1243.04167
1447.089	1273.375
1450.224	1243.375
1453.357	1237.70833
1456.488	1238.70833
1459.617	1229.04167
1462.743	1201.70833
1465.867	1170.375
1468.989	1173.04167
1472.108	1167.04167
1475.225	1144.04167
1478.34	1137.375
1481.453	1113.04167
1484.563	1123.04167
1487.671	1119.70833
1490.776	1138.70833
1493.88	1155.04167
1496.981	1151.375
1500.08	1154.04167
1503.176	1152.04167
1506.271	1173.04167
1509.363	1190.70833
1512.452	1186.04167
1515.54	1202.70833
1518.625	1196.70833
1521.708	1228.04167
1524.789	1252.04167
1527.867	1276.70833
1530.944	1335.375
1534.018	1369.04167
1537.089	1424.04167
1540.159	1431.375
1543.226	1421.04167
1546.291	1391.70833
1549.354	1388.04167
1552.415	1361.70833
1555.473	1331.04167
1558.529	1312.04167
1561.583	1300.04167
1564.634	1291.375
1567.684	1281.04167
1570.731	1285.375
1573.776	1287.70833
1576.819	1301.375
1579.859	1316.04167
1582.898	1316.70833
1585.934	1315.04167
1588.968	1337.04167
1591.999	1303.70833
1595.029	1303.04167
1598.056	1328.375
1601.081	1341.04167
1604.104	1346.04167
1607.125	1338.70833
1610.144	1305.04167
1613.16	1287.70833
1616.174	1254.70833
1619.186	1263.375
1622.196	1222.70833
1625.203	1195.04167
1628.209	1199.04167
1631.212	1180.375
1634.213	1171.70833
1637.212	1188.04167
1640.209	1184.375
1643.203	1149.375
1646.196	1116.70833
1649.186	1089.70833
1652.174	1070.04167
1655.16	1052.04167
1658.144	1034.70833
1661.125	984.04167
1664.105	971.70833
1667.082	928.375
1670.057	889.375
1673.03	832.375
1676.001	792.375
1678.97	748.70833
1681.937	725.70833
1684.901	701.375
1687.863	693.70833
1690.824	656.04167
1693.782	674.375
1696.738	621.70833
1699.692	634.375
1702.643	607.04167
1705.593	605.70833
1708.54	605.04167
1711.486	617.70833
1714.429	593.04167
1717.37	600.04167
1720.309	589.70833
1723.246	591.04167
1726.181	575.04167
1729.113	572.70833
1732.044	582.04167
1734.972	576.375
1737.899	578.375
1740.823	579.375
1743.745	600.70833
1746.665	560.70833
1749.583	539.70833
1752.499	551.04167
1755.413	537.04167
1758.325	524.70833
1761.235	533.70833
1764.142	524.375
1767.048	514.70833
1769.951	531.70833
1772.852	514.70833
1775.752	523.70833
1778.649	521.70833
1781.544	522.375
1784.437	505.04167
1787.328	516.04167
1790.217	505.70833
1793.104	495.04167
1795.989	485.04167
1798.872	485.70833
1801.753	507.04167
1804.631	487.70833
1807.508	495.04167
1810.383	502.04167
1813.255	491.70833
1816.126	491.70833
1818.994	489.04167
1821.861	483.04167
1824.725	478.70833
1827.587	467.375
1830.448	473.70833
1833.306	462.70833
1836.162	477.04167
1839.017	462.04167
1841.869	463.375
1844.719	467.375
1847.567	449.04167
1850.414	438.04167
1853.258	452.04167
1856.1	465.375
1858.94	467.04167
1861.778	451.04167
1864.614	447.04167
1867.448	446.70833
1870.28	438.04167
1873.111	461.375
1875.939	439.70833
1878.765	469.04167
1881.589	434.70833
1884.411	437.375
1887.231	452.04167
1890.049	441.375
1892.865	446.375
1895.68	430.04167
1898.492	435.70833
1901.302	429.375
1904.11	431.70833
1906.916	430.04167
1909.721	423.04167
1912.523	437.375
1915.323	414.04167
1918.122	420.70833
1920.918	424.70833
1923.712	414.04167
1926.505	425.375
1929.295	400.04167
1932.084	419.70833
1934.87	408.70833
1937.655	409.04167
1940.438	405.70833
1943.218	403.375
1945.997	404.70833
1948.774	414.04167
1951.549	420.375
1954.322	408.04167
1957.093	411.70833
1959.862	395.375
1962.629	389.70833
1965.394	392.04167
1968.157	384.04167
1970.918	397.04167
1973.678	394.70833
1976.435	399.375
1979.19	387.70833
1981.944	374.70833
1984.696	384.04167
1987.445	374.375
1990.193	380.375
1992.939	388.70833
1995.683	381.375
1998.425	364.70833
2001.165	396.375
2003.903	359.375
2006.639	371.375
2009.374	379.375
2012.106	371.375
2014.837	354.04167
2017.566	379.375
2020.292	360.375
2023.017	366.04167
2025.74	360.375
2028.461	354.70833
2031.18	364.04167
2033.898	352.70833
2036.613	362.375
2039.327	368.70833
2042.038	348.04167
2044.748	356.70833
2047.456	363.04167
2050.162	350.375
2052.866	354.375
2055.568	359.70833
2058.268	350.04167
2060.967	352.375
2063.663	342.375
2066.358	336.375
2069.051	335.70833
2071.742	343.70833
2074.431	351.375
2077.118	339.04167
2079.804	323.04167
2082.487	336.04167
2085.169	355.70833
2087.849	354.04167
2090.527	334.04167
2093.203	333.04167
2095.877	334.70833
2098.55	336.70833
2101.22	338.375
2103.889	343.04167
2106.556	334.70833
2109.221	354.375
2111.884	348.04167
2114.546	366.375
2117.205	372.70833
2119.863	404.70833
2122.519	398.375
2125.173	428.70833
2127.825	453.04167
2130.475	453.70833
2133.124	436.70833
2135.771	423.70833
2138.416	431.04167
2141.059	394.04167
2143.7	395.04167
2146.339	371.375
2148.977	339.04167
2151.613	344.70833
2154.247	350.375
2156.879	337.375
2159.51	327.375
2162.138	327.70833
2164.765	322.04167
2167.39	305.70833
2170.013	336.04167
2172.634	324.04167
2175.254	320.70833
2177.872	344.70833
2180.488	307.375
2183.102	311.375
2185.714	294.70833
2188.325	297.375
2190.934	304.375
2193.541	305.375
2196.146	299.70833
2198.75	283.375
2201.351	284.04167
2203.951	274.70833
2206.549	286.04167
2209.146	282.375
2211.74	275.70833
2214.333	287.375
2216.924	266.04167
2219.514	280.04167
2222.101	268.04167
2224.687	283.375
2227.271	266.375
2229.853	265.375
2232.433	249.375
2235.012	279.375
2237.589	270.375
2240.164	279.70833
2242.738	263.375
2245.309	260.375
2247.879	272.70833
2250.448	280.04167
2253.014	251.04167
2255.579	247.70833
2258.142	255.04167
2260.703	258.04167
2263.262	250.04167
2265.82	236.70833
2268.376	266.04167
2270.93	244.70833
2273.483	238.375
2276.033	251.375
2278.583	239.375
2281.13	244.70833
2283.675	231.375
2286.219	245.70833
2288.761	248.04167
2291.302	245.375
2293.841	252.70833
2296.377	232.04167
2298.913	238.375
2301.446	252.375
2303.978	241.375
2306.508	235.04167
2309.037	236.70833
2311.563	231.70833
2314.088	237.70833
2316.612	227.04167
2319.133	243.04167
2321.653	233.70833
2324.171	226.04167
2326.688	240.70833
2329.202	225.70833
2331.715	227.04167
2334.227	230.70833
2336.736	229.04167
2339.244	220.375
2341.751	214.70833
2344.255	230.04167
2346.758	226.375
2349.259	216.375
2351.759	230.70833
2354.257	211.375
2356.753	212.04167
2359.247	205.70833
2361.74	209.70833
2364.231	216.70833
2366.721	226.70833
2369.209	210.04167
2371.695	212.04167
2374.179	208.04167
2376.662	202.375
2379.143	222.375
2381.622	207.375
2384.1	209.375
2386.576	206.70833
2389.051	224.04167
2391.524	221.375
2393.995	218.375
2396.464	202.375
2398.932	207.70833
2401.398	210.375
2403.863	202.04167
2406.325	201.375
2408.787	203.375
2411.246	197.70833
2413.704	201.04167
2416.16	196.375
2418.615	197.375
2421.068	204.04167
2423.519	195.70833
2425.969	189.70833
2428.417	205.375
2430.863	214.04167
2433.308	206.70833
2435.751	201.04167
2438.193	199.04167
2440.633	201.375
2443.071	198.70833
2445.508	190.375
2447.943	192.70833
2450.376	188.70833
2452.808	200.04167
2455.238	186.04167
2457.667	217.04167
2460.093	181.375
2462.519	177.70833
2464.942	186.04167
2467.365	194.375
2469.785	196.04167
2472.204	179.04167
2474.621	187.70833
2477.037	203.375
2479.451	179.04167
2481.863	176.70833
2484.274	177.04167
2486.683	186.04167
2489.091	186.375
2491.497	181.04167
2493.901	183.375
2496.304	174.70833
2498.705	191.04167
2501.105	179.375
2503.503	197.70833
2505.899	171.70833
2508.294	195.04167
2510.687	173.70833
2513.079	178.04167
2515.469	171.375
2517.858	172.375
2520.245	193.04167
2522.63	167.375
2525.014	171.375
2527.396	166.375
2529.776	163.375
2532.156	172.04167
2534.533	165.375
2536.909	160.04167
2539.283	152.70833
2541.656	166.04167
2544.027	176.375
2546.397	174.04167
2548.765	168.04167
2551.131	173.375
2553.496	178.04167
2555.86	179.375
2558.221	171.70833
2560.582	163.70833
2562.94	159.04167
2565.298	165.70833
2567.653	177.375
2570.007	151.375
2572.36	170.04167
2574.711	160.375
2577.06	176.375
2579.408	164.375
2581.754	156.04167
2584.099	167.04167
2586.442	159.70833
2588.784	164.70833
2591.124	162.04167
2593.463	159.375
2595.8	167.375
2598.135	153.375
2600.469	153.375
2602.802	165.375
2605.133	174.04167
2607.462	155.70833
2609.79	145.04167
2612.116	164.70833
2614.441	152.375
2616.764	159.04167
2619.086	163.375
2621.406	145.70833
2623.725	158.04167
2626.042	156.70833
2628.358	154.04167
2630.672	156.375
2632.985	167.70833
2635.296	156.375
2637.606	155.375
2639.914	152.375
2642.22	150.375
2644.525	152.04167
2646.829	155.375
2649.131	165.375
2651.432	164.375
2653.731	149.70833
2656.028	162.70833
2658.324	159.04167
2660.619	148.70833
2662.912	167.375
2665.204	145.70833
2667.494	153.375
2669.782	145.70833
2672.07	158.70833
2674.355	162.04167
2676.639	154.375
2678.922	146.375
2681.203	155.70833
2683.483	151.375
2685.761	137.70833
2688.038	155.375
2690.313	166.375
2692.587	152.70833
2694.859	151.04167
2697.13	149.04167
2699.399	153.375
2701.667	162.04167
2703.933	154.70833
2706.198	164.04167
2708.461	164.70833
2710.723	162.375
2712.984	157.04167
2715.243	155.375
2717.5	152.04167
2719.757	162.375
2722.011	156.70833
2724.264	156.04167
2726.516	168.04167
2728.766	145.04167
2731.015	158.04167
2733.262	156.04167
2735.508	152.375
2737.753	162.04167
2739.996	145.375
2742.237	145.70833
2744.477	158.375
2746.716	162.375
2748.953	161.375
2751.189	165.04167
2753.423	156.375
2755.656	149.375
2757.887	139.70833
2760.117	142.70833
2762.346	142.375
2764.573	131.375
2766.798	140.04167
2769.022	142.70833
2771.245	138.375
2773.467	140.375
2775.686	139.04167
2777.905	147.04167
2780.122	143.375
2782.337	153.04167
2784.552	139.04167
2786.764	141.04167
2788.976	140.375
2791.186	148.70833
2793.394	144.375
2795.601	152.70833
2797.807	153.04167
2800.011	149.04167
2802.214	158.375
2804.415	152.04167
2806.615	151.70833
2808.814	148.70833
2811.011	163.375
2813.206	157.70833
2815.401	169.375
2817.594	167.04167
2819.785	170.04167
2821.975	151.375
2824.164	164.70833
2826.351	158.70833
2828.537	174.375
2830.722	166.70833
2832.905	167.375
2835.086	171.04167
2837.267	195.70833
2839.445	194.70833
2841.623	192.375
2843.799	189.375
2845.974	203.04167
2848.147	207.70833
2850.319	215.375
2852.489	222.375
2854.659	233.04167
2856.826	228.04167
2858.993	250.375
2861.158	221.375
2863.321	229.70833
2865.483	248.375
2867.644	250.70833
2869.804	241.70833
2871.962	238.04167
2874.118	239.70833
2876.274	239.04167
2878.428	236.375
2880.58	242.04167
2882.731	232.70833
2884.881	239.375
2887.03	241.04167
2889.177	241.70833
2891.322	245.04167
2893.467	230.70833
2895.61	236.04167
2897.751	253.70833
2899.892	241.04167
2902.03	245.70833
2904.168	239.04167
2906.304	239.375
2908.439	259.375
2910.572	242.70833
2912.704	244.375
2914.835	253.04167
2916.965	249.04167
2919.093	261.04167
2921.219	236.375
2923.345	265.375
2925.469	254.70833
2927.591	246.70833
2929.712	231.70833
2931.832	246.04167
2933.951	231.70833
2936.068	219.70833
2938.184	222.375
2940.299	210.04167
2942.412	212.04167
2944.524	189.70833
2946.634	208.375
2948.744	180.70833
2950.851	219.04167
2952.958	181.04167
2955.063	183.70833
2957.167	182.375
2959.269	159.375
2961.371	191.70833
2963.471	160.375
2965.569	185.04167
2967.666	151.04167
2969.762	152.04167
2971.857	149.04167
2973.95	140.70833
2976.042	152.04167
2978.133	143.375
2980.222	143.04167
2982.31	133.70833
2984.396	113.70833
2986.482	123.70833
2988.566	130.375
2990.648	126.375
2992.73	127.04167
2994.81	114.04167
2996.889	133.375
2998.966	123.375
3001.042	127.375
3003.117	117.375
3005.191	125.70833
3007.263	127.04167
3009.334	120.04167
3011.403	120.04167
3013.472	113.375
3015.539	129.04167
3017.604	139.375
3019.669	105.375
3021.732	112.375
3023.794	115.04167
3025.854	100.375
3027.914	100.375
3029.971	104.375
3032.028	108.70833
3034.083	112.375
3036.137	110.04167
3038.19	95.70833
3040.242	96.70833
3042.292	86.375
3044.341	98.04167
3046.388	113.375
3048.435	90.70833
3050.48	109.04167
3052.524	96.70833
3054.566	84.70833
3056.607	96.04167
3058.647	93.04167
3060.686	82.04167
3062.723	75.70833
3064.759	78.70833
3066.794	1.04167
3068.828	-0.95833
3070.86	1.70833
