-0.839	137.95833
3.438	164.95833
7.711	65.95833
11.981	43.29167
16.247	29.95833
20.509	39.95833
24.768	34.95833
29.024	45.625
33.276	31.95833
37.524	42.95833
41.769	32.95833
46.01	29.29167
50.247	43.95833
54.481	52.625
58.712	54.625
62.939	37.95833
67.162	55.625
71.382	45.29167
75.599	35.625
79.812	41.29167
84.021	63.29167
88.227	39.95833
92.429	52.29167
96.628	39.29167
100.823	53.29167
105.015	53.29167
109.204	43.29167
113.388	58.625
117.57	42.95833
121.748	64.625
125.922	51.29167
130.093	66.625
134.261	68.625
138.425	54.29167
142.585	88.29167
146.742	70.29167
150.896	79.625
155.046	74.625
159.193	117.29167
163.336	176.29167
167.476	298.29167
171.613	534.29167
175.746	883.29167
179.875	1270.95833
184.002	1648.95833
188.124	1954.29167
192.244	2054.29167
196.36	2063.625
200.472	2064.625
204.581	2045.95833
208.687	1989.625
212.79	1965.95833
216.889	2001.29167
220.984	2012.95833
225.077	2022.95833
229.165	2048.625
233.251	2052.29167
237.333	2042.29167
241.412	2033.29167
245.487	2022.625
249.559	2006.29167
253.628	1994.625
257.694	1981.29167
261.756	1986.29167
265.814	1963.29167
269.87	1870.95833
273.922	1853.625
277.97	1848.95833
282.016	1806.625
286.058	1812.95833
290.097	1834.29167
294.132	1873.625
298.164	1847.95833
302.193	1793.95833
306.219	1702.625
310.241	1603.625
314.26	1521.29167
318.276	1453.625
322.288	1403.625
326.297	1366.625
330.303	1347.625
334.305	1344.29167
338.305	1326.625
342.301	1327.29167
346.294	1319.95833
350.283	1294.625
354.269	1303.95833
358.252	1285.29167
362.232	1303.625
366.209	1298.29167
370.182	1286.625
374.152	1279.625
378.119	1289.625
382.083	1286.95833
386.043	1304.625
390	1294.29167
393.954	1311.29167
397.905	1309.625
401.852	1328.95833
405.797	1302.29167
409.738	1333.625
413.676	1369.625
417.61	1395.29167
421.542	1330.29167
425.47	1284.625
429.396	1295.95833
433.318	1268.29167
437.236	1265.625
441.152	1305.29167
445.065	1256.95833
448.974	1254.95833
452.88	1264.29167
456.783	1240.29167
460.683	1244.95833
464.58	1260.29167
468.473	1262.95833
472.364	1265.95833
476.251	1248.95833
480.135	1257.95833
484.016	1275.625
487.894	1282.95833
491.769	1284.29167
495.641	1270.625
499.509	1296.29167
503.375	1280.625
507.237	1285.95833
511.096	1266.625
514.952	1275.29167
518.805	1286.95833
522.655	1286.95833
526.502	1268.95833
530.346	1274.95833
534.187	1285.29167
538.024	1284.625
541.859	1261.95833
545.69	1293.625
549.519	1269.625
553.344	1282.625
557.166	1247.625
560.985	1264.29167
564.802	1239.625
568.615	1242.29167
572.425	1211.95833
576.232	1214.95833
580.036	1230.29167
583.836	1223.95833
587.634	1206.29167
591.429	1209.625
595.221	1255.625
599.01	1244.95833
602.796	1243.625
606.578	1253.625
610.358	1259.29167
614.135	1245.95833
617.909	1261.95833
621.679	1234.625
625.447	1225.625
629.212	1237.95833
632.973	1234.625
636.732	1233.95833
640.488	1246.625
644.241	1204.625
647.991	1201.625
651.737	1236.29167
655.481	1187.625
659.222	1192.29167
662.96	1207.29167
666.695	1226.95833
670.427	1226.29167
674.156	1229.625
677.882	1228.95833
681.605	1210.625
685.325	1210.95833
689.043	1216.95833
692.757	1198.95833
696.468	1204.95833
700.177	1206.95833
703.882	1180.29167
707.585	1177.625
711.284	1168.29167
714.981	1158.29167
718.675	1158.625
722.366	1184.95833
726.054	1156.625
729.739	1167.29167
733.421	1177.29167
737.1	1157.625
740.777	1173.29167
744.45	1171.625
748.121	1187.625
751.789	1213.29167
755.453	1166.29167
759.115	1186.29167
762.774	1187.95833
766.431	1184.95833
770.084	1196.95833
773.734	1196.95833
777.382	1207.29167
781.027	1198.29167
784.669	1186.625
788.308	1193.29167
791.944	1220.95833
795.577	1222.625
799.208	1215.625
802.835	1223.95833
806.46	1223.95833
810.082	1227.625
813.701	1212.95833
817.317	1248.95833
820.931	1226.95833
824.542	1234.625
828.149	1200.95833
831.754	1201.95833
835.357	1208.625
838.956	1211.625
842.553	1225.95833
846.146	1219.95833
849.737	1168.625
853.326	1182.95833
856.911	1146.625
860.493	1175.95833
864.073	1177.95833
867.65	1242.625
871.225	1237.95833
874.796	1194.625
878.365	1177.625
881.931	1191.95833
885.494	1195.625
889.054	1200.95833
892.612	1182.95833
896.166	1159.29167
899.719	1164.95833
903.268	1131.95833
906.814	1146.625
910.358	1131.29167
913.899	1112.625
917.438	1115.95833
920.973	1094.95833
924.506	1117.95833
928.036	1129.29167
931.564	1150.625
935.088	1166.29167
938.61	1159.29167
942.129	1145.95833
945.646	1164.29167
949.16	1174.625
952.671	1181.625
956.179	1203.625
959.685	1182.625
963.188	1195.29167
966.688	1175.95833
970.185	1138.29167
973.68	1115.95833
977.173	1119.95833
980.662	1108.95833
984.149	1103.95833
987.633	1087.95833
991.114	1101.95833
994.593	1111.625
998.069	1131.29167
1001.542	1175.95833
1005.013	1164.625
1008.481	1099.29167
1011.947	1059.29167
1015.409	1069.625
1018.869	1079.95833
1022.327	1066.29167
1025.782	1058.29167
1029.234	1035.625
1032.683	1040.95833
1036.13	1022.625
1039.574	984.95833
1043.016	966.29167
1046.455	959.625
1049.891	947.29167
1053.325	953.625
1056.756	938.625
1060.184	952.95833
1063.61	921.95833
1067.033	948.95833
1070.454	952.625
1073.872	969.625
1077.287	944.625
1080.7	945.625
1084.11	948.29167
1087.517	934.29167
1090.922	930.625
1094.325	925.95833
1097.724	905.29167
1101.122	914.29167
1104.516	905.625
1107.908	898.625
1111.298	901.95833
1114.684	921.625
1118.069	910.625
1121.45	944.95833
1124.83	912.95833
1128.206	921.625
1131.58	941.625
1134.951	960.95833
1138.32	962.625
1141.687	1007.625
1145.05	996.625
1148.412	1005.95833
1151.77	1008.95833
1155.126	998.625
1158.48	984.625
1161.831	994.95833
1165.18	998.625
1168.525	1010.625
1171.869	1013.625
1175.21	995.625
1178.548	1021.625
1181.884	1027.95833
1185.217	1041.29167
1188.548	1059.625
1191.877	1068.29167
1195.202	1104.625
1198.526	1125.29167
1201.846	1115.29167
1205.165	1115.625
1208.48	1130.95833
1211.794	1117.625
1215.104	1128.95833
1218.413	1110.29167
1221.719	1119.95833
1225.022	1088.625
1228.323	1071.625
1231.621	1091.95833
1234.917	1079.625
1238.21	1093.95833
1241.501	1070.95833
1244.79	1049.625
1248.076	1037.625
1251.359	1076.625
1254.64	1114.29167
1257.919	1089.29167
1261.195	1086.625
1264.468	1114.95833
1267.74	1117.29167
1271.008	1136.95833
1274.275	1119.625
1277.538	1124.29167
1280.8	1112.625
1284.059	1099.625
1287.315	1125.29167
1290.569	1109.625
1293.821	1124.95833
1297.07	1118.625
1300.317	1124.625
1303.562	1136.95833
1306.803	1112.29167
1310.043	1110.625
1313.28	1106.29167
1316.515	1095.625
1319.747	1105.625
1322.977	1084.95833
1326.204	1065.29167
1329.429	1065.29167
1332.652	1077.29167
1335.872	1067.95833
1339.09	1049.95833
1342.306	1053.29167
1345.519	1052.29167
1348.729	1035.29167
1351.938	1041.625
1355.144	1026.95833
1358.347	1013.625
1361.548	1020.29167
1364.747	1019.95833
1367.944	1002.29167
1371.138	997.625
1374.329	994.29167
1377.518	1004.95833
1380.705	1009.95833
1383.89	1013.29167
1387.072	980.625
1390.252	951.625
1393.429	928.625
1396.605	903.29167
1399.777	874.625
1402.948	877.625
1406.116	855.29167
1409.282	868.29167
1412.445	853.29167
1415.606	864.29167
1418.765	882.95833
1421.921	888.95833
1425.075	901.95833
1428.227	908.625
1431.376	940.29167
1434.524	971.625
1437.668	984.29167
1440.811	998.95833
1443.951	1009.29167
1447.089	1015.29167
1450.224	1004.29167
1453.357	1007.95833
1456.488	1000.625
1459.617	983.625
1462.743	960.29167
1465.867	934.95833
1468.989	955.95833
1472.108	918.29167
1475.225	921.29167
1478.34	910.95833
1481.453	892.95833
1484.563	892.95833
1487.671	903.95833
1490.776	902.625
1493.88	910.29167
1496.981	940.625
1500.08	942.95833
1503.176	947.95833
1506.271	934.29167
1509.363	956.95833
1512.452	949.625
1515.54	960.625
1518.625	988.625
1521.708	1002.625
1524.789	1028.625
1527.867	1054.625
1530.944	1081.95833
1534.018	1121.95833
1537.089	1181.29167
1540.159	1183.29167
1543.226	1179.29167
1546.291	1162.29167
1549.354	1153.29167
1552.415	1131.95833
1555.473	1114.625
1558.529	1096.29167
1561.583	1067.95833
1564.634	1057.625
1567.684	1055.95833
1570.731	1062.95833
1573.776	1073.95833
1576.819	1077.95833
1579.859	1084.625
1582.898	1089.625
1585.934	1120.29167
1588.968	1127.625
1591.999	1088.29167
1595.029	1088.29167
1598.056	1109.29167
1601.081	1133.95833
1604.104	1131.625
1607.125	1105.29167
1610.144	1092.29167
1613.16	1053.29167
1616.174	1035.95833
1619.186	1018.625
1622.196	1010.625
1625.203	984.29167
1628.209	976.625
1631.212	978.625
1634.213	959.95833
1637.212	979.625
1640.209	972.95833
1643.203	944.29167
1646.196	920.29167
1649.186	879.95833
1652.174	865.95833
1655.16	831.625
1658.144	839.625
1661.125	802.95833
1664.105	768.95833
1667.082	744.95833
1670.057	703.29167
1673.03	671.625
1676.001	658.625
1678.97	599.625
1681.937	579.29167
1684.901	546.95833
1687.863	558.625
1690.824	511.95833
1693.782	520.95833
1696.738	490.95833
1699.692	495.95833
1702.643	479.29167
1705.593	471.625
1708.54	473.29167
1711.486	486.625
1714.429	450.29167
1717.37	473.29167
1720.309	446.95833
1723.246	459.95833
1726.181	454.95833
1729.113	451.95833
1732.044	451.95833
1734.972	438.95833
1737.899	455.95833
1740.823	461.95833
1743.745	477.29167
1746.665	431.29167
1749.583	423.95833
1752.499	420.95833
1755.413	421.95833
1758.325	406.95833
1761.235	418.29167
1764.142	396.625
1767.048	408.625
1769.951	401.625
1772.852	401.625
1775.752	432.625
1778.649	441.29167
1781.544	430.29167
1784.437	392.95833
1787.328	392.625
1790.217	395.29167
1793.104	373.95833
1795.989	374.95833
1798.872	373.29167
1801.753	392.625
1804.631	372.95833
1807.508	388.29167
1810.383	391.625
1813.255	382.29167
1816.126	374.95833
1818.994	363.625
1821.861	370.95833
1824.725	375.29167
1827.587	372.625
1830.448	371.95833
1833.306	359.95833
1836.162	367.95833
1839.017	357.95833
1841.869	362.625
1844.719	363.29167
1847.567	341.95833
1850.414	345.625
1853.258	342.29167
1856.1	364.625
1858.94	362.95833
1861.778	352.29167
1864.614	347.625
1867.448	355.625
1870.28	333.29167
1873.111	363.29167
1875.939	351.29167
1878.765	361.29167
1881.589	339.29167
1884.411	349.625
1887.231	352.29167
1890.049	336.625
1892.865	354.95833
1895.68	333.29167
1898.492	343.625
1901.302	334.95833
1904.11	331.625
1906.916	329.29167
1909.721	333.95833
1912.523	342.625
1915.323	322.95833
1918.122	318.29167
1920.918	336.625
1923.712	316.95833
1926.505	331.625
1929.295	306.95833
1932.084	325.29167
1934.87	329.625
1937.655	318.625
1940.438	311.95833
1943.218	320.29167
1945.997	324.625
1948.774	328.625
1951.549	327.29167
1954.322	317.625
1957.093	316.625
1959.862	312.29167
1962.629	305.625
1965.394	305.29167
1968.157	291.95833
1970.918	315.95833
1973.678	303.29167
1976.435	322.29167
1979.19	297.625
1981.944	297.95833
1984.696	294.95833
1987.445	294.95833
1990.193	301.625
1992.939	313.625
1995.683	302.95833
1998.425	276.29167
2001.165	318.95833
2003.903	290.95833
2006.639	292.29167
2009.374	296.625
2012.106	301.95833
2014.837	268.95833
2017.566	299.95833
2020.292	286.29167
2023.017	283.95833
2025.74	284.29167
2028.461	273.625
2031.18	291.625
2033.898	270.625
2036.613	281.625
2039.327	283.625
2042.038	273.625
2044.748	284.625
2047.456	286.29167
2050.162	271.95833
2052.866	271.29167
2055.568	279.95833
2058.268	267.625
2060.967	282.29167
2063.663	261.29167
2066.358	262.625
2069.051	264.95833
2071.742	274.95833
2074.431	275.95833
2077.118	270.29167
2079.804	261.29167
2082.487	265.29167
2085.169	273.625
2087.849	288.95833
2090.527	269.29167
2093.203	272.95833
2095.877	267.29167
2098.55	266.95833
2101.22	282.29167
2103.889	280.29167
2106.556	264.95833
2109.221	278.625
2111.884	266.95833
2114.546	290.29167
2117.205	294.95833
2119.863	325.29167
2122.519	316.95833
2125.173	342.95833
2127.825	372.29167
2130.475	373.95833
2133.124	347.625
2135.771	339.625
2138.416	350.95833
2141.059	311.95833
2143.7	320.95833
2146.339	297.625
2148.977	274.625
2151.613	286.95833
2154.247	284.95833
2156.879	278.95833
2159.51	255.29167
2162.138	257.625
2164.765	255.95833
2167.39	243.625
2170.013	269.625
2172.634	264.29167
2175.254	249.95833
2177.872	285.95833
2180.488	246.625
2183.102	252.29167
2185.714	248.625
2188.325	234.29167
2190.934	241.95833
2193.541	246.625
2196.146	243.29167
2198.75	226.29167
2201.351	229.95833
2203.951	214.625
2206.549	241.625
2209.146	230.95833
2211.74	221.625
2214.333	237.95833
2216.924	217.29167
2219.514	222.29167
2222.101	211.625
2224.687	242.29167
2227.271	206.625
2229.853	216.625
2232.433	202.29167
2235.012	227.95833
2237.589	221.95833
2240.164	235.625
2242.738	218.95833
2245.309	211.625
2247.879	231.29167
2250.448	220.95833
2253.014	198.625
2255.579	199.625
2258.142	206.95833
2260.703	207.95833
2263.262	205.625
2265.82	197.625
2268.376	214.625
2270.93	200.29167
2273.483	193.625
2276.033	208.95833
2278.583	199.625
2281.13	194.95833
2283.675	184.95833
2286.219	200.95833
2288.761	202.29167
2291.302	206.29167
2293.841	207.95833
2296.377	183.625
2298.913	199.625
2301.446	203.625
2303.978	201.29167
2306.508	200.29167
2309.037	203.29167
2311.563	199.95833
2314.088	201.625
2316.612	182.95833
2319.133	197.95833
2321.653	192.625
2324.171	188.29167
2326.688	200.625
2329.202	193.625
2331.715	192.29167
2334.227	195.625
2336.736	188.625
2339.244	187.625
2341.751	174.29167
2344.255	195.95833
2346.758	188.29167
2349.259	179.29167
2351.759	189.95833
2354.257	177.29167
2356.753	171.95833
2359.247	175.95833
2361.74	177.29167
2364.231	178.29167
2366.721	190.95833
2369.209	181.625
2371.695	179.625
2374.179	176.625
2376.662	168.625
2379.143	190.95833
2381.622	179.95833
2384.1	190.625
2386.576	175.95833
2389.051	189.95833
2391.524	182.29167
2393.995	182.625
2396.464	174.29167
2398.932	170.29167
2401.398	173.95833
2403.863	168.625
2406.325	169.95833
2408.787	177.625
2411.246	175.29167
2413.704	176.625
2416.16	175.29167
2418.615	164.95833
2421.068	175.625
2423.519	165.625
2425.969	164.29167
2428.417	184.625
2430.863	193.29167
2433.308	177.625
2435.751	172.95833
2438.193	174.95833
2440.633	180.29167
2443.071	171.625
2445.508	162.29167
2447.943	166.625
2450.376	160.95833
2452.808	170.29167
2455.238	160.625
2457.667	192.95833
2460.093	158.625
2462.519	156.95833
2464.942	160.29167
2467.365	162.95833
2469.785	164.625
2472.204	159.95833
2474.621	162.625
2477.037	182.29167
2479.451	151.625
2481.863	154.625
2484.274	159.625
2486.683	161.95833
2489.091	171.29167
2491.497	164.625
2493.901	166.625
2496.304	151.29167
2498.705	169.95833
2501.105	165.95833
2503.503	176.625
2505.899	152.29167
2508.294	179.95833
2510.687	149.29167
2513.079	158.29167
2515.469	151.29167
2517.858	149.625
2520.245	172.95833
2522.63	156.95833
2525.014	152.625
2527.396	151.29167
2529.776	148.95833
2532.156	161.95833
2534.533	147.29167
2536.909	146.95833
2539.283	132.625
2541.656	141.95833
2544.027	166.95833
2546.397	153.625
2548.765	143.625
2551.131	155.625
2553.496	151.29167
2555.86	157.95833
2558.221	157.625
2560.582	151.625
2562.94	145.625
2565.298	146.29167
2567.653	163.29167
2570.007	136.625
2572.36	160.95833
2574.711	140.29167
2577.06	158.29167
2579.408	146.95833
2581.754	148.29167
2584.099	147.625
2586.442	146.29167
2588.784	157.625
2591.124	151.625
2593.463	149.95833
2595.8	153.625
2598.135	131.95833
2600.469	134.95833
2602.802	152.29167
2605.133	154.625
2607.462	139.29167
2609.79	135.625
2612.116	153.625
2614.441	144.29167
2616.764	151.95833
2619.086	147.29167
2621.406	143.95833
2623.725	158.29167
2626.042	148.29167
2628.358	139.29167
2630.672	144.625
2632.985	157.625
2635.296	145.29167
2637.606	143.95833
2639.914	144.625
2642.22	140.95833
2644.525	143.625
2646.829	145.29167
2649.131	156.29167
2651.432	155.95833
2653.731	141.29167
2656.028	154.95833
2658.324	147.625
2660.619	137.625
2662.912	154.29167
2665.204	141.625
2667.494	147.625
2669.782	136.29167
2672.07	152.625
2674.355	157.625
2676.639	151.95833
2678.922	146.95833
2681.203	149.625
2683.483	140.625
2685.761	138.625
2688.038	153.29167
2690.313	157.625
2692.587	147.29167
2694.859	146.29167
2697.13	142.95833
2699.399	142.625
2701.667	153.29167
2703.933	143.625
2706.198	156.29167
2708.461	161.29167
2710.723	157.29167
2712.984	147.29167
2715.243	158.95833
2717.5	147.625
2719.757	160.95833
2722.011	147.95833
2724.264	155.95833
2726.516	163.625
2728.766	149.625
2731.015	151.625
2733.262	155.95833
2735.508	155.29167
2737.753	154.625
2739.996	141.625
2742.237	142.625
2744.477	157.29167
2746.716	167.95833
2748.953	154.625
2751.189	160.95833
2753.423	153.29167
2755.656	150.29167
2757.887	137.625
2760.117	140.625
2762.346	140.29167
2764.573	131.625
2766.798	141.625
2769.022	149.29167
2771.245	137.625
2773.467	143.29167
2775.686	140.29167
2777.905	144.625
2780.122	139.625
2782.337	147.29167
2784.552	141.29167
2786.764	144.625
2788.976	143.95833
2791.186	149.29167
2793.394	143.95833
2795.601	156.95833
2797.807	158.29167
2800.011	147.95833
2802.214	159.625
2804.415	152.95833
2806.615	152.95833
2808.814	158.625
2811.011	158.95833
2813.206	164.29167
2815.401	170.95833
2817.594	165.95833
2819.785	171.95833
2821.975	155.625
2824.164	161.625
2826.351	163.29167
2828.537	170.29167
2830.722	175.95833
2832.905	169.29167
2835.086	176.625
2837.267	197.95833
2839.445	189.95833
2841.623	187.29167
2843.799	191.625
2845.974	196.29167
2848.147	202.625
2850.319	216.29167
2852.489	220.625
2854.659	224.95833
2856.826	226.95833
2858.993	250.29167
2861.158	223.29167
2863.321	230.29167
2865.483	245.95833
2867.644	245.29167
2869.804	235.95833
2871.962	228.95833
2874.118	248.95833
2876.274	254.29167
2878.428	251.95833
2880.58	249.95833
2882.731	226.625
2884.881	239.625
2887.03	244.29167
2889.177	241.95833
2891.322	241.625
2893.467	235.625
2895.61	232.625
2897.751	245.95833
2899.892	234.625
2902.03	243.95833
2904.168	243.29167
2906.304	243.95833
2908.439	257.29167
2910.572	233.625
2912.704	242.625
2914.835	243.95833
2916.965	247.95833
2919.093	267.29167
2921.219	232.625
2923.345	262.29167
2925.469	248.625
2927.591	240.95833
2929.712	226.95833
2931.832	243.95833
2933.951	224.625
2936.068	227.29167
2938.184	217.625
2940.299	214.95833
2942.412	214.95833
2944.524	189.29167
2946.634	207.29167
2948.744	185.29167
2950.851	215.29167
2952.958	184.29167
2955.063	195.625
2957.167	184.625
2959.269	170.29167
2961.371	205.625
2963.471	176.625
2965.569	184.95833
2967.666	161.95833
2969.762	167.625
2971.857	157.95833
2973.95	155.29167
2976.042	163.29167
2978.133	152.95833
2980.222	159.29167
2982.31	145.625
2984.396	132.29167
2986.482	137.29167
2988.566	142.95833
2990.648	139.29167
2992.73	144.29167
2994.81	123.29167
2996.889	143.625
2998.966	138.625
3001.042	150.95833
3003.117	132.625
3005.191	141.625
3007.263	142.95833
3009.334	141.95833
3011.403	136.625
3013.472	130.625
3015.539	143.95833
3017.604	156.29167
3019.669	121.29167
3021.732	127.95833
3023.794	132.29167
3025.854	120.95833
3027.914	119.29167
3029.971	125.29167
3032.028	125.29167
3034.083	129.29167
3036.137	120.95833
3038.19	112.95833
3040.242	112.29167
3042.292	106.29167
3044.341	116.625
3046.388	128.29167
3048.435	109.29167
3050.48	126.29167
3052.524	118.625
3054.566	95.29167
3056.607	116.95833
3058.647	110.625
3060.686	100.625
3062.723	93.29167
3064.759	94.625
3066.794	0.95833
3068.828	-0.04167
3070.86	2.29167
