-0.839	140.16667
3.438	166.83333
7.711	64.83333
11.981	45.16667
16.247	29.5
20.509	40.16667
24.768	34.83333
29.024	45.5
33.276	30.5
37.524	39.5
41.769	29.5
46.01	27.16667
50.247	45.5
54.481	52.5
58.712	53.83333
62.939	37.83333
67.162	56.83333
71.382	47.16667
75.599	36.5
79.812	44.16667
84.021	64.16667
88.227	39.83333
92.429	54.16667
96.628	41.5
100.823	55.83333
105.015	53.5
109.204	48.83333
113.388	60.5
117.57	42.83333
121.748	60.5
125.922	48.16667
130.093	64.5
134.261	65.83333
138.425	57.16667
142.585	85.83333
146.742	64.83333
150.896	84.83333
155.046	76.5
159.193	113.16667
163.336	171.16667
167.476	294.83333
171.613	525.5
175.746	837.16667
179.875	1222.16667
184.002	1577.16667
188.124	1886.5
192.244	1958.83333
196.36	1959.83333
200.472	1929.83333
204.581	1906.5
208.687	1834.16667
212.79	1826.83333
216.889	1864.5
220.984	1865.5
225.077	1873.5
229.165	1884.16667
233.251	1861.16667
237.333	1869.5
241.412	1842.83333
245.487	1845.83333
249.559	1815.16667
253.628	1803.16667
257.694	1791.5
261.756	1781.83333
265.814	1739.5
269.87	1695.16667
273.922	1653.16667
277.97	1637.5
282.016	1617.83333
286.058	1611.83333
290.097	1630.16667
294.132	1652.5
298.164	1645.5
302.193	1577.5
306.219	1513.16667
310.241	1393.16667
314.26	1292.83333
318.276	1242.83333
322.288	1196.83333
326.297	1165.5
330.303	1136.83333
334.305	1129.83333
338.305	1109.83333
342.301	1092.5
346.294	1093.5
350.283	1102.5
354.269	1102.83333
358.252	1082.5
362.232	1062.5
366.209	1071.83333
370.182	1065.16667
374.152	1052.16667
378.119	1072.16667
382.083	1065.5
386.043	1068.16667
390	1061.16667
393.954	1074.5
397.905	1063.83333
401.852	1093.5
405.797	1061.16667
409.738	1053.5
413.676	1065.5
417.61	1074.16667
421.542	1052.83333
425.47	1041.5
429.396	1033.83333
433.318	1018.83333
437.236	1029.16667
441.152	1045.83333
445.065	1014.16667
448.974	1017.16667
452.88	1000.5
456.783	1012.16667
460.683	992.5
464.58	1018.83333
468.473	1005.5
472.364	1001.16667
476.251	1013.16667
480.135	1008.5
484.016	1027.16667
487.894	1041.5
491.769	1031.5
495.641	1035.83333
499.509	1036.83333
503.375	1026.83333
507.237	1028.83333
511.096	1043.5
514.952	1027.16667
518.805	1033.83333
522.655	1028.83333
526.502	1025.16667
530.346	1034.16667
534.187	1026.16667
538.024	1023.83333
541.859	1012.83333
545.69	1038.5
549.519	1018.83333
553.344	1023.83333
557.166	1010.16667
560.985	1004.16667
564.802	1022.16667
568.615	984.16667
572.425	960.16667
576.232	970.5
580.036	958.83333
583.836	983.5
587.634	986.83333
591.429	970.5
595.221	1002.16667
599.01	1018.5
602.796	1005.16667
606.578	1004.5
610.358	1002.5
614.135	1000.83333
617.909	997.83333
621.679	991.83333
625.447	969.5
629.212	978.16667
632.973	994.83333
636.732	992.5
640.488	985.16667
644.241	965.5
647.991	958.16667
651.737	989.16667
655.481	960.83333
659.222	968.83333
662.96	967.83333
666.695	995.83333
670.427	984.83333
674.156	985.16667
677.882	979.5
681.605	989.83333
685.325	970.83333
689.043	988.5
692.757	977.5
696.468	982.5
700.177	962.5
703.882	953.5
707.585	944.5
711.284	943.5
714.981	942.5
718.675	948.83333
722.366	963.16667
726.054	947.83333
729.739	947.16667
733.421	945.83333
737.1	949.5
740.777	967.5
744.45	956.16667
748.121	950.16667
751.789	988.83333
755.453	963.83333
759.115	983.83333
762.774	965.83333
766.431	956.16667
770.084	984.5
773.734	986.5
777.382	987.83333
781.027	994.16667
784.669	999.83333
788.308	997.5
791.944	1011.16667
795.577	1005.16667
799.208	1028.83333
802.835	1026.5
806.46	1027.5
810.082	1025.83333
813.701	1035.5
817.317	1056.5
820.931	1039.83333
824.542	1053.83333
828.149	1036.5
831.754	1003.16667
835.357	996.16667
838.956	1019.5
842.553	1005.5
846.146	987.16667
849.737	990.83333
853.326	1002.16667
856.911	973.16667
860.493	996.83333
864.073	997.83333
867.65	1007.5
871.225	1022.16667
874.796	1021.5
878.365	1005.5
881.931	1026.5
885.494	1023.83333
889.054	1019.5
892.612	1013.83333
896.166	1005.16667
899.719	986.16667
903.268	984.5
906.814	973.83333
910.358	971.16667
913.899	964.83333
917.438	976.83333
920.973	958.83333
924.506	972.16667
928.036	980.83333
931.564	995.83333
935.088	1018.83333
938.61	1003.83333
942.129	999.5
945.646	1009.5
949.16	1022.16667
952.671	1031.5
956.179	1049.16667
959.685	1044.5
963.188	1065.16667
966.688	1042.83333
970.185	1001.83333
973.68	989.5
977.173	968.83333
980.662	959.5
984.149	977.5
987.633	960.16667
991.114	961.5
994.593	994.16667
998.069	996.5
1001.542	1015.16667
1005.013	1017.83333
1008.481	950.5
1011.947	941.5
1015.409	921.16667
1018.869	936.5
1022.327	935.5
1025.782	922.83333
1029.234	913.16667
1032.683	916.16667
1036.13	900.5
1039.574	854.83333
1043.016	832.83333
1046.455	838.5
1049.891	814.83333
1053.325	838.16667
1056.756	826.16667
1060.184	820.5
1063.61	813.16667
1067.033	846.16667
1070.454	811.16667
1073.872	846.83333
1077.287	824.83333
1080.7	832.83333
1084.11	830.83333
1087.517	828.83333
1090.922	819.83333
1094.325	799.5
1097.724	796.83333
1101.122	793.83333
1104.516	804.83333
1107.908	790.83333
1111.298	798.16667
1114.684	807.5
1118.069	799.83333
1121.45	825.83333
1124.83	805.16667
1128.206	829.83333
1131.58	826.5
1134.951	852.5
1138.32	860.5
1141.687	897.5
1145.05	901.83333
1148.412	902.83333
1151.77	903.5
1155.126	894.83333
1158.48	882.83333
1161.831	900.83333
1165.18	894.83333
1168.525	921.83333
1171.869	916.16667
1175.21	920.16667
1178.548	934.5
1181.884	947.16667
1185.217	931.16667
1188.548	960.16667
1191.877	968.16667
1195.202	1030.16667
1198.526	1027.83333
1201.846	1014.5
1205.165	1034.83333
1208.48	1040.5
1211.794	1039.16667
1215.104	1039.83333
1218.413	1028.5
1221.719	1024.16667
1225.022	1010.83333
1228.323	1012.83333
1231.621	1002.16667
1234.917	989.16667
1238.21	1020.83333
1241.501	990.83333
1244.79	973.16667
1248.076	989.16667
1251.359	989.16667
1254.64	1040.83333
1257.919	1012.5
1261.195	1009.16667
1264.468	1032.16667
1267.74	1048.83333
1271.008	1054.5
1274.275	1066.5
1277.538	1054.5
1280.8	1043.83333
1284.059	1028.83333
1287.315	1049.83333
1290.569	1037.83333
1293.821	1045.83333
1297.07	1063.83333
1300.317	1065.16667
1303.562	1062.5
1306.803	1055.5
1310.043	1049.5
1313.28	1049.5
1316.515	1052.5
1319.747	1054.5
1322.977	1027.16667
1326.204	1018.5
1329.429	1015.83333
1332.652	1021.83333
1335.872	1014.83333
1339.09	1002.5
1342.306	1005.16667
1345.519	1012.83333
1348.729	986.83333
1351.938	986.5
1355.144	984.83333
1358.347	980.83333
1361.548	976.5
1364.747	983.16667
1367.944	949.83333
1371.138	954.16667
1374.329	966.83333
1377.518	973.83333
1380.705	959.83333
1383.89	963.16667
1387.072	920.5
1390.252	892.5
1393.429	876.16667
1396.605	843.83333
1399.777	820.83333
1402.948	815.5
1406.116	808.5
1409.282	814.5
1412.445	806.83333
1415.606	816.5
1418.765	821.83333
1421.921	834.5
1425.075	846.16667
1428.227	870.5
1431.376	892.5
1434.524	931.5
1437.668	950.16667
1440.811	943.16667
1443.951	961.83333
1447.089	974.16667
1450.224	976.5
1453.357	967.5
1456.488	947.16667
1459.617	936.5
1462.743	923.16667
1465.867	905.16667
1468.989	911.5
1472.108	895.83333
1475.225	874.5
1478.34	859.16667
1481.453	857.16667
1484.563	848.5
1487.671	864.5
1490.776	864.83333
1493.88	877.5
1496.981	905.16667
1500.08	905.5
1503.176	897.5
1506.271	913.16667
1509.363	931.5
1512.452	929.16667
1515.54	944.16667
1518.625	949.83333
1521.708	969.83333
1524.789	1008.16667
1527.867	1017.5
1530.944	1086.5
1534.018	1107.5
1537.089	1171.5
1540.159	1175.83333
1543.226	1155.16667
1546.291	1136.16667
1549.354	1139.5
1552.415	1105.16667
1555.473	1079.16667
1558.529	1059.5
1561.583	1064.5
1564.634	1022.16667
1567.684	1047.5
1570.731	1048.16667
1573.776	1052.5
1576.819	1057.83333
1579.859	1067.5
1582.898	1103.83333
1585.934	1101.83333
1588.968	1109.16667
1591.999	1094.83333
1595.029	1082.5
1598.056	1097.16667
1601.081	1111.83333
1604.104	1094.16667
1607.125	1088.16667
1610.144	1083.5
1613.16	1031.5
1616.174	1029.83333
1619.186	1011.5
1622.196	998.16667
1625.203	979.16667
1628.209	970.16667
1631.212	958.83333
1634.213	972.5
1637.212	995.83333
1640.209	976.16667
1643.203	954.5
1646.196	922.83333
1649.186	891.16667
1652.174	867.83333
1655.16	823.16667
1658.144	821.83333
1661.125	786.16667
1664.105	762.5
1667.082	733.5
1670.057	696.5
1673.03	648.16667
1676.001	627.5
1678.97	575.16667
1681.937	556.5
1684.901	527.83333
1687.863	512.5
1690.824	488.5
1693.782	505.83333
1696.738	457.83333
1699.692	465.83333
1702.643	445.16667
1705.593	449.16667
1708.54	440.83333
1711.486	454.83333
1714.429	422.5
1717.37	432.83333
1720.309	420.16667
1723.246	419.16667
1726.181	410.16667
1729.113	404.83333
1732.044	405.5
1734.972	411.16667
1737.899	422.83333
1740.823	420.83333
1743.745	432.83333
1746.665	397.83333
1749.583	394.5
1752.499	387.16667
1755.413	391.83333
1758.325	366.16667
1761.235	381.5
1764.142	368.83333
1767.048	362.83333
1769.951	374.5
1772.852	360.16667
1775.752	368.5
1778.649	364.16667
1781.544	371.5
1784.437	347.16667
1787.328	369.83333
1790.217	358.16667
1793.104	336.16667
1795.989	339.16667
1798.872	334.83333
1801.753	358.16667
1804.631	342.5
1807.508	347.16667
1810.383	341.83333
1813.255	343.5
1816.126	344.83333
1818.994	343.5
1821.861	337.5
1824.725	338.83333
1827.587	339.16667
1830.448	334.5
1833.306	326.5
1836.162	344.16667
1839.017	325.83333
1841.869	328.16667
1844.719	329.83333
1847.567	321.16667
1850.414	305.5
1853.258	313.16667
1856.1	326.16667
1858.94	334.5
1861.778	318.16667
1864.614	307.16667
1867.448	325.5
1870.28	306.5
1873.111	323.83333
1875.939	318.5
1878.765	329.5
1881.589	309.83333
1884.411	309.5
1887.231	324.5
1890.049	313.16667
1892.865	321.83333
1895.68	302.5
1898.492	316.83333
1901.302	312.5
1904.11	301.83333
1906.916	305.16667
1909.721	301.16667
1912.523	304.83333
1915.323	291.83333
1918.122	293.16667
1920.918	306.5
1923.712	297.83333
1926.505	294.16667
1929.295	276.16667
1932.084	302.83333
1934.87	293.16667
1937.655	291.16667
1940.438	282.83333
1943.218	292.83333
1945.997	292.83333
1948.774	292.5
1951.549	300.5
1954.322	286.5
1957.093	288.16667
1959.862	287.16667
1962.629	284.5
1965.394	289.5
1968.157	274.16667
1970.918	288.16667
1973.678	281.83333
1976.435	283.16667
1979.19	283.16667
1981.944	274.16667
1984.696	271.5
1987.445	267.83333
1990.193	276.5
1992.939	285.5
1995.683	279.16667
1998.425	262.16667
2001.165	285.83333
2003.903	254.16667
2006.639	263.16667
2009.374	274.83333
2012.106	279.5
2014.837	246.83333
2017.566	276.16667
2020.292	265.83333
2023.017	260.16667
2025.74	258.16667
2028.461	255.83333
2031.18	262.16667
2033.898	256.5
2036.613	262.16667
2039.327	261.83333
2042.038	250.16667
2044.748	253.83333
2047.456	263.16667
2050.162	240.16667
2052.866	251.16667
2055.568	275.16667
2058.268	252.83333
2060.967	258.83333
2063.663	243.5
2066.358	247.5
2069.051	242.16667
2071.742	252.16667
2074.431	263.5
2077.118	251.5
2079.804	237.83333
2082.487	246.16667
2085.169	262.83333
2087.849	274.83333
2090.527	247.16667
2093.203	254.83333
2095.877	251.5
2098.55	252.16667
2101.22	250.5
2103.889	269.5
2106.556	248.5
2109.221	270.83333
2111.884	261.83333
2114.546	279.16667
2117.205	296.5
2119.863	320.16667
2122.519	319.16667
2125.173	337.5
2127.825	364.5
2130.475	366.16667
2133.124	353.16667
2135.771	332.5
2138.416	351.5
2141.059	313.5
2143.7	312.83333
2146.339	285.83333
2148.977	264.83333
2151.613	273.83333
2154.247	268.5
2156.879	260.16667
2159.51	250.83333
2162.138	246.83333
2164.765	244.16667
2167.39	229.16667
2170.013	244.83333
2172.634	247.16667
2175.254	238.5
2177.872	271.83333
2180.488	230.5
2183.102	233.5
2185.714	234.16667
2188.325	215.16667
2190.934	222.5
2193.541	234.16667
2196.146	226.83333
2198.75	211.5
2201.351	213.83333
2203.951	201.5
2206.549	226.83333
2209.146	207.83333
2211.74	207.5
2214.333	214.5
2216.924	201.16667
2219.514	209.83333
2222.101	203.5
2224.687	221.5
2227.271	194.5
2229.853	206.83333
2232.433	188.83333
2235.012	216.5
2237.589	202.83333
2240.164	213.5
2242.738	200.5
2245.309	195.16667
2247.879	222.16667
2250.448	207.5
2253.014	188.5
2255.579	186.83333
2258.142	186.83333
2260.703	192.83333
2263.262	184.5
2265.82	182.5
2268.376	202.5
2270.93	188.83333
2273.483	182.16667
2276.033	196.83333
2278.583	181.83333
2281.13	185.83333
2283.675	179.83333
2286.219	181.5
2288.761	192.83333
2291.302	195.16667
2293.841	197.16667
2296.377	167.83333
2298.913	188.83333
2301.446	189.5
2303.978	177.83333
2306.508	181.5
2309.037	190.5
2311.563	187.5
2314.088	183.5
2316.612	167.5
2319.133	181.16667
2321.653	188.5
2324.171	175.5
2326.688	194.5
2329.202	185.83333
2331.715	180.83333
2334.227	181.5
2336.736	174.16667
2339.244	168.5
2341.751	166.5
2344.255	179.5
2346.758	184.16667
2349.259	167.16667
2351.759	172.5
2354.257	163.16667
2356.753	166.83333
2359.247	165.5
2361.74	169.83333
2364.231	164.5
2366.721	179.5
2369.209	160.83333
2371.695	163.83333
2374.179	159.83333
2376.662	154.5
2379.143	178.5
2381.622	160.5
2384.1	175.83333
2386.576	164.83333
2389.051	171.83333
2391.524	175.83333
2393.995	171.16667
2396.464	166.5
2398.932	150.16667
2401.398	168.16667
2403.863	155.83333
2406.325	159.16667
2408.787	171.5
2411.246	157.83333
2413.704	160.83333
2416.16	156.83333
2418.615	157.16667
2421.068	163.83333
2423.519	157.16667
2425.969	150.83333
2428.417	168.83333
2430.863	174.16667
2433.308	167.16667
2435.751	160.16667
2438.193	156.5
2440.633	157.83333
2443.071	161.5
2445.508	146.5
2447.943	152.5
2450.376	144.83333
2452.808	159.16667
2455.238	145.83333
2457.667	179.83333
2460.093	148.83333
2462.519	144.16667
2464.942	147.5
2467.365	156.83333
2469.785	157.83333
2472.204	140.16667
2474.621	145.5
2477.037	163.5
2479.451	136.83333
2481.863	135.83333
2484.274	149.83333
2486.683	151.5
2489.091	152.5
2491.497	150.5
2493.901	151.16667
2496.304	149.16667
2498.705	157.5
2501.105	149.5
2503.503	167.83333
2505.899	137.16667
2508.294	157.83333
2510.687	144.83333
2513.079	143.83333
2515.469	137.83333
2517.858	140.5
2520.245	158.5
2522.63	142.16667
2525.014	136.5
2527.396	135.5
2529.776	138.5
2532.156	145.16667
2534.533	132.83333
2536.909	135.5
2539.283	121.16667
2541.656	134.83333
2544.027	148.83333
2546.397	142.83333
2548.765	134.83333
2551.131	142.5
2553.496	140.5
2555.86	143.83333
2558.221	144.83333
2560.582	130.16667
2562.94	126.83333
2565.298	143.16667
2567.653	148.16667
2570.007	124.5
2572.36	144.5
2574.711	136.5
2577.06	147.5
2579.408	137.5
2581.754	131.83333
2584.099	129.83333
2586.442	137.16667
2588.784	138.83333
2591.124	134.16667
2593.463	131.5
2595.8	137.83333
2598.135	119.16667
2600.469	126.16667
2602.802	139.83333
2605.133	141.83333
2607.462	124.16667
2609.79	121.83333
2612.116	138.16667
2614.441	131.16667
2616.764	133.5
2619.086	134.16667
2621.406	124.5
2623.725	138.83333
2626.042	133.5
2628.358	121.5
2630.672	130.83333
2632.985	138.16667
2635.296	132.83333
2637.606	128.83333
2639.914	128.5
2642.22	129.83333
2644.525	126.83333
2646.829	132.5
2649.131	141.83333
2651.432	141.5
2653.731	127.16667
2656.028	143.16667
2658.324	131.5
2660.619	126.5
2662.912	139.83333
2665.204	115.16667
2667.494	140.5
2669.782	117.5
2672.07	139.5
2674.355	142.16667
2676.639	134.5
2678.922	120.5
2681.203	133.16667
2683.483	123.5
2685.761	121.16667
2688.038	132.83333
2690.313	145.5
2692.587	134.83333
2694.859	124.5
2697.13	127.16667
2699.399	124.83333
2701.667	137.5
2703.933	133.83333
2706.198	141.16667
2708.461	140.5
2710.723	142.83333
2712.984	130.16667
2715.243	143.83333
2717.5	133.83333
2719.757	140.16667
2722.011	133.83333
2724.264	143.16667
2726.516	153.5
2728.766	129.5
2731.015	136.83333
2733.262	136.5
2735.508	130.16667
2737.753	137.83333
2739.996	121.5
2742.237	119.5
2744.477	139.16667
2746.716	145.16667
2748.953	142.5
2751.189	144.5
2753.423	134.5
2755.656	127.83333
2757.887	121.83333
2760.117	125.5
2762.346	122.83333
2764.573	112.83333
2766.798	123.83333
2769.022	126.16667
2771.245	119.83333
2773.467	125.16667
2775.686	119.83333
2777.905	132.83333
2780.122	123.5
2782.337	133.5
2784.552	121.5
2786.764	126.16667
2788.976	121.16667
2791.186	127.16667
2793.394	132.5
2795.601	138.5
2797.807	138.16667
2800.011	129.16667
2802.214	138.5
2804.415	128.83333
2806.615	136.5
2808.814	140.16667
2811.011	143.83333
2813.206	137.83333
2815.401	152.83333
2817.594	143.83333
2819.785	157.5
2821.975	135.83333
2824.164	144.5
2826.351	139.5
2828.537	156.16667
2830.722	157.5
2832.905	151.83333
2835.086	154.16667
2837.267	176.16667
2839.445	172.83333
2841.623	171.16667
2843.799	174.83333
2845.974	180.83333
2848.147	190.5
2850.319	202.5
2852.489	200.5
2854.659	210.83333
2856.826	207.83333
2858.993	227.5
2861.158	206.83333
2863.321	214.16667
2865.483	229.16667
2867.644	223.83333
2869.804	223.5
2871.962	212.83333
2874.118	214.83333
2876.274	219.16667
2878.428	216.16667
2880.58	223.16667
2882.731	212.83333
2884.881	218.83333
2887.03	222.5
2889.177	220.5
2891.322	228.16667
2893.467	216.16667
2895.61	216.5
2897.751	227.16667
2899.892	219.83333
2902.03	220.83333
2904.168	221.83333
2906.304	223.16667
2908.439	238.16667
2910.572	218.5
2912.704	231.5
2914.835	240.16667
2916.965	230.83333
2919.093	244.83333
2921.219	219.16667
2923.345	246.16667
2925.469	225.16667
2927.591	216.83333
2929.712	214.5
2931.832	224.16667
2933.951	214.16667
2936.068	213.83333
2938.184	199.83333
2940.299	198.16667
2942.412	192.83333
2944.524	180.83333
2946.634	188.16667
2948.744	163.5
2950.851	204.16667
2952.958	163.83333
2955.063	176.83333
2957.167	163.16667
2959.269	157.16667
2961.371	188.16667
2963.471	153.5
2965.569	172.83333
2967.666	138.83333
2969.762	141.5
2971.857	140.16667
2973.95	129.83333
2976.042	143.5
2978.133	133.83333
2980.222	132.83333
2982.31	120.16667
2984.396	105.5
2986.482	115.16667
2988.566	120.5
2990.648	123.83333
2992.73	116.5
2994.81	104.83333
2996.889	120.5
2998.966	116.83333
3001.042	128.16667
3003.117	106.5
3005.191	116.16667
3007.263	117.5
3009.334	110.16667
3011.403	112.16667
3013.472	106.16667
3015.539	121.16667
3017.604	125.5
3019.669	102.83333
3021.732	102.16667
3023.794	107.83333
3025.854	98.16667
3027.914	96.83333
3029.971	94.16667
3032.028	97.5
3034.083	111.5
3036.137	99.83333
3038.19	91.16667
3040.242	87.16667
3042.292	83.16667
3044.341	89.5
3046.388	110.16667
3048.435	86.16667
3050.48	106.16667
3052.524	88.5
3054.566	77.16667
3056.607	93.83333
3058.647	89.5
3060.686	80.5
3062.723	74.16667
3064.759	77.83333
3066.794	1.83333
3068.828	-0.5
3070.86	2.83333
