-0.839	138.04167
3.438	154.375
7.711	64.70833
11.981	45.04167
16.247	32.04167
20.509	39.375
24.768	36.70833
29.024	46.04167
33.276	31.70833
37.524	42.375
41.769	31.375
46.01	28.04167
50.247	44.375
54.481	54.04167
58.712	53.70833
62.939	38.04167
67.162	56.375
71.382	43.375
75.599	36.70833
79.812	44.70833
84.021	60.70833
88.227	43.375
92.429	53.375
96.628	35.70833
100.823	51.70833
105.015	52.70833
109.204	47.04167
113.388	61.04167
117.57	48.375
121.748	62.375
125.922	45.70833
130.093	67.375
134.261	67.70833
138.425	53.04167
142.585	84.70833
146.742	66.70833
150.896	82.70833
155.046	76.70833
159.193	116.04167
163.336	173.04167
167.476	305.375
171.613	546.04167
175.746	877.375
179.875	1294.375
184.002	1679.04167
188.124	2015.375
192.244	2110.70833
196.36	2135.70833
200.472	2118.04167
204.581	2086.375
208.687	2030.375
212.79	2030.04167
216.889	2075.70833
220.984	2089.04167
225.077	2103.70833
229.165	2105.04167
233.251	2094.04167
237.333	2085.375
241.412	2096.04167
245.487	2074.04167
249.559	2057.04167
253.628	2055.04167
257.694	2018.375
261.756	2025.70833
265.814	2001.04167
269.87	1945.04167
273.922	1911.04167
277.97	1896.04167
282.016	1883.70833
286.058	1884.70833
290.097	1922.375
294.132	1931.70833
298.164	1951.04167
302.193	1866.70833
306.219	1759.70833
310.241	1694.70833
314.26	1571.375
318.276	1511.375
322.288	1475.375
326.297	1421.04167
330.303	1399.70833
334.305	1385.04167
338.305	1367.70833
342.301	1350.375
346.294	1366.375
350.283	1357.70833
354.269	1329.375
358.252	1342.375
362.232	1337.70833
366.209	1335.375
370.182	1332.70833
374.152	1328.70833
378.119	1340.70833
382.083	1317.70833
386.043	1351.70833
390	1321.375
393.954	1337.375
397.905	1345.70833
401.852	1362.375
405.797	1347.70833
409.738	1340.04167
413.676	1341.04167
417.61	1347.375
421.542	1338.04167
425.47	1323.70833
429.396	1318.375
433.318	1296.04167
437.236	1325.375
441.152	1347.04167
445.065	1304.375
448.974	1310.04167
452.88	1285.70833
456.783	1301.375
460.683	1274.375
464.58	1295.375
468.473	1309.04167
472.364	1308.04167
476.251	1316.04167
480.135	1320.375
484.016	1318.70833
487.894	1321.04167
491.769	1311.70833
495.641	1333.70833
499.509	1325.375
503.375	1328.70833
507.237	1323.375
511.096	1307.375
514.952	1300.375
518.805	1313.70833
522.655	1308.375
526.502	1321.375
530.346	1309.375
534.187	1332.375
538.024	1319.70833
541.859	1312.375
545.69	1332.375
549.519	1323.70833
553.344	1310.70833
557.166	1286.04167
560.985	1303.70833
564.802	1296.375
568.615	1286.375
572.425	1266.375
576.232	1256.70833
580.036	1255.375
583.836	1270.70833
587.634	1255.04167
591.429	1255.04167
595.221	1305.04167
599.01	1286.375
602.796	1289.70833
606.578	1298.04167
610.358	1287.70833
614.135	1275.70833
617.909	1297.70833
621.679	1293.04167
625.447	1284.375
629.212	1288.375
632.973	1274.375
636.732	1260.375
640.488	1264.375
644.241	1256.70833
647.991	1234.375
651.737	1269.375
655.481	1233.04167
659.222	1251.70833
662.96	1237.04167
666.695	1252.375
670.427	1254.04167
674.156	1268.375
677.882	1263.375
681.605	1256.375
685.325	1243.375
689.043	1259.70833
692.757	1249.04167
696.468	1244.04167
700.177	1232.375
703.882	1218.375
707.585	1222.375
711.284	1213.04167
714.981	1208.375
718.675	1198.04167
722.366	1204.70833
726.054	1201.70833
729.739	1205.375
733.421	1205.375
737.1	1198.04167
740.777	1206.04167
744.45	1200.375
748.121	1204.375
751.789	1233.375
755.453	1226.70833
759.115	1225.375
762.774	1224.70833
766.431	1224.04167
770.084	1236.70833
773.734	1233.70833
777.382	1242.04167
781.027	1239.70833
784.669	1239.70833
788.308	1226.04167
791.944	1246.70833
795.577	1267.70833
799.208	1264.70833
802.835	1270.375
806.46	1277.375
810.082	1271.70833
813.701	1275.04167
817.317	1281.04167
820.931	1292.04167
824.542	1287.04167
828.149	1254.70833
831.754	1246.375
835.357	1244.70833
838.956	1248.04167
842.553	1251.04167
846.146	1234.70833
849.737	1215.04167
853.326	1216.375
856.911	1200.04167
860.493	1212.70833
864.073	1223.70833
867.65	1242.375
871.225	1254.04167
874.796	1240.375
878.365	1220.375
881.931	1250.375
885.494	1256.375
889.054	1239.04167
892.612	1246.04167
896.166	1213.375
899.719	1207.70833
903.268	1185.375
906.814	1208.375
910.358	1173.04167
913.899	1170.375
917.438	1165.04167
920.973	1152.375
924.506	1177.375
928.036	1186.70833
931.564	1213.375
935.088	1212.04167
938.61	1204.70833
942.129	1209.04167
945.646	1220.70833
949.16	1227.04167
952.671	1248.70833
956.179	1261.04167
959.685	1241.70833
963.188	1261.375
966.688	1235.70833
970.185	1205.375
973.68	1164.04167
977.173	1166.04167
980.662	1148.70833
984.149	1163.04167
987.633	1150.04167
991.114	1149.70833
994.593	1197.04167
998.069	1176.375
1001.542	1230.375
1005.013	1198.04167
1008.481	1131.70833
1011.947	1139.375
1015.409	1112.70833
1018.869	1121.375
1022.327	1124.04167
1025.782	1099.70833
1029.234	1103.375
1032.683	1078.375
1036.13	1063.70833
1039.574	1040.04167
1043.016	1014.04167
1046.455	1003.70833
1049.891	979.04167
1053.325	1006.04167
1056.756	997.70833
1060.184	990.70833
1063.61	984.375
1067.033	996.04167
1070.454	994.04167
1073.872	1021.70833
1077.287	985.04167
1080.7	1001.375
1084.11	990.70833
1087.517	987.375
1090.922	987.375
1094.325	972.04167
1097.724	956.04167
1101.122	955.04167
1104.516	972.04167
1107.908	930.70833
1111.298	949.375
1114.684	964.70833
1118.069	960.375
1121.45	978.70833
1124.83	955.70833
1128.206	982.70833
1131.58	984.70833
1134.951	1019.04167
1138.32	1016.70833
1141.687	1061.04167
1145.05	1064.70833
1148.412	1059.70833
1151.77	1058.375
1155.126	1055.70833
1158.48	1020.375
1161.831	1052.04167
1165.18	1049.70833
1168.525	1061.04167
1171.869	1080.04167
1175.21	1061.70833
1178.548	1087.70833
1181.884	1081.04167
1185.217	1094.70833
1188.548	1115.70833
1191.877	1137.04167
1195.202	1163.70833
1198.526	1185.70833
1201.846	1181.375
1205.165	1189.375
1208.48	1195.70833
1211.794	1183.04167
1215.104	1197.375
1218.413	1186.04167
1221.719	1189.04167
1225.022	1167.70833
1228.323	1157.70833
1231.621	1147.70833
1234.917	1136.375
1238.21	1160.70833
1241.501	1139.70833
1244.79	1118.375
1248.076	1110.04167
1251.359	1117.70833
1254.64	1181.04167
1257.919	1153.70833
1261.195	1160.04167
1264.468	1181.70833
1267.74	1206.375
1271.008	1200.375
1274.275	1206.70833
1277.538	1201.375
1280.8	1187.04167
1284.059	1179.375
1287.315	1199.04167
1290.569	1172.04167
1293.821	1202.70833
1297.07	1208.04167
1300.317	1198.375
1303.562	1207.375
1306.803	1192.70833
1310.043	1191.375
1313.28	1183.04167
1316.515	1176.04167
1319.747	1172.375
1322.977	1159.70833
1326.204	1146.70833
1329.429	1134.375
1332.652	1159.04167
1335.872	1137.70833
1339.09	1126.70833
1342.306	1120.04167
1345.519	1118.70833
1348.729	1085.375
1351.938	1107.375
1355.144	1097.70833
1358.347	1075.70833
1361.548	1089.375
1364.747	1090.70833
1367.944	1070.375
1371.138	1071.04167
1374.329	1063.70833
1377.518	1071.375
1380.705	1074.04167
1383.89	1079.375
1387.072	1046.70833
1390.252	1018.375
1393.429	990.04167
1396.605	968.375
1399.777	929.375
1402.948	920.04167
1406.116	910.375
1409.282	914.70833
1412.445	917.70833
1415.606	931.70833
1418.765	925.70833
1421.921	943.375
1425.075	954.70833
1428.227	971.04167
1431.376	1015.70833
1434.524	1046.70833
1437.668	1052.375
1440.811	1065.04167
1443.951	1074.04167
1447.089	1090.04167
1450.224	1073.375
1453.357	1080.375
1456.488	1074.375
1459.617	1055.375
1462.743	1029.375
1465.867	1007.70833
1468.989	995.375
1472.108	974.70833
1475.225	975.04167
1478.34	950.70833
1481.453	945.375
1484.563	956.375
1487.671	967.70833
1490.776	979.04167
1493.88	979.375
1496.981	992.375
1500.08	1006.375
1503.176	1003.04167
1506.271	1013.375
1509.363	1045.70833
1512.452	1018.04167
1515.54	1027.04167
1518.625	1039.375
1521.708	1073.375
1524.789	1095.375
1527.867	1137.70833
1530.944	1190.04167
1534.018	1199.04167
1537.089	1268.04167
1540.159	1273.70833
1543.226	1277.70833
1546.291	1247.04167
1549.354	1237.375
1552.415	1222.04167
1555.473	1186.04167
1558.529	1169.04167
1561.583	1154.375
1564.634	1135.375
1567.684	1124.04167
1570.731	1146.70833
1573.776	1144.70833
1576.819	1159.04167
1579.859	1160.04167
1582.898	1187.04167
1585.934	1197.70833
1588.968	1193.04167
1591.999	1186.04167
1595.029	1168.04167
1598.056	1194.04167
1601.081	1220.04167
1604.104	1210.04167
1607.125	1180.04167
1610.144	1169.70833
1613.16	1151.375
1616.174	1126.70833
1619.186	1108.375
1622.196	1083.375
1625.203	1047.375
1628.209	1036.04167
1631.212	1035.70833
1634.213	1046.04167
1637.212	1040.375
1640.209	1039.375
1643.203	1000.70833
1646.196	975.375
1649.186	951.04167
1652.174	929.70833
1655.16	889.04167
1658.144	897.375
1661.125	854.70833
1664.105	829.375
1667.082	789.375
1670.057	758.70833
1673.03	720.04167
1676.001	686.04167
1678.97	635.04167
1681.937	612.375
1684.901	586.70833
1687.863	576.04167
1690.824	546.70833
1693.782	558.375
1696.738	521.04167
1699.692	519.70833
1702.643	508.375
1705.593	504.70833
1708.54	493.04167
1711.486	509.04167
1714.429	477.70833
1717.37	491.04167
1720.309	478.70833
1723.246	482.70833
1726.181	462.70833
1729.113	474.70833
1732.044	464.04167
1734.972	454.70833
1737.899	467.70833
1740.823	472.70833
1743.745	498.375
1746.665	460.04167
1749.583	444.375
1752.499	443.04167
1755.413	444.70833
1758.325	417.375
1761.235	440.375
1764.142	424.70833
1767.048	424.04167
1769.951	412.70833
1772.852	413.04167
1775.752	418.70833
1778.649	426.375
1781.544	430.70833
1784.437	403.70833
1787.328	410.70833
1790.217	410.375
1793.104	385.04167
1795.989	393.70833
1798.872	393.375
1801.753	413.70833
1804.631	399.375
1807.508	402.70833
1810.383	383.375
1813.255	383.70833
1816.126	383.70833
1818.994	387.04167
1821.861	374.375
1824.725	392.04167
1827.587	387.70833
1830.448	390.70833
1833.306	372.70833
1836.162	395.375
1839.017	381.04167
1841.869	387.04167
1844.719	374.70833
1847.567	367.04167
1850.414	351.04167
1853.258	352.04167
1856.1	379.70833
1858.94	375.70833
1861.778	369.04167
1864.614	352.04167
1867.448	367.375
1870.28	347.04167
1873.111	371.375
1875.939	360.04167
1878.765	375.04167
1881.589	353.70833
1884.411	364.04167
1887.231	367.04167
1890.049	359.375
1892.865	362.70833
1895.68	349.04167
1898.492	358.70833
1901.302	341.70833
1904.11	351.375
1906.916	339.04167
1909.721	343.04167
1912.523	349.375
1915.323	338.375
1918.122	336.375
1920.918	351.70833
1923.712	334.375
1926.505	347.70833
1929.295	328.70833
1932.084	339.04167
1934.87	337.70833
1937.655	329.375
1940.438	324.04167
1943.218	331.375
1945.997	332.04167
1948.774	337.04167
1951.549	329.04167
1954.322	325.04167
1957.093	332.70833
1959.862	320.04167
1962.629	324.04167
1965.394	315.70833
1968.157	313.70833
1970.918	322.70833
1973.678	313.70833
1976.435	316.70833
1979.19	309.70833
1981.944	302.04167
1984.696	309.70833
1987.445	307.375
1990.193	308.70833
1992.939	324.70833
1995.683	316.375
1998.425	296.70833
2001.165	314.70833
2003.903	294.375
2006.639	300.70833
2009.374	307.04167
2012.106	308.04167
2014.837	291.04167
2017.566	308.04167
2020.292	303.70833
2023.017	297.70833
2025.74	282.04167
2028.461	293.04167
2031.18	295.04167
2033.898	289.70833
2036.613	295.70833
2039.327	299.375
2042.038	287.04167
2044.748	287.70833
2047.456	291.70833
2050.162	279.375
2052.866	287.70833
2055.568	301.04167
2058.268	280.70833
2060.967	294.70833
2063.663	278.70833
2066.358	275.70833
2069.051	280.375
2071.742	280.04167
2074.431	283.375
2077.118	274.04167
2079.804	268.70833
2082.487	275.375
2085.169	297.04167
2087.849	306.375
2090.527	270.70833
2093.203	276.70833
2095.877	286.70833
2098.55	281.04167
2101.22	285.375
2103.889	293.04167
2106.556	277.70833
2109.221	298.70833
2111.884	293.375
2114.546	310.375
2117.205	319.375
2119.863	353.04167
2122.519	352.375
2125.173	371.04167
2127.825	405.04167
2130.475	398.70833
2133.124	378.375
2135.771	368.04167
2138.416	371.04167
2141.059	345.04167
2143.7	335.375
2146.339	313.375
2148.977	287.70833
2151.613	308.70833
2154.247	293.70833
2156.879	286.70833
2159.51	277.70833
2162.138	272.70833
2164.765	268.375
2167.39	262.375
2170.013	281.375
2172.634	274.04167
2175.254	265.70833
2177.872	294.70833
2180.488	255.375
2183.102	252.375
2185.714	254.375
2188.325	240.375
2190.934	257.375
2193.541	253.04167
2196.146	249.70833
2198.75	239.70833
2201.351	250.04167
2203.951	224.04167
2206.549	244.375
2209.146	235.375
2211.74	225.04167
2214.333	243.375
2216.924	226.70833
2219.514	231.70833
2222.101	233.375
2224.687	244.375
2227.271	221.70833
2229.853	219.04167
2232.433	209.04167
2235.012	230.04167
2237.589	222.04167
2240.164	240.375
2242.738	217.04167
2245.309	218.375
2247.879	232.04167
2250.448	235.70833
2253.014	213.04167
2255.579	205.04167
2258.142	212.375
2260.703	213.04167
2263.262	208.70833
2265.82	210.04167
2268.376	221.70833
2270.93	215.04167
2273.483	202.375
2276.033	212.04167
2278.583	213.04167
2281.13	207.375
2283.675	199.375
2286.219	204.04167
2288.761	207.375
2291.302	212.70833
2293.841	221.04167
2296.377	193.04167
2298.913	202.70833
2301.446	214.375
2303.978	209.04167
2306.508	203.04167
2309.037	198.04167
2311.563	197.375
2314.088	205.375
2316.612	188.04167
2319.133	203.375
2321.653	198.70833
2324.171	190.70833
2326.688	206.04167
2329.202	194.375
2331.715	196.375
2334.227	192.375
2336.736	190.70833
2339.244	186.375
2341.751	180.04167
2344.255	190.70833
2346.758	193.70833
2349.259	177.70833
2351.759	195.04167
2354.257	181.04167
2356.753	179.04167
2359.247	181.70833
2361.74	183.04167
2364.231	191.04167
2366.721	187.04167
2369.209	181.04167
2371.695	178.04167
2374.179	171.70833
2376.662	167.375
2379.143	183.375
2381.622	175.70833
2384.1	184.375
2386.576	171.375
2389.051	190.375
2391.524	189.04167
2393.995	182.375
2396.464	175.70833
2398.932	172.375
2401.398	179.375
2403.863	169.04167
2406.325	166.04167
2408.787	178.04167
2411.246	173.375
2413.704	174.04167
2416.16	167.70833
2418.615	171.375
2421.068	174.70833
2423.519	167.70833
2425.969	165.04167
2428.417	175.04167
2430.863	190.70833
2433.308	178.375
2435.751	168.375
2438.193	168.04167
2440.633	172.04167
2443.071	172.375
2445.508	161.375
2447.943	166.375
2450.376	160.375
2452.808	176.70833
2455.238	155.375
2457.667	189.04167
2460.093	160.70833
2462.519	150.04167
2464.942	158.375
2467.365	167.375
2469.785	167.04167
2472.204	156.375
2474.621	158.70833
2477.037	180.375
2479.451	153.04167
2481.863	152.375
2484.274	149.04167
2486.683	156.70833
2489.091	163.04167
2491.497	163.375
2493.901	161.375
2496.304	153.70833
2498.705	164.70833
2501.105	161.70833
2503.503	173.70833
2505.899	149.70833
2508.294	175.04167
2510.687	152.70833
2513.079	154.04167
2515.469	150.70833
2517.858	148.04167
2520.245	168.375
2522.63	153.04167
2525.014	147.70833
2527.396	140.375
2529.776	143.04167
2532.156	157.70833
2534.533	137.375
2536.909	142.70833
2539.283	130.375
2541.656	140.70833
2544.027	157.70833
2546.397	150.375
2548.765	144.375
2551.131	155.04167
2553.496	153.375
2555.86	151.375
2558.221	155.04167
2560.582	141.375
2562.94	136.375
2565.298	143.375
2567.653	150.375
2570.007	135.04167
2572.36	149.70833
2574.711	135.70833
2577.06	153.04167
2579.408	141.70833
2581.754	140.04167
2584.099	137.04167
2586.442	138.375
2588.784	148.04167
2591.124	143.70833
2593.463	143.375
2595.8	144.70833
2598.135	133.70833
2600.469	133.04167
2602.802	142.70833
2605.133	148.375
2607.462	131.04167
2609.79	131.375
2612.116	146.70833
2614.441	137.375
2616.764	138.375
2619.086	142.04167
2621.406	133.375
2623.725	146.375
2626.042	139.375
2628.358	129.04167
2630.672	138.04167
2632.985	147.04167
2635.296	139.375
2637.606	137.04167
2639.914	130.70833
2642.22	134.04167
2644.525	138.375
2646.829	132.375
2649.131	150.70833
2651.432	145.70833
2653.731	134.375
2656.028	150.70833
2658.324	139.70833
2660.619	128.70833
2662.912	141.375
2665.204	124.375
2667.494	140.04167
2669.782	125.375
2672.07	144.70833
2674.355	148.70833
2676.639	144.04167
2678.922	130.04167
2681.203	140.04167
2683.483	127.375
2685.761	121.04167
2688.038	144.70833
2690.313	148.70833
2692.587	138.04167
2694.859	127.375
2697.13	135.70833
2699.399	136.70833
2701.667	145.375
2703.933	135.04167
2706.198	147.04167
2708.461	155.04167
2710.723	146.04167
2712.984	145.70833
2715.243	148.70833
2717.5	136.375
2719.757	150.375
2722.011	139.70833
2724.264	146.70833
2726.516	157.375
2728.766	138.04167
2731.015	138.375
2733.262	136.70833
2735.508	136.70833
2737.753	147.04167
2739.996	129.70833
2742.237	128.70833
2744.477	140.70833
2746.716	151.375
2748.953	145.70833
2751.189	144.70833
2753.423	144.04167
2755.656	133.70833
2757.887	126.70833
2760.117	134.04167
2762.346	131.04167
2764.573	120.375
2766.798	128.70833
2769.022	130.04167
2771.245	124.04167
2773.467	131.70833
2775.686	127.70833
2777.905	145.375
2780.122	131.375
2782.337	139.70833
2784.552	130.375
2786.764	128.70833
2788.976	128.70833
2791.186	134.04167
2793.394	134.04167
2795.601	146.04167
2797.807	143.70833
2800.011	138.375
2802.214	139.70833
2804.415	140.04167
2806.615	142.375
2808.814	138.375
2811.011	147.70833
2813.206	148.70833
2815.401	157.04167
2817.594	152.375
2819.785	159.70833
2821.975	141.70833
2824.164	144.375
2826.351	152.04167
2828.537	167.70833
2830.722	164.04167
2832.905	155.04167
2835.086	163.375
2837.267	186.375
2839.445	176.04167
2841.623	186.375
2843.799	185.375
2845.974	191.70833
2848.147	198.04167
2850.319	208.375
2852.489	212.70833
2854.659	216.04167
2856.826	216.375
2858.993	236.70833
2861.158	216.70833
2863.321	211.04167
2865.483	244.04167
2867.644	222.04167
2869.804	231.375
2871.962	222.70833
2874.118	226.375
2876.274	240.04167
2878.428	231.70833
2880.58	229.375
2882.731	220.375
2884.881	223.70833
2887.03	235.70833
2889.177	227.70833
2891.322	228.375
2893.467	222.04167
2895.61	219.375
2897.751	235.04167
2899.892	229.04167
2902.03	236.04167
2904.168	228.70833
2906.304	229.04167
2908.439	245.375
2910.572	229.70833
2912.704	236.375
2914.835	238.70833
2916.965	234.70833
2919.093	255.70833
2921.219	225.70833
2923.345	250.375
2925.469	235.70833
2927.591	225.70833
2929.712	211.04167
2931.832	226.70833
2933.951	220.70833
2936.068	215.70833
2938.184	210.04167
2940.299	208.04167
2942.412	201.375
2944.524	184.70833
2946.634	198.04167
2948.744	165.70833
2950.851	202.70833
2952.958	169.04167
2955.063	174.375
2957.167	160.70833
2959.269	154.375
2961.371	179.375
2963.471	154.04167
2965.569	167.375
2967.666	146.04167
2969.762	140.70833
2971.857	139.375
2973.95	134.70833
2976.042	148.70833
2978.133	138.375
2980.222	133.04167
2982.31	124.375
2984.396	106.70833
2986.482	113.375
2988.566	119.375
2990.648	123.04167
2992.73	119.70833
2994.81	108.375
2996.889	119.04167
2998.966	117.70833
3001.042	125.375
3003.117	113.70833
3005.191	114.375
3007.263	118.70833
3009.334	113.04167
3011.403	114.70833
3013.472	109.375
3015.539	120.04167
3017.604	129.04167
3019.669	100.04167
3021.732	104.04167
3023.794	106.70833
3025.854	98.04167
3027.914	93.70833
3029.971	97.04167
3032.028	94.375
3034.083	103.04167
3036.137	106.04167
3038.19	91.04167
3040.242	85.04167
3042.292	85.04167
3044.341	91.04167
3046.388	104.375
3048.435	84.375
3050.48	101.375
3052.524	87.04167
3054.566	82.375
3056.607	90.375
3058.647	88.375
3060.686	78.70833
3062.723	71.04167
3064.759	73.375
3066.794	-0.29167
3068.828	0.375
3070.86	0.70833
