-0.839	145.33333
3.438	172.33333
7.711	65.33333
11.981	40
16.247	32.66667
20.509	37.33333
24.768	39
29.024	40
33.276	26.66667
37.524	40
41.769	32.66667
46.01	25.66667
50.247	42
54.481	50.66667
58.712	53
62.939	36.33333
67.162	53
71.382	47.33333
75.599	35
79.812	43
84.021	60.33333
88.227	44
92.429	50.66667
96.628	37.66667
100.823	50.33333
105.015	48
109.204	46
113.388	54
117.57	43.33333
121.748	57.66667
125.922	49.66667
130.093	60.66667
134.261	62
138.425	52
142.585	84
146.742	66
150.896	78.33333
155.046	74
159.193	112.33333
163.336	163
167.476	278
171.613	509
175.746	808.66667
179.875	1168.33333
184.002	1509.33333
188.124	1794.33333
192.244	1862.66667
196.36	1855
200.472	1840.66667
204.581	1819
208.687	1749.33333
212.79	1743
216.889	1755.66667
220.984	1777.33333
225.077	1772.66667
229.165	1768.66667
233.251	1753.33333
237.333	1768.66667
241.412	1743.33333
245.487	1746.33333
249.559	1705.33333
253.628	1712.33333
257.694	1681.66667
261.756	1683.33333
265.814	1643.66667
269.87	1597.33333
273.922	1555.66667
277.97	1539.66667
282.016	1530
286.058	1507.66667
290.097	1549.33333
294.132	1555.33333
298.164	1557.33333
302.193	1492.33333
306.219	1387
310.241	1297.66667
314.26	1210.66667
318.276	1146
322.288	1114.33333
326.297	1062.66667
330.303	1044
334.305	1022.66667
338.305	1015
342.301	1014.33333
346.294	1007.33333
350.283	989.66667
354.269	995.66667
358.252	993
362.232	984.66667
366.209	973.66667
370.182	969.66667
374.152	969.33333
378.119	966.33333
382.083	963.66667
386.043	987.33333
390	950.33333
393.954	965.66667
397.905	965
401.852	977.33333
405.797	977.33333
409.738	954.33333
413.676	947.33333
417.61	976
421.542	954.66667
425.47	945.66667
429.396	930.66667
433.318	925.66667
437.236	918
441.152	960.66667
445.065	904.33333
448.974	926.33333
452.88	910.66667
456.783	908
460.683	901.33333
464.58	903.33333
468.473	918.66667
472.364	905.66667
476.251	912.66667
480.135	905.66667
484.016	923
487.894	929
491.769	938.33333
495.641	932
499.509	924.33333
503.375	937.33333
507.237	915.66667
511.096	924.66667
514.952	924.33333
518.805	927
522.655	933.33333
526.502	928
530.346	923
534.187	923.66667
538.024	918.33333
541.859	912.33333
545.69	946
549.519	937.66667
553.344	928.33333
557.166	904.66667
560.985	900.66667
564.802	904.33333
568.615	891
572.425	861.66667
576.232	867.33333
580.036	871.66667
583.836	882.33333
587.634	887
591.429	877
595.221	908.66667
599.01	899.66667
602.796	896.66667
606.578	908.33333
610.358	907.66667
614.135	892.33333
617.909	892.33333
621.679	885
625.447	886.33333
629.212	897.33333
632.973	897.66667
636.732	880.66667
640.488	890.66667
644.241	881.33333
647.991	869
651.737	904.66667
655.481	860
659.222	873
662.96	875.33333
666.695	880.66667
670.427	885.33333
674.156	886.66667
677.882	887
681.605	885.66667
685.325	872.33333
689.043	890.66667
692.757	887.66667
696.468	873
700.177	879
703.882	853.33333
707.585	855.33333
711.284	860.33333
714.981	846.33333
718.675	856.66667
722.366	869.33333
726.054	842.33333
729.739	866.66667
733.421	853
737.1	848.66667
740.777	868
744.45	861.33333
748.121	870.33333
751.789	885.66667
755.453	862.66667
759.115	889.66667
762.774	881.66667
766.431	884.33333
770.084	898.33333
773.734	895.33333
777.382	919.66667
781.027	918.66667
784.669	911
788.308	905.66667
791.944	926.33333
795.577	920.33333
799.208	926.33333
802.835	937
806.46	936
810.082	947.33333
813.701	950.66667
817.317	951.66667
820.931	948.33333
824.542	951.33333
828.149	938.66667
831.754	921.33333
835.357	921.66667
838.956	937.66667
842.553	927.33333
846.146	911.66667
849.737	886
853.326	906.66667
856.911	897.66667
860.493	913.66667
864.073	923.33333
867.65	931.33333
871.225	954.66667
874.796	928
878.365	912.33333
881.931	936.66667
885.494	949.33333
889.054	944
892.612	946.33333
896.166	934.33333
899.719	914
903.268	892.66667
906.814	902.66667
910.358	889.66667
913.899	888.33333
917.438	886.66667
920.973	863.66667
924.506	886.66667
928.036	901
931.564	915.66667
935.088	928.66667
938.61	917.33333
942.129	914.33333
945.646	935
949.16	943.33333
952.671	955
956.179	971.66667
959.685	959.33333
963.188	983
966.688	956
970.185	919
973.68	896.66667
977.173	901.66667
980.662	895.66667
984.149	900.33333
987.633	885.66667
991.114	890.66667
994.593	907.33333
998.069	919.33333
1001.542	941
1005.013	934.33333
1008.481	881.33333
1011.947	863.33333
1015.409	858
1018.869	867.33333
1022.327	870.33333
1025.782	855
1029.234	839.33333
1032.683	837.33333
1036.13	822.66667
1039.574	794
1043.016	775.33333
1046.455	771.33333
1049.891	746.33333
1053.325	770.33333
1056.756	755.66667
1060.184	763
1063.61	753
1067.033	755.66667
1070.454	764
1073.872	779
1077.287	760
1080.7	760
1084.11	772
1087.517	752
1090.922	751.33333
1094.325	734
1097.724	726
1101.122	738.66667
1104.516	735.66667
1107.908	722.66667
1111.298	733.66667
1114.684	750.33333
1118.069	741
1121.45	771
1124.83	750.33333
1128.206	768
1131.58	765.33333
1134.951	794
1138.32	785.66667
1141.687	815.33333
1145.05	837.33333
1148.412	854.33333
1151.77	846
1155.126	837.66667
1158.48	827.33333
1161.831	832.66667
1165.18	835.33333
1168.525	852.33333
1171.869	869.66667
1175.21	852
1178.548	872.66667
1181.884	879
1185.217	877
1188.548	898.66667
1191.877	909.33333
1195.202	966.66667
1198.526	1002
1201.846	982
1205.165	981.33333
1208.48	976.33333
1211.794	980
1215.104	977.66667
1218.413	965
1221.719	969.33333
1225.022	951
1228.323	943.66667
1231.621	941
1234.917	944
1238.21	960
1241.501	925
1244.79	928.66667
1248.076	910.66667
1251.359	945
1254.64	973.33333
1257.919	949.66667
1261.195	946.66667
1264.468	972
1267.74	987.33333
1271.008	985
1274.275	986.33333
1277.538	985.66667
1280.8	978.33333
1284.059	991
1287.315	991.33333
1290.569	983
1293.821	989.66667
1297.07	1002.33333
1300.317	1018
1303.562	1014
1306.803	990.33333
1310.043	994.33333
1313.28	990.66667
1316.515	984.66667
1319.747	989.33333
1322.977	972.33333
1326.204	967.66667
1329.429	951
1332.652	951.66667
1335.872	956.66667
1339.09	919
1342.306	938
1345.519	935
1348.729	919
1351.938	928.33333
1355.144	909
1358.347	891.33333
1361.548	902.33333
1364.747	913
1367.944	894.33333
1371.138	886.33333
1374.329	897
1377.518	899
1380.705	905
1383.89	890
1387.072	875.66667
1390.252	840.66667
1393.429	818.33333
1396.605	801
1399.777	764
1402.948	771.66667
1406.116	756
1409.282	763.66667
1412.445	746.66667
1415.606	760
1418.765	765.66667
1421.921	776.66667
1425.075	781.33333
1428.227	809.66667
1431.376	851.66667
1434.524	885
1437.668	882.33333
1440.811	902.33333
1443.951	906.33333
1447.089	919.66667
1450.224	906
1453.357	904.66667
1456.488	917.33333
1459.617	896.66667
1462.743	887.33333
1465.867	844.33333
1468.989	856
1472.108	836
1475.225	822.66667
1478.34	805.66667
1481.453	809.33333
1484.563	792
1487.671	811.33333
1490.776	833.33333
1493.88	824.33333
1496.981	854
1500.08	858.33333
1503.176	850
1506.271	867
1509.363	876.66667
1512.452	865.33333
1515.54	889.66667
1518.625	904
1521.708	926.33333
1524.789	964.66667
1527.867	979.33333
1530.944	1021
1534.018	1060.66667
1537.089	1110.66667
1540.159	1112.66667
1543.226	1123
1546.291	1103
1549.354	1078.66667
1552.415	1065.33333
1555.473	1038
1558.529	1010.66667
1561.583	1013
1564.634	985.66667
1567.684	993.33333
1570.731	1005
1573.776	1010
1576.819	1009
1579.859	1026.66667
1582.898	1046.33333
1585.934	1064.33333
1588.968	1055
1591.999	1043
1595.029	1031.33333
1598.056	1052.66667
1601.081	1068.33333
1604.104	1065
1607.125	1049
1610.144	1030
1613.16	1008
1616.174	984.33333
1619.186	975.33333
1622.196	948.33333
1625.203	916.66667
1628.209	935.33333
1631.212	901.33333
1634.213	921
1637.212	914
1640.209	931
1643.203	889.33333
1646.196	868.66667
1649.186	826.66667
1652.174	804
1655.16	785
1658.144	772.33333
1661.125	741
1664.105	715
1667.082	681.33333
1670.057	638
1673.03	608
1676.001	583
1678.97	531.66667
1681.937	515.66667
1684.901	489
1687.863	485.66667
1690.824	452.66667
1693.782	456.33333
1696.738	429
1699.692	428
1702.643	411.66667
1705.593	419.66667
1708.54	406.66667
1711.486	429.33333
1714.429	393.33333
1717.37	397.66667
1720.309	397.66667
1723.246	396
1726.181	376.33333
1729.113	381.33333
1732.044	378.33333
1734.972	367.66667
1737.899	388.33333
1740.823	391
1743.745	412.66667
1746.665	354
1749.583	356.33333
1752.499	349.33333
1755.413	349
1758.325	338.33333
1761.235	358
1764.142	329.33333
1767.048	339
1769.951	339.66667
1772.852	336.33333
1775.752	337.66667
1778.649	345.33333
1781.544	346.66667
1784.437	318
1787.328	334.66667
1790.217	330.33333
1793.104	305.66667
1795.989	313.33333
1798.872	307.66667
1801.753	325.66667
1804.631	312.66667
1807.508	330.33333
1810.383	312.33333
1813.255	315.33333
1816.126	315
1818.994	310.33333
1821.861	304.33333
1824.725	321.33333
1827.587	313.66667
1830.448	310.33333
1833.306	296.66667
1836.162	303.33333
1839.017	301
1841.869	305.66667
1844.719	304
1847.567	292
1850.414	284
1853.258	277
1856.1	308
1858.94	313.66667
1861.778	292
1864.614	287.33333
1867.448	291.66667
1870.28	279
1873.111	306
1875.939	285.66667
1878.765	305.33333
1881.589	283.33333
1884.411	288.33333
1887.231	297
1890.049	280.66667
1892.865	305.33333
1895.68	280.66667
1898.492	284.66667
1901.302	280.33333
1904.11	283.33333
1906.916	271.33333
1909.721	276
1912.523	291.66667
1915.323	270
1918.122	269.66667
1920.918	283
1923.712	268.66667
1926.505	277.66667
1929.295	260
1932.084	274.33333
1934.87	278
1937.655	269.66667
1940.438	263.66667
1943.218	268.33333
1945.997	270.66667
1948.774	277.66667
1951.549	276
1954.322	260.66667
1957.093	264
1959.862	258.33333
1962.629	262.33333
1965.394	269
1968.157	247
1970.918	273.33333
1973.678	255.33333
1976.435	265.66667
1979.19	261.66667
1981.944	247.33333
1984.696	249.33333
1987.445	248.33333
1990.193	249.66667
1992.939	268.33333
1995.683	267.66667
1998.425	355.66667
2001.165	288
2003.903	243
2006.639	238
2009.374	250
2012.106	243.33333
2014.837	225
2017.566	256.33333
2020.292	244.33333
2023.017	238.33333
2025.74	237.33333
2028.461	229.33333
2031.18	243.66667
2033.898	235.33333
2036.613	242.66667
2039.327	243.33333
2042.038	231.33333
2044.748	235.66667
2047.456	249.33333
2050.162	228.33333
2052.866	228.66667
2055.568	246
2058.268	231.33333
2060.967	239.66667
2063.663	227.66667
2066.358	223.66667
2069.051	224
2071.742	229.66667
2074.431	236.33333
2077.118	233.33333
2079.804	218.66667
2082.487	220.66667
2085.169	242
2087.849	253
2090.527	224
2093.203	232.66667
2095.877	228
2098.55	230.66667
2101.22	235.33333
2103.889	245
2106.556	231
2109.221	250.66667
2111.884	241.33333
2114.546	262.33333
2117.205	270
2119.863	311
2122.519	301.66667
2125.173	326.66667
2127.825	354.33333
2130.475	370.66667
2133.124	342
2135.771	313.33333
2138.416	330
2141.059	300.33333
2143.7	287.33333
2146.339	265
2148.977	243.33333
2151.613	259
2154.247	241.66667
2156.879	241.66667
2159.51	232.33333
2162.138	237.66667
2164.765	226
2167.39	210
2170.013	242.66667
2172.634	237
2175.254	216.66667
2177.872	252
2180.488	211.33333
2183.102	209.66667
2185.714	213.66667
2188.325	208.66667
2190.934	218
2193.541	221.66667
2196.146	205.66667
2198.75	194.33333
2201.351	203.33333
2203.951	189.33333
2206.549	202.66667
2209.146	195
2211.74	193.66667
2214.333	201.66667
2216.924	187.66667
2219.514	191.66667
2222.101	191.33333
2224.687	203.66667
2227.271	185.33333
2229.853	188
2232.433	173.33333
2235.012	196
2237.589	191.66667
2240.164	202.66667
2242.738	188.33333
2245.309	183.66667
2247.879	201.66667
2250.448	194
2253.014	173.66667
2255.579	168.33333
2258.142	181.33333
2260.703	176.66667
2263.262	179
2265.82	165
2268.376	188
2270.93	178.33333
2273.483	165.66667
2276.033	182
2278.583	168
2281.13	168.33333
2283.675	164.33333
2286.219	176.66667
2288.761	177.66667
2291.302	177.33333
2293.841	185
2296.377	160
2298.913	175
2301.446	181.33333
2303.978	168
2306.508	170.66667
2309.037	177
2311.563	165.33333
2314.088	173.33333
2316.612	157.66667
2319.133	168.33333
2321.653	173
2324.171	163
2326.688	171.66667
2329.202	170.66667
2331.715	169.33333
2334.227	168.33333
2336.736	160.33333
2339.244	157
2341.751	150.33333
2344.255	172.33333
2346.758	165.66667
2349.259	154
2351.759	166
2354.257	156.33333
2356.753	152.66667
2359.247	145.33333
2361.74	161.66667
2364.231	155.33333
2366.721	172
2369.209	154.33333
2371.695	159
2374.179	158.66667
2376.662	139.66667
2379.143	162.66667
2381.622	146.66667
2384.1	161.33333
2386.576	146
2389.051	162.66667
2391.524	161.33333
2393.995	159.33333
2396.464	148.33333
2398.932	149.33333
2401.398	161
2403.863	147.66667
2406.325	148.33333
2408.787	155
2411.246	152.66667
2413.704	150.66667
2416.16	143
2418.615	147
2421.068	151.33333
2423.519	145
2425.969	140.66667
2428.417	160.66667
2430.863	170
2433.308	152.66667
2435.751	156.66667
2438.193	150.33333
2440.633	146.33333
2443.071	155
2445.508	144.33333
2447.943	146
2450.376	147
2452.808	152.66667
2455.238	135.66667
2457.667	166
2460.093	137.66667
2462.519	132
2464.942	139
2467.365	149
2469.785	149.66667
2472.204	139
2474.621	135.33333
2477.037	158
2479.451	131
2481.863	131.33333
2484.274	133
2486.683	136.33333
2489.091	151
2491.497	140.66667
2493.901	140.33333
2496.304	137
2498.705	145.66667
2501.105	140.66667
2503.503	155
2505.899	133.33333
2508.294	150.33333
2510.687	137.66667
2513.079	132
2515.469	129.33333
2517.858	130.66667
2520.245	148
2522.63	130.66667
2525.014	128.66667
2527.396	131.33333
2529.776	129
2532.156	141.33333
2534.533	130
2536.909	123.33333
2539.283	114.66667
2541.656	126.33333
2544.027	144.33333
2546.397	136.66667
2548.765	127
2551.131	132.66667
2553.496	132.66667
2555.86	136
2558.221	137
2560.582	131
2562.94	119.33333
2565.298	131
2567.653	142.66667
2570.007	115.33333
2572.36	138.33333
2574.711	120.66667
2577.06	133.66667
2579.408	126
2581.754	127.66667
2584.099	126.66667
2586.442	129
2588.784	131.33333
2591.124	128.66667
2593.463	124
2595.8	132.66667
2598.135	113.66667
2600.469	120.66667
2602.802	134.66667
2605.133	133
2607.462	119
2609.79	119.33333
2612.116	127.66667
2614.441	126.66667
2616.764	127.66667
2619.086	124.33333
2621.406	117
2623.725	130.33333
2626.042	123.66667
2628.358	115.33333
2630.672	123.66667
2632.985	130.66667
2635.296	122.33333
2637.606	124
2639.914	115.33333
2642.22	120.33333
2644.525	123.33333
2646.829	128.33333
2649.131	135.66667
2651.432	129.66667
2653.731	117
2656.028	130.66667
2658.324	126
2660.619	113
2662.912	128.66667
2665.204	109.66667
2667.494	132.33333
2669.782	116.33333
2672.07	131.66667
2674.355	136.33333
2676.639	128.66667
2678.922	115
2681.203	129.66667
2683.483	121.66667
2685.761	110.66667
2688.038	133.66667
2690.313	137
2692.587	129.33333
2694.859	120.33333
2697.13	120
2699.399	127
2701.667	127
2703.933	125.66667
2706.198	136.66667
2708.461	132.66667
2710.723	134.66667
2712.984	132
2715.243	132.66667
2717.5	124.66667
2719.757	137.33333
2722.011	123.33333
2724.264	140
2726.516	142.66667
2728.766	124.33333
2731.015	127.33333
2733.262	124.33333
2735.508	123.33333
2737.753	132
2739.996	118
2742.237	120
2744.477	133.33333
2746.716	139
2748.953	136
2751.189	133
2753.423	134.33333
2755.656	123
2757.887	116
2760.117	121.33333
2762.346	115.66667
2764.573	107.66667
2766.798	119.66667
2769.022	121.33333
2771.245	117.66667
2773.467	117.33333
2775.686	117.66667
2777.905	125.66667
2780.122	122.33333
2782.337	127.66667
2784.552	123
2786.764	118.33333
2788.976	114.33333
2791.186	129.33333
2793.394	122
2795.601	130
2797.807	134.33333
2800.011	124.33333
2802.214	131.33333
2804.415	128
2806.615	132
2808.814	132
2811.011	133.33333
2813.206	134
2815.401	147
2817.594	142.66667
2819.785	146.33333
2821.975	132.33333
2824.164	139
2826.351	133.66667
2828.537	149.33333
2830.722	150.66667
2832.905	144.33333
2835.086	152.66667
2837.267	172.33333
2839.445	164.33333
2841.623	164.66667
2843.799	165.66667
2845.974	185.66667
2848.147	181
2850.319	192
2852.489	201.33333
2854.659	202.33333
2856.826	205.33333
2858.993	222.66667
2861.158	197
2863.321	209.33333
2865.483	225.66667
2867.644	218.33333
2869.804	210.66667
2871.962	210.66667
2874.118	209.66667
2876.274	219
2878.428	213.66667
2880.58	210
2882.731	206
2884.881	209
2887.03	221.66667
2889.177	216.66667
2891.322	225.66667
2893.467	209.66667
2895.61	212.33333
2897.751	226.33333
2899.892	216
2902.03	223.66667
2904.168	216.33333
2906.304	216.33333
2908.439	234.33333
2910.572	207.33333
2912.704	225
2914.835	225.33333
2916.965	225.33333
2919.093	236.66667
2921.219	214.66667
2923.345	239.66667
2925.469	222
2927.591	216.66667
2929.712	210.33333
2931.832	215.66667
2933.951	209
2936.068	209
2938.184	205
2940.299	197.66667
2942.412	191.66667
2944.524	177.66667
2946.634	185.33333
2948.744	157
2950.851	193
2952.958	160
2955.063	175.66667
2957.167	164.66667
2959.269	147
2961.371	179.33333
2963.471	150.33333
2965.569	169.33333
2967.666	139.33333
2969.762	131.66667
2971.857	135.66667
2973.95	129.33333
2976.042	135
2978.133	130
2980.222	127.33333
2982.31	119.66667
2984.396	104.66667
2986.482	109.33333
2988.566	122.33333
2990.648	118
2992.73	115
2994.81	101.33333
2996.889	116.33333
2998.966	108.33333
3001.042	120.33333
3003.117	107.66667
3005.191	116.33333
3007.263	117.66667
3009.334	109
3011.403	108.66667
3013.472	105.33333
3015.539	120.33333
3017.604	120.66667
3019.669	97.66667
3021.732	97.66667
3023.794	104.33333
3025.854	96.33333
3027.914	90.66667
3029.971	91.66667
3032.028	93.33333
3034.083	108.33333
3036.137	101
3038.19	86
3040.242	82.33333
3042.292	84.66667
3044.341	92
3046.388	110.66667
3048.435	82
3050.48	105.33333
3052.524	85.66667
3054.566	74.33333
3056.607	91
3058.647	85.66667
3060.686	73.66667
3062.723	69
3064.759	73
3066.794	-1.33333
3068.828	0.33333
3070.86	0.66667
