-0.839	145.04167
3.438	157.70833
7.711	65.70833
11.981	42.70833
16.247	31.375
20.509	36.375
24.768	37.04167
29.024	41.70833
33.276	30.375
37.524	39.04167
41.769	30.375
46.01	27.04167
50.247	43.04167
54.481	53.70833
58.712	54.375
62.939	37.04167
67.162	59.04167
71.382	46.375
75.599	36.375
79.812	40.375
84.021	62.375
88.227	40.375
92.429	51.04167
96.628	39.04167
100.823	50.375
105.015	54.70833
109.204	47.375
113.388	57.70833
117.57	40.70833
121.748	62.375
125.922	46.70833
130.093	62.70833
134.261	63.375
138.425	52.375
142.585	85.70833
146.742	62.375
150.896	77.70833
155.046	74.04167
159.193	108.375
163.336	165.04167
167.476	285.04167
171.613	496.04167
175.746	805.375
179.875	1172.70833
184.002	1510.70833
188.124	1772.04167
192.244	1862.70833
196.36	1867.04167
200.472	1860.375
204.581	1815.70833
208.687	1763.375
212.79	1770.04167
216.889	1785.04167
220.984	1788.04167
225.077	1798.375
229.165	1805.04167
233.251	1802.375
237.333	1812.375
241.412	1787.04167
245.487	1776.04167
249.559	1758.04167
253.628	1761.04167
257.694	1736.04167
261.756	1738.04167
265.814	1691.70833
269.87	1643.04167
273.922	1595.04167
277.97	1587.04167
282.016	1565.375
286.058	1550.375
290.097	1579.04167
294.132	1589.70833
298.164	1617.04167
302.193	1538.375
306.219	1435.70833
310.241	1336.04167
314.26	1254.70833
318.276	1199.375
322.288	1170.70833
326.297	1128.375
330.303	1085.70833
334.305	1063.375
338.305	1060.04167
342.301	1046.70833
346.294	1047.375
350.283	1046.70833
354.269	1028.375
358.252	1030.70833
362.232	1028.375
366.209	1022.375
370.182	1014.04167
374.152	1025.70833
378.119	1019.375
382.083	1007.04167
386.043	1023.70833
390	1000.375
393.954	1010.70833
397.905	1029.70833
401.852	1031.04167
405.797	1009.70833
409.738	1018.04167
413.676	1030.04167
417.61	1019.375
421.542	1009.375
425.47	997.70833
429.396	997.70833
433.318	992.375
437.236	985.375
441.152	1028.375
445.065	969.04167
448.974	981.375
452.88	960.375
456.783	963.375
460.683	964.04167
464.58	978.70833
468.473	976.70833
472.364	961.375
476.251	966.70833
480.135	973.375
484.016	983.375
487.894	999.375
491.769	1003.04167
495.641	985.04167
499.509	993.04167
503.375	1002.04167
507.237	986.04167
511.096	993.375
514.952	998.04167
518.805	992.375
522.655	1008.04167
526.502	998.70833
530.346	987.375
534.187	1009.375
538.024	987.04167
541.859	986.04167
545.69	1015.70833
549.519	996.70833
553.344	996.375
557.166	967.375
560.985	976.70833
564.802	964.04167
568.615	959.04167
572.425	922.375
576.232	942.70833
580.036	935.70833
583.836	947.70833
587.634	949.70833
591.429	938.70833
595.221	968.70833
599.01	968.04167
602.796	961.04167
606.578	965.375
610.358	975.375
614.135	963.70833
617.909	960.70833
621.679	953.70833
625.447	943.375
629.212	947.04167
632.973	938.04167
636.732	960.70833
640.488	962.375
644.241	934.70833
647.991	936.70833
651.737	967.375
655.481	931.375
659.222	933.04167
662.96	930.04167
666.695	947.04167
670.427	945.70833
674.156	945.375
677.882	948.375
681.605	948.375
685.325	927.04167
689.043	964.70833
692.757	932.70833
696.468	942.375
700.177	942.04167
703.882	914.70833
707.585	920.04167
711.284	910.70833
714.981	906.04167
718.675	906.04167
722.366	929.70833
726.054	907.70833
729.739	906.375
733.421	908.70833
737.1	913.375
740.777	918.04167
744.45	924.70833
748.121	921.375
751.789	950.70833
755.453	931.70833
759.115	943.375
762.774	949.04167
766.431	922.70833
770.084	949.04167
773.734	957.70833
777.382	977.70833
781.027	962.375
784.669	963.70833
788.308	953.04167
791.944	982.70833
795.577	978.375
799.208	988.375
802.835	975.375
806.46	986.375
810.082	999.70833
813.701	984.375
817.317	1017.04167
820.931	1000.04167
824.542	998.70833
828.149	976.04167
831.754	974.70833
835.357	964.70833
838.956	995.375
842.553	983.04167
846.146	967.04167
849.737	943.375
853.326	963.70833
856.911	943.70833
860.493	965.70833
864.073	960.375
867.65	974.375
871.225	997.04167
874.796	984.375
878.365	971.70833
881.931	981.70833
885.494	1003.375
889.054	975.70833
892.612	989.70833
896.166	966.375
899.719	950.04167
903.268	949.70833
906.814	937.70833
910.358	930.04167
913.899	923.70833
917.438	929.04167
920.973	906.375
924.506	925.375
928.036	938.70833
931.564	953.04167
935.088	964.375
938.61	947.70833
942.129	961.04167
945.646	993.70833
949.16	980.375
952.671	991.70833
956.179	1014.70833
959.685	994.70833
963.188	999.375
966.688	988.04167
970.185	953.70833
973.68	955.04167
977.173	937.04167
980.662	921.70833
984.149	928.04167
987.633	902.04167
991.114	926.375
994.593	941.70833
998.069	962.375
1001.542	975.70833
1005.013	962.70833
1008.481	905.375
1011.947	912.375
1015.409	898.04167
1018.869	891.70833
1022.327	892.375
1025.782	892.04167
1029.234	884.375
1032.683	874.70833
1036.13	855.04167
1039.574	819.70833
1043.016	808.04167
1046.455	797.04167
1049.891	788.04167
1053.325	789.70833
1056.756	782.375
1060.184	790.04167
1063.61	776.04167
1067.033	800.375
1070.454	783.375
1073.872	809.70833
1077.287	786.04167
1080.7	796.375
1084.11	786.04167
1087.517	783.375
1090.922	777.375
1094.325	758.70833
1097.724	770.04167
1101.122	758.375
1104.516	763.375
1107.908	751.04167
1111.298	764.375
1114.684	769.04167
1118.069	765.04167
1121.45	787.04167
1124.83	775.04167
1128.206	782.70833
1131.58	798.04167
1134.951	808.70833
1138.32	816.70833
1141.687	848.04167
1145.05	867.70833
1148.412	850.70833
1151.77	868.375
1155.126	853.04167
1158.48	850.70833
1161.831	854.375
1165.18	862.375
1168.525	869.04167
1171.869	881.375
1175.21	873.04167
1178.548	890.70833
1181.884	906.04167
1185.217	904.375
1188.548	935.04167
1191.877	945.70833
1195.202	981.375
1198.526	1006.375
1201.846	983.04167
1205.165	988.375
1208.48	1009.375
1211.794	974.375
1215.104	1002.375
1218.413	980.70833
1221.719	997.04167
1225.022	974.375
1228.323	953.375
1231.621	963.04167
1234.917	955.04167
1238.21	952.70833
1241.501	945.04167
1244.79	932.70833
1248.076	918.70833
1251.359	942.04167
1254.64	999.70833
1257.919	968.375
1261.195	976.70833
1264.468	997.375
1267.74	989.04167
1271.008	988.375
1274.275	1009.375
1277.538	992.70833
1280.8	995.375
1284.059	976.04167
1287.315	997.70833
1290.569	998.04167
1293.821	997.70833
1297.07	1027.70833
1300.317	1012.375
1303.562	1024.04167
1306.803	1005.70833
1310.043	1005.70833
1313.28	993.375
1316.515	1002.375
1319.747	1000.04167
1322.977	985.70833
1326.204	960.04167
1329.429	949.375
1332.652	951.375
1335.872	940.04167
1339.09	930.375
1342.306	946.70833
1345.519	938.70833
1348.729	920.04167
1351.938	925.70833
1355.144	899.375
1358.347	901.70833
1361.548	919.375
1364.747	914.04167
1367.944	879.375
1371.138	883.04167
1374.329	894.04167
1377.518	885.70833
1380.705	897.70833
1383.89	907.04167
1387.072	869.70833
1390.252	853.375
1393.429	822.04167
1396.605	803.04167
1399.777	764.375
1402.948	770.375
1406.116	756.375
1409.282	759.04167
1412.445	769.375
1415.606	778.70833
1418.765	768.375
1421.921	789.04167
1425.075	804.375
1428.227	809.70833
1431.376	847.375
1434.524	876.375
1437.668	899.375
1440.811	901.70833
1443.951	900.04167
1447.089	915.70833
1450.224	916.04167
1453.357	906.04167
1456.488	896.04167
1459.617	898.375
1462.743	879.70833
1465.867	846.04167
1468.989	848.04167
1472.108	837.70833
1475.225	824.04167
1478.34	807.375
1481.453	796.04167
1484.563	797.375
1487.671	823.04167
1490.776	831.04167
1493.88	824.70833
1496.981	845.70833
1500.08	860.04167
1503.176	843.04167
1506.271	845.70833
1509.363	881.375
1512.452	869.04167
1515.54	879.04167
1518.625	874.70833
1521.708	926.375
1524.789	946.70833
1527.867	968.70833
1530.944	1010.375
1534.018	1049.70833
1537.089	1093.375
1540.159	1118.04167
1543.226	1103.375
1546.291	1085.04167
1549.354	1060.375
1552.415	1042.04167
1555.473	1018.70833
1558.529	1012.04167
1561.583	992.70833
1564.634	992.70833
1567.684	979.04167
1570.731	979.375
1573.776	996.04167
1576.819	997.04167
1579.859	996.70833
1582.898	1015.04167
1585.934	1048.375
1588.968	1021.70833
1591.999	1022.04167
1595.029	1017.375
1598.056	1034.375
1601.081	1065.375
1604.104	1047.375
1607.125	1031.375
1610.144	1012.70833
1613.16	965.375
1616.174	957.70833
1619.186	941.375
1622.196	929.04167
1625.203	899.04167
1628.209	906.04167
1631.212	883.70833
1634.213	892.70833
1637.212	897.375
1640.209	882.04167
1643.203	851.04167
1646.196	826.70833
1649.186	798.70833
1652.174	789.375
1655.16	769.70833
1658.144	752.375
1661.125	719.70833
1664.105	694.04167
1667.082	675.70833
1670.057	626.70833
1673.03	601.375
1676.001	578.375
1678.97	534.70833
1681.937	514.70833
1684.901	485.375
1687.863	489.04167
1690.824	455.70833
1693.782	464.70833
1696.738	429.375
1699.692	433.375
1702.643	414.375
1705.593	417.70833
1708.54	410.04167
1711.486	419.375
1714.429	401.375
1717.37	408.70833
1720.309	394.375
1723.246	399.375
1726.181	381.04167
1729.113	379.04167
1732.044	392.70833
1734.972	385.04167
1737.899	390.375
1740.823	400.70833
1743.745	411.375
1746.665	366.70833
1749.583	362.375
1752.499	359.375
1755.413	360.375
1758.325	350.375
1761.235	346.375
1764.142	340.04167
1767.048	343.375
1769.951	336.375
1772.852	333.375
1775.752	348.04167
1778.649	345.04167
1781.544	349.375
1784.437	326.04167
1787.328	338.375
1790.217	331.70833
1793.104	309.375
1795.989	323.70833
1798.872	315.375
1801.753	334.04167
1804.631	320.375
1807.508	327.70833
1810.383	322.375
1813.255	319.70833
1816.126	314.70833
1818.994	318.70833
1821.861	313.375
1824.725	326.04167
1827.587	321.375
1830.448	314.04167
1833.306	311.04167
1836.162	318.375
1839.017	309.04167
1841.869	308.375
1844.719	305.375
1847.567	293.70833
1850.414	289.70833
1853.258	294.375
1856.1	307.375
1858.94	309.70833
1861.778	296.375
1864.614	291.70833
1867.448	290.04167
1870.28	282.04167
1873.111	309.375
1875.939	301.04167
1878.765	307.70833
1881.589	290.04167
1884.411	291.70833
1887.231	303.375
1890.049	294.04167
1892.865	304.70833
1895.68	283.375
1898.492	301.375
1901.302	289.04167
1904.11	288.375
1906.916	290.375
1909.721	284.375
1912.523	293.04167
1915.323	276.04167
1918.122	275.375
1920.918	286.375
1923.712	286.70833
1926.505	278.70833
1929.295	261.04167
1932.084	279.04167
1934.87	278.04167
1937.655	279.04167
1940.438	262.04167
1943.218	270.04167
1945.997	275.375
1948.774	283.04167
1951.549	284.375
1954.322	268.375
1957.093	276.04167
1959.862	271.70833
1962.629	260.70833
1965.394	275.375
1968.157	256.04167
1970.918	272.70833
1973.678	253.70833
1976.435	263.04167
1979.19	261.375
1981.944	252.375
1984.696	253.70833
1987.445	249.04167
1990.193	260.375
1992.939	271.375
1995.683	259.375
1998.425	233.375
2001.165	272.04167
2003.903	242.04167
2006.639	251.70833
2009.374	261.70833
2012.106	262.375
2014.837	232.70833
2017.566	258.70833
2020.292	250.375
2023.017	249.375
2025.74	247.70833
2028.461	235.375
2031.18	245.375
2033.898	232.70833
2036.613	243.04167
2039.327	248.375
2042.038	231.70833
2044.748	238.375
2047.456	248.04167
2050.162	227.04167
2052.866	237.04167
2055.568	244.04167
2058.268	241.04167
2060.967	245.70833
2063.663	229.70833
2066.358	234.70833
2069.051	226.70833
2071.742	232.04167
2074.431	241.04167
2077.118	238.04167
2079.804	218.375
2082.487	229.04167
2085.169	241.04167
2087.849	250.04167
2090.527	235.04167
2093.203	225.04167
2095.877	235.04167
2098.55	236.04167
2101.22	235.375
2103.889	240.70833
2106.556	233.04167
2109.221	254.04167
2111.884	241.04167
2114.546	258.375
2117.205	271.70833
2119.863	300.375
2122.519	284.375
2125.173	313.375
2127.825	344.375
2130.475	333.04167
2133.124	315.04167
2135.771	302.375
2138.416	311.375
2141.059	286.375
2143.7	288.04167
2146.339	263.70833
2148.977	236.70833
2151.613	258.375
2154.247	247.70833
2156.879	238.70833
2159.51	232.70833
2162.138	227.375
2164.765	229.70833
2167.39	220.70833
2170.013	241.375
2172.634	240.70833
2175.254	221.70833
2177.872	255.375
2180.488	217.04167
2183.102	214.375
2185.714	212.375
2188.325	202.04167
2190.934	214.375
2193.541	218.04167
2196.146	207.375
2198.75	202.70833
2201.351	201.70833
2203.951	190.70833
2206.549	208.70833
2209.146	199.70833
2211.74	193.70833
2214.333	204.70833
2216.924	186.04167
2219.514	204.375
2222.101	199.70833
2224.687	211.04167
2227.271	185.375
2229.853	193.70833
2232.433	179.04167
2235.012	203.70833
2237.589	196.375
2240.164	210.375
2242.738	190.04167
2245.309	178.70833
2247.879	207.04167
2250.448	197.04167
2253.014	184.04167
2255.579	179.04167
2258.142	185.375
2260.703	183.04167
2263.262	184.375
2265.82	171.375
2268.376	195.375
2270.93	175.70833
2273.483	171.04167
2276.033	189.375
2278.583	172.04167
2281.13	176.70833
2283.675	169.70833
2286.219	174.04167
2288.761	184.04167
2291.302	185.70833
2293.841	188.04167
2296.377	164.375
2298.913	177.70833
2301.446	178.375
2303.978	177.04167
2306.508	172.375
2309.037	181.70833
2311.563	173.375
2314.088	175.375
2316.612	160.70833
2319.133	173.70833
2321.653	178.375
2324.171	171.375
2326.688	174.70833
2329.202	175.04167
2331.715	180.70833
2334.227	175.04167
2336.736	172.375
2339.244	160.70833
2341.751	157.04167
2344.255	176.375
2346.758	168.04167
2349.259	159.04167
2351.759	168.04167
2354.257	157.04167
2356.753	157.70833
2359.247	154.04167
2361.74	158.70833
2364.231	163.04167
2366.721	170.375
2369.209	158.70833
2371.695	159.70833
2374.179	156.70833
2376.662	148.70833
2379.143	173.70833
2381.622	160.04167
2384.1	165.04167
2386.576	158.04167
2389.051	164.375
2391.524	168.04167
2393.995	165.375
2396.464	155.04167
2398.932	154.04167
2401.398	162.04167
2403.863	154.70833
2406.325	149.70833
2408.787	159.70833
2411.246	155.04167
2413.704	154.04167
2416.16	152.70833
2418.615	150.70833
2421.068	159.04167
2423.519	148.70833
2425.969	151.375
2428.417	166.375
2430.863	171.70833
2433.308	160.70833
2435.751	156.70833
2438.193	151.70833
2440.633	157.375
2443.071	167.375
2445.508	147.375
2447.943	156.70833
2450.376	149.375
2452.808	157.70833
2455.238	146.04167
2457.667	174.04167
2460.093	148.04167
2462.519	138.70833
2464.942	140.04167
2467.365	148.375
2469.785	150.375
2472.204	143.375
2474.621	145.70833
2477.037	160.04167
2479.451	138.70833
2481.863	135.375
2484.274	142.04167
2486.683	145.04167
2489.091	153.04167
2491.497	149.70833
2493.901	148.04167
2496.304	144.04167
2498.705	153.04167
2501.105	145.375
2503.503	164.70833
2505.899	137.70833
2508.294	161.70833
2510.687	137.70833
2513.079	141.375
2515.469	140.70833
2517.858	142.04167
2520.245	153.04167
2522.63	144.375
2525.014	141.04167
2527.396	132.375
2529.776	137.04167
2532.156	147.04167
2534.533	131.375
2536.909	134.70833
2539.283	124.375
2541.656	139.04167
2544.027	150.70833
2546.397	147.70833
2548.765	133.375
2551.131	139.375
2553.496	143.375
2555.86	141.375
2558.221	145.375
2560.582	134.04167
2562.94	125.375
2565.298	141.375
2567.653	149.375
2570.007	127.04167
2572.36	146.375
2574.711	134.375
2577.06	145.375
2579.408	137.04167
2581.754	136.375
2584.099	132.70833
2586.442	134.70833
2588.784	142.70833
2591.124	135.70833
2593.463	133.70833
2595.8	138.375
2598.135	127.375
2600.469	131.04167
2602.802	147.04167
2605.133	145.375
2607.462	132.70833
2609.79	121.04167
2612.116	139.375
2614.441	132.04167
2616.764	135.04167
2619.086	135.04167
2621.406	130.04167
2623.725	142.04167
2626.042	131.04167
2628.358	126.04167
2630.672	134.04167
2632.985	145.04167
2635.296	136.375
2637.606	133.04167
2639.914	136.04167
2642.22	130.70833
2644.525	131.375
2646.829	133.04167
2649.131	143.375
2651.432	140.375
2653.731	128.70833
2656.028	145.70833
2658.324	133.70833
2660.619	122.375
2662.912	141.375
2665.204	126.70833
2667.494	142.04167
2669.782	127.04167
2672.07	146.70833
2674.355	147.375
2676.639	138.375
2678.922	132.375
2681.203	141.70833
2683.483	130.375
2685.761	124.375
2688.038	145.70833
2690.313	145.04167
2692.587	137.375
2694.859	133.04167
2697.13	137.375
2699.399	139.70833
2701.667	141.04167
2703.933	144.04167
2706.198	150.04167
2708.461	147.375
2710.723	146.375
2712.984	141.375
2715.243	152.375
2717.5	139.70833
2719.757	150.04167
2722.011	140.70833
2724.264	140.375
2726.516	155.04167
2728.766	139.04167
2731.015	146.04167
2733.262	140.70833
2735.508	138.70833
2737.753	145.04167
2739.996	124.70833
2742.237	127.70833
2744.477	147.375
2746.716	153.70833
2748.953	147.04167
2751.189	152.70833
2753.423	147.70833
2755.656	138.375
2757.887	131.04167
2760.117	138.04167
2762.346	128.375
2764.573	125.70833
2766.798	128.70833
2769.022	130.375
2771.245	130.04167
2773.467	133.70833
2775.686	131.375
2777.905	142.70833
2780.122	136.70833
2782.337	141.04167
2784.552	130.375
2786.764	136.04167
2788.976	130.375
2791.186	140.04167
2793.394	139.70833
2795.601	145.04167
2797.807	148.04167
2800.011	142.04167
2802.214	151.375
2804.415	142.375
2806.615	143.70833
2808.814	145.04167
2811.011	147.70833
2813.206	150.375
2815.401	162.04167
2817.594	154.04167
2819.785	157.375
2821.975	151.375
2824.164	155.375
2826.351	152.375
2828.537	165.04167
2830.722	164.70833
2832.905	162.70833
2835.086	169.04167
2837.267	185.375
2839.445	180.70833
2841.623	184.70833
2843.799	186.375
2845.974	196.70833
2848.147	199.375
2850.319	204.70833
2852.489	209.04167
2854.659	218.70833
2856.826	217.04167
2858.993	238.375
2861.158	213.04167
2863.321	223.375
2865.483	236.04167
2867.644	235.70833
2869.804	230.375
2871.962	227.375
2874.118	230.70833
2876.274	226.375
2878.428	224.70833
2880.58	234.70833
2882.731	221.375
2884.881	221.04167
2887.03	233.04167
2889.177	226.375
2891.322	238.375
2893.467	222.04167
2895.61	233.04167
2897.751	241.04167
2899.892	223.375
2902.03	231.04167
2904.168	225.70833
2906.304	235.375
2908.439	244.04167
2910.572	230.375
2912.704	240.04167
2914.835	239.375
2916.965	237.375
2919.093	253.70833
2921.219	222.04167
2923.345	256.04167
2925.469	237.375
2927.591	229.70833
2929.712	218.04167
2931.832	237.375
2933.951	219.04167
2936.068	217.375
2938.184	218.375
2940.299	207.70833
2942.412	206.375
2944.524	189.375
2946.634	197.04167
2948.744	175.375
2950.851	210.375
2952.958	183.70833
2955.063	183.375
2957.167	177.70833
2959.269	162.375
2961.371	197.70833
2963.471	169.70833
2965.569	183.70833
2967.666	152.70833
2969.762	155.70833
2971.857	153.375
2973.95	148.375
2976.042	156.375
2978.133	150.70833
2980.222	144.70833
2982.31	142.04167
2984.396	124.04167
2986.482	131.375
2988.566	142.70833
2990.648	129.375
2992.73	136.70833
2994.81	123.70833
2996.889	133.375
2998.966	133.375
3001.042	144.04167
3003.117	123.375
3005.191	138.375
3007.263	138.04167
3009.334	126.04167
3011.403	130.04167
3013.472	126.04167
3015.539	137.375
3017.604	150.70833
3019.669	120.70833
3021.732	125.375
3023.794	122.70833
3025.854	111.375
3027.914	112.04167
3029.971	114.375
3032.028	124.04167
3034.083	128.04167
3036.137	121.70833
3038.19	111.70833
3040.242	106.375
3042.292	102.375
3044.341	113.70833
3046.388	126.04167
3048.435	99.375
3050.48	117.70833
3052.524	107.04167
3054.566	96.04167
3056.607	104.04167
3058.647	100.70833
3060.686	93.04167
3062.723	91.04167
3064.759	89.70833
3066.794	-0.625
3068.828	0.70833
3070.86	2.70833
