-0.839	148.25
3.438	164.58333
7.711	65.91667
11.981	45.58333
16.247	27.58333
20.509	37.91667
24.768	37.25
29.024	46.91667
33.276	30.91667
37.524	41.91667
41.769	31.58333
46.01	27.25
50.247	46.25
54.481	50.25
58.712	55.91667
62.939	36.58333
67.162	54.25
71.382	43.58333
75.599	34.91667
79.812	44.25
84.021	61.91667
88.227	39.91667
92.429	53.25
96.628	36.91667
100.823	49.25
105.015	51.91667
109.204	46.25
113.388	55.58333
117.57	43.91667
121.748	61.91667
125.922	48.25
130.093	63.58333
134.261	66.91667
138.425	54.91667
142.585	83.58333
146.742	65.58333
150.896	78.58333
155.046	73.58333
159.193	111.25
163.336	164.58333
167.476	283.91667
171.613	504.91667
175.746	815.58333
179.875	1176.25
184.002	1514.58333
188.124	1796.91667
192.244	1863.91667
196.36	1858.91667
200.472	1840.91667
204.581	1802.58333
208.687	1733.58333
212.79	1726.58333
216.889	1732.25
220.984	1770.91667
225.077	1758.91667
229.165	1783.25
233.251	1757.58333
237.333	1773.91667
241.412	1751.91667
245.487	1742.58333
249.559	1699.25
253.628	1720.25
257.694	1688.91667
261.756	1697.91667
265.814	1643.25
269.87	1601.25
273.922	1560.58333
277.97	1520.25
282.016	1517.25
286.058	1504.91667
290.097	1539.58333
294.132	1554.25
298.164	1539.25
302.193	1482.58333
306.219	1391.25
310.241	1295.25
314.26	1182.25
318.276	1133.91667
322.288	1104.25
326.297	1061.58333
330.303	1044.91667
334.305	1019.91667
338.305	998.58333
342.301	981.25
346.294	998.58333
350.283	994.25
354.269	982.25
358.252	970.58333
362.232	982.91667
366.209	983.91667
370.182	970.25
374.152	958.25
378.119	968.25
382.083	957.58333
386.043	980.91667
390	957.91667
393.954	958.58333
397.905	962.91667
401.852	989.25
405.797	957.91667
409.738	950.58333
413.676	965.58333
417.61	968.25
421.542	959.91667
425.47	929.91667
429.396	932.91667
433.318	918.91667
437.236	915.58333
441.152	957.91667
445.065	893.58333
448.974	905.91667
452.88	900.91667
456.783	894.91667
460.683	889.25
464.58	905.91667
468.473	912.91667
472.364	910.58333
476.251	909.91667
480.135	917.91667
484.016	928.58333
487.894	928.58333
491.769	936.25
495.641	924.25
499.509	925.91667
503.375	916.58333
507.237	907.91667
511.096	912.58333
514.952	922.58333
518.805	914.91667
522.655	911.25
526.502	918.58333
530.346	922.58333
534.187	934.25
538.024	930.58333
541.859	918.58333
545.69	931.25
549.519	930.91667
553.344	928.25
557.166	905.25
560.985	907.58333
564.802	895.25
568.615	889.91667
572.425	864.91667
576.232	880.91667
580.036	854.91667
583.836	871.25
587.634	879.91667
591.429	873.58333
595.221	905.91667
599.01	896.91667
602.796	898.25
606.578	908.91667
610.358	894.25
614.135	893.91667
617.909	893.25
621.679	876.91667
625.447	885.25
629.212	881.58333
632.973	886.25
636.732	872.25
640.488	894.25
644.241	860.58333
647.991	872.91667
651.737	897.25
655.481	852.58333
659.222	889.25
662.96	869.25
666.695	887.25
670.427	870.91667
674.156	883.25
677.882	886.25
681.605	879.25
685.325	863.25
689.043	901.58333
692.757	853.58333
696.468	871.58333
700.177	867.25
703.882	862.91667
707.585	842.58333
711.284	853.91667
714.981	848.58333
718.675	848.58333
722.366	868.25
726.054	849.91667
729.739	858.58333
733.421	852.91667
737.1	846.91667
740.777	859.91667
744.45	868.25
748.121	856.25
751.789	896.91667
755.453	870.58333
759.115	886.91667
762.774	883.25
766.431	882.25
770.084	883.91667
773.734	873.91667
777.382	914.91667
781.027	911.58333
784.669	912.58333
788.308	906.25
791.944	917.25
795.577	928.91667
799.208	924.91667
802.835	929.58333
806.46	941.25
810.082	923.91667
813.701	931.25
817.317	950.91667
820.931	951.25
824.542	950.91667
828.149	933.58333
831.754	910.25
835.357	925.25
838.956	926.25
842.553	914.25
846.146	917.25
849.737	900.25
853.326	903.58333
856.911	893.91667
860.493	910.25
864.073	919.91667
867.65	933.91667
871.225	943.91667
874.796	934.91667
878.365	914.91667
881.931	939.25
885.494	947.91667
889.054	932.25
892.612	940.58333
896.166	934.58333
899.719	921.91667
903.268	895.25
906.814	897.25
910.358	903.91667
913.899	883.91667
917.438	876.91667
920.973	870.25
924.506	887.91667
928.036	900.58333
931.564	917.58333
935.088	938.91667
938.61	913.91667
942.129	920.25
945.646	934.91667
949.16	951.91667
952.671	946.58333
956.179	979.25
959.685	956.58333
963.188	975.58333
966.688	945.58333
970.185	914.25
973.68	893.58333
977.173	893.25
980.662	881.58333
984.149	895.58333
987.633	868.25
991.114	893.91667
994.593	903.25
998.069	913.25
1001.542	940.58333
1005.013	927.91667
1008.481	872.58333
1011.947	852.91667
1015.409	855.58333
1018.869	865.58333
1022.327	862.58333
1025.782	839.25
1029.234	828.58333
1032.683	841.25
1036.13	818.25
1039.574	780.91667
1043.016	770.58333
1046.455	759.25
1049.891	751.91667
1053.325	756.58333
1056.756	752.91667
1060.184	754.91667
1063.61	740.25
1067.033	757.91667
1070.454	758.25
1073.872	775.58333
1077.287	763.58333
1080.7	757.58333
1084.11	757.91667
1087.517	753.91667
1090.922	758.58333
1094.325	742.25
1097.724	740.58333
1101.122	739.91667
1104.516	737.91667
1107.908	731.58333
1111.298	732.91667
1114.684	741.91667
1118.069	742.91667
1121.45	756.91667
1124.83	748.91667
1128.206	754.91667
1131.58	768.25
1134.951	777.58333
1138.32	796.58333
1141.687	828.25
1145.05	851.91667
1148.412	834.58333
1151.77	828.91667
1155.126	832.91667
1158.48	814.91667
1161.831	836.25
1165.18	839.91667
1168.525	848.25
1171.869	862.58333
1175.21	851.25
1178.548	875.25
1181.884	878.58333
1185.217	890.58333
1188.548	906.58333
1191.877	919.91667
1195.202	957.91667
1198.526	977.91667
1201.846	974.25
1205.165	976.58333
1208.48	977.91667
1211.794	956.25
1215.104	978.25
1218.413	970.91667
1221.719	958.58333
1225.022	952.25
1228.323	940.25
1231.621	936.25
1234.917	931.58333
1238.21	947.91667
1241.501	933.25
1244.79	932.25
1248.076	919.25
1251.359	927.25
1254.64	981.58333
1257.919	944.91667
1261.195	964.58333
1264.468	976.91667
1267.74	975.25
1271.008	977.58333
1274.275	979.25
1277.538	980.58333
1280.8	983.25
1284.059	979.25
1287.315	993.25
1290.569	976.91667
1293.821	993.58333
1297.07	993.25
1300.317	1010.25
1303.562	1008.58333
1306.803	997.91667
1310.043	983.58333
1313.28	990.25
1316.515	979.25
1319.747	993.25
1322.977	978.91667
1326.204	955.25
1329.429	950.25
1332.652	965.25
1335.872	949.25
1339.09	928.91667
1342.306	939.25
1345.519	922.91667
1348.729	915.58333
1351.938	926.25
1355.144	902.91667
1358.347	898.25
1361.548	906.58333
1364.747	905.25
1367.944	887.25
1371.138	898.58333
1374.329	894.25
1377.518	894.91667
1380.705	898.91667
1383.89	904.58333
1387.072	871.25
1390.252	840.25
1393.429	817.25
1396.605	799.25
1399.777	759.91667
1402.948	764.91667
1406.116	750.91667
1409.282	752.91667
1412.445	753.91667
1415.606	762.91667
1418.765	767.58333
1421.921	781.25
1425.075	784.91667
1428.227	807.25
1431.376	843.25
1434.524	883.25
1437.668	898.25
1440.811	903.25
1443.951	895.91667
1447.089	902.25
1450.224	905.91667
1453.357	904.25
1456.488	905.58333
1459.617	886.25
1462.743	875.91667
1465.867	854.25
1468.989	862.91667
1472.108	835.25
1475.225	823.58333
1478.34	812.25
1481.453	804.58333
1484.563	792.58333
1487.671	812.58333
1490.776	840.91667
1493.88	825.58333
1496.981	841.25
1500.08	848.25
1503.176	858.91667
1506.271	867.58333
1509.363	876.25
1512.452	872.25
1515.54	880.58333
1518.625	886.25
1521.708	929.58333
1524.789	956.91667
1527.867	979.58333
1530.944	1020.91667
1534.018	1050.25
1537.089	1102.91667
1540.159	1115.25
1543.226	1114.25
1546.291	1101.58333
1549.354	1077.58333
1552.415	1061.25
1555.473	1024.25
1558.529	1026.25
1561.583	1002.91667
1564.634	984.25
1567.684	994.25
1570.731	998.58333
1573.776	1005.25
1576.819	1034.58333
1579.859	1022.91667
1582.898	1021.91667
1585.934	1045.91667
1588.968	1045.91667
1591.999	1043.58333
1595.029	1044.91667
1598.056	1063.25
1601.081	1070.58333
1604.104	1061.91667
1607.125	1050.25
1610.144	1026.58333
1613.16	1007.25
1616.174	979.25
1619.186	975.58333
1622.196	949.58333
1625.203	913.91667
1628.209	910.25
1631.212	914.91667
1634.213	909.91667
1637.212	925.58333
1640.209	916.91667
1643.203	881.25
1646.196	864.25
1649.186	828.91667
1652.174	805.25
1655.16	779.91667
1658.144	777.58333
1661.125	740.58333
1664.105	701.25
1667.082	678.91667
1670.057	635.58333
1673.03	615.91667
1676.001	579.91667
1678.97	536.25
1681.937	509.58333
1684.901	483.25
1687.863	476.91667
1690.824	458.25
1693.782	455.91667
1696.738	426.91667
1699.692	433.58333
1702.643	422.25
1705.593	409.25
1708.54	408.58333
1711.486	416.25
1714.429	395.58333
1717.37	409.91667
1720.309	389.58333
1723.246	391.25
1726.181	378.25
1729.113	379.58333
1732.044	384.58333
1734.972	379.25
1737.899	393.25
1740.823	393.91667
1743.745	399.91667
1746.665	363.58333
1749.583	358.58333
1752.499	360.25
1755.413	347.58333
1758.325	334.25
1761.235	357.58333
1764.142	334.25
1767.048	337.91667
1769.951	336.58333
1772.852	333.58333
1775.752	341.91667
1778.649	328.58333
1781.544	346.25
1784.437	318.25
1787.328	327.91667
1790.217	322.25
1793.104	308.91667
1795.989	314.58333
1798.872	304.25
1801.753	315.25
1804.631	314.25
1807.508	319.25
1810.383	317.25
1813.255	318.58333
1816.126	309.58333
1818.994	307.25
1821.861	300.91667
1824.725	312.25
1827.587	311.58333
1830.448	303.58333
1833.306	294.91667
1836.162	307.91667
1839.017	306.91667
1841.869	298.91667
1844.719	298.91667
1847.567	284.91667
1850.414	287.58333
1853.258	288.91667
1856.1	299.25
1858.94	302.91667
1861.778	291.58333
1864.614	282.58333
1867.448	292.25
1870.28	280.25
1873.111	307.25
1875.939	292.58333
1878.765	301.25
1881.589	286.91667
1884.411	287.25
1887.231	294.25
1890.049	290.58333
1892.865	297.25
1895.68	278.25
1898.492	286.58333
1901.302	284.25
1904.11	280.58333
1906.916	280.91667
1909.721	274.91667
1912.523	284.91667
1915.323	268.58333
1918.122	269.58333
1920.918	293.58333
1923.712	270.58333
1926.505	280.58333
1929.295	255.58333
1932.084	269.58333
1934.87	274.25
1937.655	269.58333
1940.438	258.91667
1943.218	258.58333
1945.997	264.91667
1948.774	277.91667
1951.549	278.58333
1954.322	263.25
1957.093	263.91667
1959.862	262.91667
1962.629	257.91667
1965.394	258.25
1968.157	253.91667
1970.918	270.25
1973.678	250.58333
1976.435	267.25
1979.19	252.58333
1981.944	246.25
1984.696	256.25
1987.445	247.25
1990.193	263.58333
1992.939	268.25
1995.683	255.58333
1998.425	235.91667
2001.165	267.91667
2003.903	243.91667
2006.639	249.91667
2009.374	248.91667
2012.106	253.58333
2014.837	231.91667
2017.566	254.91667
2020.292	239.58333
2023.017	237.25
2025.74	238.25
2028.461	229.25
2031.18	242.91667
2033.898	233.91667
2036.613	242.91667
2039.327	249.91667
2042.038	235.91667
2044.748	237.91667
2047.456	239.25
2050.162	230.58333
2052.866	229.25
2055.568	245.25
2058.268	234.25
2060.967	239.25
2063.663	221.25
2066.358	223.25
2069.051	223.58333
2071.742	226.58333
2074.431	242.91667
2077.118	228.91667
2079.804	223.25
2082.487	228.58333
2085.169	241.91667
2087.849	245.58333
2090.527	227.58333
2093.203	238.91667
2095.877	234.58333
2098.55	229.58333
2101.22	243.25
2103.889	244.58333
2106.556	230.58333
2109.221	251.58333
2111.884	243.25
2114.546	261.91667
2117.205	267.25
2119.863	309.58333
2122.519	307.25
2125.173	322.91667
2127.825	353.58333
2130.475	355.91667
2133.124	341.58333
2135.771	321.58333
2138.416	334.58333
2141.059	299.25
2143.7	302.58333
2146.339	275.58333
2148.977	246.25
2151.613	260.91667
2154.247	248.58333
2156.879	247.25
2159.51	239.58333
2162.138	230.58333
2164.765	221.58333
2167.39	211.58333
2170.013	240.91667
2172.634	238.58333
2175.254	219.91667
2177.872	262.25
2180.488	211.25
2183.102	211.25
2185.714	222.25
2188.325	205.91667
2190.934	211.58333
2193.541	214.25
2196.146	210.58333
2198.75	197.25
2201.351	203.91667
2203.951	192.91667
2206.549	207.58333
2209.146	193.91667
2211.74	196.25
2214.333	201.91667
2216.924	188.58333
2219.514	196.58333
2222.101	192.25
2224.687	208.91667
2227.271	181.58333
2229.853	188.91667
2232.433	177.58333
2235.012	193.58333
2237.589	196.58333
2240.164	206.58333
2242.738	184.91667
2245.309	174.58333
2247.879	199.91667
2250.448	191.25
2253.014	172.58333
2255.579	172.58333
2258.142	184.91667
2260.703	184.91667
2263.262	178.58333
2265.82	170.58333
2268.376	183.58333
2270.93	176.58333
2273.483	165.91667
2276.033	187.25
2278.583	170.91667
2281.13	171.91667
2283.675	166.25
2286.219	170.91667
2288.761	176.25
2291.302	181.25
2293.841	188.58333
2296.377	163.91667
2298.913	177.58333
2301.446	184.25
2303.978	171.58333
2306.508	170.58333
2309.037	170.25
2311.563	173.25
2314.088	166.25
2316.612	155.91667
2319.133	168.91667
2321.653	172.91667
2324.171	163.91667
2326.688	175.25
2329.202	167.58333
2331.715	169.25
2334.227	165.58333
2336.736	164.58333
2339.244	158.58333
2341.751	150.91667
2344.255	172.25
2346.758	164.25
2349.259	155.58333
2351.759	166.58333
2354.257	151.58333
2356.753	153.25
2359.247	155.25
2361.74	163.91667
2364.231	158.91667
2366.721	164.25
2369.209	149.91667
2371.695	155.58333
2374.179	150.91667
2376.662	145.58333
2379.143	163.25
2381.622	146.58333
2384.1	164.91667
2386.576	149.91667
2389.051	165.25
2391.524	162.25
2393.995	164.25
2396.464	149.91667
2398.932	150.58333
2401.398	155.58333
2403.863	143.25
2406.325	146.25
2408.787	156.91667
2411.246	148.91667
2413.704	150.58333
2416.16	146.58333
2418.615	149.58333
2421.068	152.91667
2423.519	149.91667
2425.969	143.25
2428.417	158.58333
2430.863	163.25
2433.308	159.58333
2435.751	153.25
2438.193	152.25
2440.633	150.58333
2443.071	149.58333
2445.508	143.25
2447.943	146.25
2450.376	140.25
2452.808	152.25
2455.238	137.58333
2457.667	166.58333
2460.093	141.91667
2462.519	131.91667
2464.942	136.91667
2467.365	143.25
2469.785	143.25
2472.204	134.25
2474.621	135.58333
2477.037	153.58333
2479.451	137.58333
2481.863	129.91667
2484.274	131.25
2486.683	140.58333
2489.091	152.91667
2491.497	145.58333
2493.901	147.58333
2496.304	137.91667
2498.705	151.58333
2501.105	140.91667
2503.503	158.91667
2505.899	131.91667
2508.294	152.91667
2510.687	136.91667
2513.079	131.58333
2515.469	127.58333
2517.858	131.58333
2520.245	146.25
2522.63	136.58333
2525.014	131.58333
2527.396	128.58333
2529.776	133.58333
2532.156	138.58333
2534.533	126.58333
2536.909	119.58333
2539.283	118.58333
2541.656	128.25
2544.027	148.58333
2546.397	133.25
2548.765	134.25
2551.131	135.58333
2553.496	136.91667
2555.86	135.58333
2558.221	134.58333
2560.582	130.91667
2562.94	119.25
2565.298	132.58333
2567.653	138.91667
2570.007	123.91667
2572.36	133.58333
2574.711	123.58333
2577.06	144.25
2579.408	132.91667
2581.754	123.25
2584.099	128.58333
2586.442	124.58333
2588.784	135.91667
2591.124	123.58333
2593.463	128.25
2595.8	136.25
2598.135	113.25
2600.469	120.91667
2602.802	131.58333
2605.133	139.25
2607.462	116.58333
2609.79	115.58333
2612.116	132.58333
2614.441	127.91667
2616.764	123.91667
2619.086	125.25
2621.406	121.58333
2623.725	134.91667
2626.042	124.91667
2628.358	120.58333
2630.672	126.25
2632.985	132.91667
2635.296	122.25
2637.606	125.25
2639.914	118.25
2642.22	118.91667
2644.525	126.25
2646.829	124.25
2649.131	135.91667
2651.432	131.91667
2653.731	120.91667
2656.028	135.58333
2658.324	125.25
2660.619	111.91667
2662.912	135.91667
2665.204	110.58333
2667.494	131.25
2669.782	116.58333
2672.07	136.25
2674.355	132.91667
2676.639	126.91667
2678.922	122.91667
2681.203	128.58333
2683.483	120.91667
2685.761	112.58333
2688.038	135.25
2690.313	139.58333
2692.587	125.25
2694.859	122.58333
2697.13	126.58333
2699.399	127.91667
2701.667	131.25
2703.933	128.25
2706.198	137.91667
2708.461	135.91667
2710.723	133.91667
2712.984	131.58333
2715.243	136.25
2717.5	123.25
2719.757	136.58333
2722.011	126.58333
2724.264	142.58333
2726.516	144.91667
2728.766	122.58333
2731.015	130.58333
2733.262	131.25
2735.508	127.25
2737.753	132.91667
2739.996	119.25
2742.237	122.25
2744.477	138.25
2746.716	139.91667
2748.953	131.91667
2751.189	130.58333
2753.423	133.25
2755.656	127.58333
2757.887	113.91667
2760.117	122.25
2762.346	116.25
2764.573	105.25
2766.798	120.58333
2769.022	119.25
2771.245	117.58333
2773.467	120.25
2775.686	116.58333
2777.905	127.25
2780.122	129.91667
2782.337	129.58333
2784.552	121.58333
2786.764	124.58333
2788.976	119.58333
2791.186	122.58333
2793.394	124.58333
2795.601	130.91667
2797.807	133.58333
2800.011	132.25
2802.214	134.58333
2804.415	132.25
2806.615	132.58333
2808.814	133.25
2811.011	138.25
2813.206	138.58333
2815.401	150.25
2817.594	145.25
2819.785	149.58333
2821.975	137.25
2824.164	143.25
2826.351	133.91667
2828.537	151.25
2830.722	153.58333
2832.905	145.91667
2835.086	159.25
2837.267	176.58333
2839.445	166.58333
2841.623	164.91667
2843.799	173.58333
2845.974	177.58333
2848.147	187.58333
2850.319	191.58333
2852.489	202.91667
2854.659	202.25
2856.826	203.91667
2858.993	223.58333
2861.158	209.91667
2863.321	209.91667
2865.483	222.25
2867.644	225.25
2869.804	219.91667
2871.962	212.58333
2874.118	217.58333
2876.274	220.25
2878.428	215.91667
2880.58	211.25
2882.731	204.25
2884.881	214.25
2887.03	214.58333
2889.177	213.91667
2891.322	229.58333
2893.467	208.91667
2895.61	219.58333
2897.751	226.58333
2899.892	211.91667
2902.03	227.58333
2904.168	212.25
2906.304	219.91667
2908.439	236.25
2910.572	211.91667
2912.704	224.25
2914.835	232.58333
2916.965	229.25
2919.093	240.91667
2921.219	214.58333
2923.345	241.25
2925.469	223.58333
2927.591	221.58333
2929.712	204.91667
2931.832	218.25
2933.951	209.91667
2936.068	210.25
2938.184	201.58333
2940.299	193.58333
2942.412	193.58333
2944.524	177.91667
2946.634	182.91667
2948.744	162.91667
2950.851	196.25
2952.958	168.91667
2955.063	169.91667
2957.167	167.58333
2959.269	153.91667
2961.371	183.25
2963.471	146.91667
2965.569	166.25
2967.666	138.25
2969.762	138.25
2971.857	134.91667
2973.95	128.25
2976.042	138.58333
2978.133	132.25
2980.222	129.91667
2982.31	119.91667
2984.396	105.25
2986.482	115.25
2988.566	122.58333
2990.648	117.58333
2992.73	115.91667
2994.81	101.91667
2996.889	116.91667
2998.966	113.25
3001.042	119.58333
3003.117	105.91667
3005.191	113.58333
3007.263	117.25
3009.334	109.25
3011.403	113.91667
3013.472	107.58333
3015.539	112.58333
3017.604	124.58333
3019.669	95.25
3021.732	103.25
3023.794	106.25
3025.854	97.58333
3027.914	92.91667
3029.971	95.91667
3032.028	98.91667
3034.083	107.91667
3036.137	106.25
3038.19	83.58333
3040.242	85.58333
3042.292	83.58333
3044.341	89.91667
3046.388	107.58333
3048.435	83.91667
3050.48	104.25
3052.524	88.58333
3054.566	76.58333
3056.607	88.91667
3058.647	87.91667
3060.686	77.58333
3062.723	71.25
3064.759	71.91667
3066.794	1.91667
3068.828	0.25
3070.86	2.25
