-0.839	131.58333
3.438	144.25
7.711	63.58333
11.981	43.58333
16.247	28.58333
20.509	39.25
24.768	36.91667
29.024	45.58333
33.276	30.25
37.524	44.25
41.769	27.58333
46.01	25.91667
50.247	44.25
54.481	52.91667
58.712	56.91667
62.939	37.58333
67.162	51.91667
71.382	46.91667
75.599	39.58333
79.812	44.25
84.021	63.91667
88.227	43.25
92.429	55.58333
96.628	38.58333
100.823	54.25
105.015	54.25
109.204	48.58333
113.388	58.58333
117.57	43.25
121.748	62.91667
125.922	48.25
130.093	68.91667
134.261	68.25
138.425	57.58333
142.585	84.25
146.742	70.25
150.896	83.25
155.046	81.25
159.193	115.91667
163.336	169.25
167.476	285.58333
171.613	510.91667
175.746	823.58333
179.875	1206.91667
184.002	1564.58333
188.124	1869.25
192.244	1969.25
196.36	1978.58333
200.472	1952.91667
204.581	1943.25
208.687	1859.58333
212.79	1885.25
216.889	1880.58333
220.984	1903.91667
225.077	1924.91667
229.165	1937.25
233.251	1912.25
237.333	1919.58333
241.412	1906.58333
245.487	1892.58333
249.559	1883.91667
253.628	1871.25
257.694	1852.58333
261.756	1848.58333
265.814	1819.91667
269.87	1791.25
273.922	1742.91667
277.97	1744.25
282.016	1745.25
286.058	1724.25
290.097	1763.25
294.132	1768.91667
298.164	1761.25
302.193	1704.58333
306.219	1630.58333
310.241	1541.58333
314.26	1480.58333
318.276	1424.91667
322.288	1403.25
326.297	1368.91667
330.303	1347.91667
334.305	1319.25
338.305	1311.91667
342.301	1301.91667
346.294	1310.91667
350.283	1311.25
354.269	1302.25
358.252	1307.58333
362.232	1307.91667
366.209	1287.58333
370.182	1296.91667
374.152	1289.25
378.119	1298.25
382.083	1291.58333
386.043	1300.91667
390	1300.25
393.954	1305.58333
397.905	1306.25
401.852	1323.25
405.797	1295.25
409.738	1293.25
413.676	1330.91667
417.61	1329.58333
421.542	1320.25
425.47	1313.25
429.396	1298.58333
433.318	1291.58333
437.236	1284.91667
441.152	1312.91667
445.065	1284.25
448.974	1299.91667
452.88	1278.25
456.783	1279.58333
460.683	1277.91667
464.58	1286.58333
468.473	1292.58333
472.364	1286.25
476.251	1279.58333
480.135	1298.91667
484.016	1300.91667
487.894	1316.58333
491.769	1311.91667
495.641	1301.25
499.509	1317.91667
503.375	1300.25
507.237	1284.91667
511.096	1287.91667
514.952	1292.91667
518.805	1286.25
522.655	1288.91667
526.502	1294.58333
530.346	1292.58333
534.187	1304.58333
538.024	1306.25
541.859	1285.91667
545.69	1336.25
549.519	1299.25
553.344	1293.58333
557.166	1297.58333
560.985	1281.58333
564.802	1271.91667
568.615	1265.25
572.425	1235.25
576.232	1242.25
580.036	1239.58333
583.836	1245.25
587.634	1262.25
591.429	1251.91667
595.221	1291.25
599.01	1278.91667
602.796	1267.58333
606.578	1266.25
610.358	1274.25
614.135	1270.91667
617.909	1277.25
621.679	1270.58333
625.447	1254.58333
629.212	1268.91667
632.973	1254.58333
636.732	1260.58333
640.488	1258.91667
644.241	1238.25
647.991	1234.91667
651.737	1262.91667
655.481	1228.91667
659.222	1229.91667
662.96	1248.91667
666.695	1257.58333
670.427	1241.91667
674.156	1257.58333
677.882	1242.91667
681.605	1251.91667
685.325	1236.91667
689.043	1241.25
692.757	1237.91667
696.468	1244.25
700.177	1235.91667
703.882	1200.58333
707.585	1186.58333
711.284	1213.58333
714.981	1169.25
718.675	1196.25
722.366	1207.25
726.054	1187.25
729.739	1187.91667
733.421	1199.91667
737.1	1186.91667
740.777	1190.25
744.45	1181.25
748.121	1197.25
751.789	1220.58333
755.453	1196.25
759.115	1206.25
762.774	1203.58333
766.431	1189.91667
770.084	1211.25
773.734	1197.58333
777.382	1212.25
781.027	1218.91667
784.669	1221.25
788.308	1220.58333
791.944	1232.91667
795.577	1227.91667
799.208	1227.58333
802.835	1211.25
806.46	1231.91667
810.082	1241.25
813.701	1241.25
817.317	1237.91667
820.931	1246.25
824.542	1244.58333
828.149	1229.58333
831.754	1190.58333
835.357	1218.58333
838.956	1212.25
842.553	1219.58333
846.146	1194.25
849.737	1165.91667
853.326	1177.25
856.911	1147.25
860.493	1179.58333
864.073	1181.91667
867.65	1196.91667
871.225	1185.91667
874.796	1191.58333
878.365	1176.58333
881.931	1179.91667
885.494	1191.91667
889.054	1175.58333
892.612	1190.58333
896.166	1179.25
899.719	1144.91667
903.268	1142.25
906.814	1145.91667
910.358	1145.58333
913.899	1129.91667
917.438	1129.58333
920.973	1102.91667
924.506	1111.25
928.036	1138.91667
931.564	1137.25
935.088	1156.25
938.61	1152.58333
942.129	1145.58333
945.646	1165.91667
949.16	1160.91667
952.671	1163.25
956.179	1160.91667
959.685	1171.91667
963.188	1184.91667
966.688	1150.91667
970.185	1126.58333
973.68	1112.58333
977.173	1113.25
980.662	1097.91667
984.149	1087.25
987.633	1079.91667
991.114	1093.58333
994.593	1101.91667
998.069	1124.25
1001.542	1138.91667
1005.013	1127.25
1008.481	1067.91667
1011.947	1048.91667
1015.409	1060.58333
1018.869	1062.25
1022.327	1064.25
1025.782	1046.58333
1029.234	1030.91667
1032.683	1027.25
1036.13	1001.25
1039.574	984.91667
1043.016	974.25
1046.455	968.25
1049.891	936.25
1053.325	957.91667
1056.756	940.91667
1060.184	951.25
1063.61	933.25
1067.033	943.58333
1070.454	937.25
1073.872	967.25
1077.287	938.91667
1080.7	941.91667
1084.11	945.25
1087.517	938.91667
1090.922	935.91667
1094.325	903.25
1097.724	911.25
1101.122	905.91667
1104.516	898.58333
1107.908	881.25
1111.298	909.91667
1114.684	914.91667
1118.069	900.91667
1121.45	921.25
1124.83	907.25
1128.206	915.58333
1131.58	920.25
1134.951	942.58333
1138.32	951.25
1141.687	980.58333
1145.05	996.25
1148.412	994.25
1151.77	970.91667
1155.126	974.58333
1158.48	967.91667
1161.831	966.58333
1165.18	959.25
1168.525	979.25
1171.869	991.91667
1175.21	967.25
1178.548	990.25
1181.884	1013.58333
1185.217	1004.58333
1188.548	1023.91667
1191.877	1041.25
1195.202	1070.91667
1198.526	1096.25
1201.846	1072.25
1205.165	1076.91667
1208.48	1086.58333
1211.794	1087.91667
1215.104	1095.25
1218.413	1076.91667
1221.719	1070.25
1225.022	1056.91667
1228.323	1052.58333
1231.621	1057.58333
1234.917	1036.91667
1238.21	1066.91667
1241.501	1031.91667
1244.79	1034.91667
1248.076	1020.91667
1251.359	1036.58333
1254.64	1068.58333
1257.919	1051.91667
1261.195	1066.91667
1264.468	1072.25
1267.74	1100.58333
1271.008	1094.25
1274.275	1090.91667
1277.538	1088.91667
1280.8	1078.91667
1284.059	1069.58333
1287.315	1084.25
1290.569	1068.25
1293.821	1088.25
1297.07	1080.25
1300.317	1090.58333
1303.562	1075.25
1306.803	1067.91667
1310.043	1062.25
1313.28	1059.58333
1316.515	1061.58333
1319.747	1057.25
1322.977	1032.58333
1326.204	1028.25
1329.429	1030.58333
1332.652	1035.58333
1335.872	1032.58333
1339.09	1019.58333
1342.306	1031.58333
1345.519	1021.25
1348.729	1006.25
1351.938	995.91667
1355.144	1007.58333
1358.347	989.25
1361.548	1002.91667
1364.747	992.25
1367.944	966.25
1371.138	978.91667
1374.329	967.58333
1377.518	970.91667
1380.705	972.58333
1383.89	991.91667
1387.072	955.91667
1390.252	921.91667
1393.429	915.25
1396.605	890.58333
1399.777	857.25
1402.948	858.58333
1406.116	849.25
1409.282	837.58333
1412.445	839.91667
1415.606	843.91667
1418.765	863.58333
1421.921	873.91667
1425.075	858.91667
1428.227	886.58333
1431.376	925.58333
1434.524	938.58333
1437.668	955.25
1440.811	952.58333
1443.951	968.58333
1447.089	962.91667
1450.224	964.58333
1453.357	954.25
1456.488	961.25
1459.617	954.58333
1462.743	937.58333
1465.867	919.91667
1468.989	913.91667
1472.108	882.91667
1475.225	884.58333
1478.34	871.25
1481.453	863.25
1484.563	857.25
1487.671	862.58333
1490.776	877.58333
1493.88	873.25
1496.981	903.25
1500.08	897.25
1503.176	906.91667
1506.271	918.58333
1509.363	928.91667
1512.452	927.58333
1515.54	919.25
1518.625	925.25
1521.708	967.58333
1524.789	988.91667
1527.867	996.25
1530.944	1055.58333
1534.018	1068.25
1537.089	1110.58333
1540.159	1116.58333
1543.226	1131.25
1546.291	1095.91667
1549.354	1083.58333
1552.415	1066.58333
1555.473	1034.91667
1558.529	1029.58333
1561.583	1012.25
1564.634	1014.25
1567.684	999.25
1570.731	1007.58333
1573.776	1013.91667
1576.819	1021.25
1579.859	1024.58333
1582.898	1034.25
1585.934	1051.58333
1588.968	1049.58333
1591.999	1035.25
1595.029	1034.91667
1598.056	1049.58333
1601.081	1056.58333
1604.104	1058.58333
1607.125	1042.25
1610.144	1027.91667
1613.16	993.91667
1616.174	978.58333
1619.186	976.58333
1622.196	947.91667
1625.203	921.25
1628.209	925.25
1631.212	917.91667
1634.213	924.58333
1637.212	911.25
1640.209	916.91667
1643.203	895.58333
1646.196	876.91667
1649.186	856.58333
1652.174	838.25
1655.16	793.58333
1658.144	808.91667
1661.125	770.25
1664.105	753.25
1667.082	721.91667
1670.057	670.91667
1673.03	651.25
1676.001	626.91667
1678.97	594.91667
1681.937	569.91667
1684.901	550.58333
1687.863	521.91667
1690.824	515.91667
1693.782	516.91667
1696.738	487.25
1699.692	486.91667
1702.643	474.25
1705.593	469.58333
1708.54	467.58333
1711.486	483.58333
1714.429	455.58333
1717.37	467.58333
1720.309	453.91667
1723.246	458.58333
1726.181	446.58333
1729.113	442.58333
1732.044	447.91667
1734.972	448.58333
1737.899	455.58333
1740.823	452.58333
1743.745	473.25
1746.665	425.25
1749.583	431.25
1752.499	424.58333
1755.413	421.25
1758.325	405.25
1761.235	416.91667
1764.142	402.58333
1767.048	397.58333
1769.951	398.25
1772.852	398.91667
1775.752	408.25
1778.649	405.91667
1781.544	420.58333
1784.437	379.91667
1787.328	400.58333
1790.217	385.25
1793.104	369.91667
1795.989	375.25
1798.872	360.58333
1801.753	390.58333
1804.631	379.25
1807.508	387.91667
1810.383	376.58333
1813.255	370.58333
1816.126	377.91667
1818.994	368.58333
1821.861	364.58333
1824.725	367.25
1827.587	372.25
1830.448	360.91667
1833.306	353.25
1836.162	366.58333
1839.017	362.91667
1841.869	351.25
1844.719	361.25
1847.567	336.25
1850.414	337.58333
1853.258	341.91667
1856.1	348.91667
1858.94	363.25
1861.778	361.91667
1864.614	342.58333
1867.448	350.91667
1870.28	332.58333
1873.111	355.25
1875.939	351.25
1878.765	352.25
1881.589	344.91667
1884.411	341.58333
1887.231	350.58333
1890.049	338.25
1892.865	351.58333
1895.68	333.91667
1898.492	340.91667
1901.302	329.91667
1904.11	332.25
1906.916	331.58333
1909.721	331.91667
1912.523	332.91667
1915.323	319.91667
1918.122	323.58333
1920.918	337.58333
1923.712	319.58333
1926.505	316.91667
1929.295	307.25
1932.084	322.91667
1934.87	322.25
1937.655	316.58333
1940.438	308.25
1943.218	313.58333
1945.997	314.91667
1948.774	328.25
1951.549	325.58333
1954.322	310.25
1957.093	315.25
1959.862	307.91667
1962.629	309.25
1965.394	307.25
1968.157	297.91667
1970.918	309.91667
1973.678	301.58333
1976.435	303.58333
1979.19	295.91667
1981.944	287.91667
1984.696	291.91667
1987.445	292.25
1990.193	295.25
1992.939	303.58333
1995.683	297.25
1998.425	281.91667
2001.165	315.58333
2003.903	280.91667
2006.639	286.91667
2009.374	297.91667
2012.106	294.91667
2014.837	270.91667
2017.566	294.58333
2020.292	287.58333
2023.017	283.25
2025.74	278.91667
2028.461	273.25
2031.18	284.91667
2033.898	266.58333
2036.613	277.25
2039.327	287.58333
2042.038	264.25
2044.748	270.58333
2047.456	287.25
2050.162	263.91667
2052.866	279.58333
2055.568	281.91667
2058.268	270.58333
2060.967	281.58333
2063.663	263.25
2066.358	267.58333
2069.051	261.58333
2071.742	264.91667
2074.431	276.91667
2077.118	263.91667
2079.804	252.25
2082.487	254.25
2085.169	277.91667
2087.849	288.58333
2090.527	253.58333
2093.203	268.25
2095.877	262.25
2098.55	262.25
2101.22	271.58333
2103.889	271.58333
2106.556	264.58333
2109.221	272.91667
2111.884	262.91667
2114.546	294.91667
2117.205	297.58333
2119.863	331.91667
2122.519	318.25
2125.173	346.91667
2127.825	368.58333
2130.475	368.91667
2133.124	352.25
2135.771	330.25
2138.416	341.91667
2141.059	316.91667
2143.7	316.58333
2146.339	293.25
2148.977	274.91667
2151.613	280.91667
2154.247	277.58333
2156.879	265.25
2159.51	256.25
2162.138	254.58333
2164.765	248.91667
2167.39	239.58333
2170.013	270.25
2172.634	255.91667
2175.254	244.25
2177.872	284.58333
2180.488	239.25
2183.102	244.25
2185.714	231.25
2188.325	231.58333
2190.934	234.91667
2193.541	248.25
2196.146	234.91667
2198.75	227.58333
2201.351	222.25
2203.951	211.25
2206.549	231.91667
2209.146	224.25
2211.74	219.58333
2214.333	227.25
2216.924	214.58333
2219.514	215.91667
2222.101	214.91667
2224.687	226.91667
2227.271	208.91667
2229.853	212.91667
2232.433	196.91667
2235.012	223.91667
2237.589	219.58333
2240.164	224.91667
2242.738	207.91667
2245.309	197.58333
2247.879	221.91667
2250.448	210.91667
2253.014	196.91667
2255.579	190.58333
2258.142	199.25
2260.703	199.91667
2263.262	198.91667
2265.82	186.91667
2268.376	203.91667
2270.93	194.91667
2273.483	191.91667
2276.033	205.58333
2278.583	190.25
2281.13	190.25
2283.675	179.91667
2286.219	186.91667
2288.761	193.25
2291.302	196.91667
2293.841	202.25
2296.377	178.91667
2298.913	195.91667
2301.446	200.58333
2303.978	191.25
2306.508	188.91667
2309.037	190.25
2311.563	186.58333
2314.088	191.58333
2316.612	171.25
2319.133	187.58333
2321.653	190.91667
2324.171	176.91667
2326.688	192.58333
2329.202	188.25
2331.715	185.91667
2334.227	183.91667
2336.736	178.91667
2339.244	177.91667
2341.751	165.91667
2344.255	181.25
2346.758	179.91667
2349.259	171.91667
2351.759	186.58333
2354.257	173.25
2356.753	161.58333
2359.247	171.25
2361.74	174.91667
2364.231	168.58333
2366.721	183.91667
2369.209	173.58333
2371.695	173.91667
2374.179	169.25
2376.662	153.58333
2379.143	178.91667
2381.622	168.25
2384.1	178.25
2386.576	164.25
2389.051	178.25
2391.524	175.58333
2393.995	173.58333
2396.464	171.91667
2398.932	157.91667
2401.398	167.58333
2403.863	155.91667
2406.325	159.91667
2408.787	170.25
2411.246	165.58333
2413.704	164.91667
2416.16	158.91667
2418.615	156.58333
2421.068	167.25
2423.519	156.25
2425.969	148.91667
2428.417	170.25
2430.863	179.58333
2433.308	165.25
2435.751	161.58333
2438.193	159.25
2440.633	158.58333
2443.071	163.58333
2445.508	157.58333
2447.943	155.25
2450.376	145.91667
2452.808	161.58333
2455.238	151.58333
2457.667	177.25
2460.093	154.25
2462.519	137.58333
2464.942	149.25
2467.365	152.58333
2469.785	156.25
2472.204	150.91667
2474.621	149.91667
2477.037	167.91667
2479.451	141.25
2481.863	138.25
2484.274	143.58333
2486.683	145.58333
2489.091	156.58333
2491.497	150.25
2493.901	157.91667
2496.304	145.58333
2498.705	158.25
2501.105	146.25
2503.503	169.91667
2505.899	142.25
2508.294	162.58333
2510.687	142.91667
2513.079	144.91667
2515.469	134.58333
2517.858	140.25
2520.245	155.25
2522.63	146.91667
2525.014	141.91667
2527.396	138.58333
2529.776	136.91667
2532.156	146.58333
2534.533	137.58333
2536.909	134.25
2539.283	119.91667
2541.656	139.58333
2544.027	152.58333
2546.397	138.91667
2548.765	138.25
2551.131	138.91667
2553.496	141.25
2555.86	141.91667
2558.221	146.58333
2560.582	132.25
2562.94	126.58333
2565.298	142.25
2567.653	143.91667
2570.007	126.25
2572.36	145.25
2574.711	134.58333
2577.06	146.25
2579.408	134.25
2581.754	126.91667
2584.099	134.91667
2586.442	130.91667
2588.784	137.58333
2591.124	132.58333
2593.463	133.25
2595.8	138.91667
2598.135	120.91667
2600.469	128.58333
2602.802	139.91667
2605.133	146.91667
2607.462	129.91667
2609.79	121.91667
2612.116	138.91667
2614.441	126.58333
2616.764	131.25
2619.086	133.58333
2621.406	127.25
2623.725	137.25
2626.042	125.25
2628.358	121.91667
2630.672	131.91667
2632.985	136.25
2635.296	126.58333
2637.606	132.58333
2639.914	120.91667
2642.22	128.91667
2644.525	130.58333
2646.829	124.58333
2649.131	137.58333
2651.432	135.91667
2653.731	123.25
2656.028	134.91667
2658.324	132.91667
2660.619	121.91667
2662.912	133.58333
2665.204	116.91667
2667.494	133.91667
2669.782	119.58333
2672.07	134.91667
2674.355	139.58333
2676.639	128.91667
2678.922	119.58333
2681.203	131.25
2683.483	124.58333
2685.761	112.58333
2688.038	137.91667
2690.313	141.58333
2692.587	130.25
2694.859	120.91667
2697.13	121.58333
2699.399	132.58333
2701.667	130.25
2703.933	130.91667
2706.198	137.91667
2708.461	133.25
2710.723	131.58333
2712.984	126.58333
2715.243	134.58333
2717.5	128.58333
2719.757	135.25
2722.011	127.25
2724.264	137.91667
2726.516	145.25
2728.766	121.58333
2731.015	123.91667
2733.262	127.91667
2735.508	127.91667
2737.753	131.25
2739.996	119.25
2742.237	118.58333
2744.477	130.91667
2746.716	141.91667
2748.953	142.25
2751.189	138.58333
2753.423	131.58333
2755.656	123.58333
2757.887	120.25
2760.117	126.25
2762.346	117.25
2764.573	104.91667
2766.798	118.58333
2769.022	121.25
2771.245	121.25
2773.467	118.25
2775.686	115.91667
2777.905	122.25
2780.122	121.58333
2782.337	125.91667
2784.552	119.25
2786.764	119.58333
2788.976	115.91667
2791.186	121.58333
2793.394	117.58333
2795.601	127.25
2797.807	130.25
2800.011	126.25
2802.214	132.25
2804.415	123.58333
2806.615	131.91667
2808.814	128.58333
2811.011	135.58333
2813.206	132.25
2815.401	143.91667
2817.594	141.25
2819.785	142.58333
2821.975	129.91667
2824.164	134.58333
2826.351	132.91667
2828.537	152.91667
2830.722	145.25
2832.905	139.25
2835.086	149.58333
2837.267	169.25
2839.445	162.25
2841.623	158.91667
2843.799	169.58333
2845.974	162.25
2848.147	163.91667
2850.319	176.25
2852.489	188.25
2854.659	189.58333
2856.826	184.58333
2858.993	198.91667
2861.158	186.25
2863.321	188.58333
2865.483	205.91667
2867.644	199.91667
2869.804	196.25
2871.962	188.91667
2874.118	194.91667
2876.274	196.91667
2878.428	203.25
2880.58	205.25
2882.731	181.58333
2884.881	192.91667
2887.03	202.58333
2889.177	197.58333
2891.322	208.25
2893.467	190.91667
2895.61	191.25
2897.751	213.58333
2899.892	193.25
2902.03	201.91667
2904.168	188.91667
2906.304	192.91667
2908.439	216.25
2910.572	189.91667
2912.704	196.91667
2914.835	204.91667
2916.965	205.25
2919.093	227.25
2921.219	187.91667
2923.345	221.91667
2925.469	201.25
2927.591	197.58333
2929.712	185.25
2931.832	200.58333
2933.951	194.91667
2936.068	190.25
2938.184	180.58333
2940.299	168.58333
2942.412	179.58333
2944.524	159.58333
2946.634	172.25
2948.744	148.25
2950.851	183.58333
2952.958	148.25
2955.063	162.91667
2957.167	147.58333
2959.269	140.91667
2961.371	164.91667
2963.471	138.58333
2965.569	153.25
2967.666	126.58333
2969.762	126.91667
2971.857	124.91667
2973.95	122.25
2976.042	128.58333
2978.133	120.58333
2980.222	122.91667
2982.31	106.91667
2984.396	96.25
2986.482	105.58333
2988.566	114.58333
2990.648	112.25
2992.73	112.25
2994.81	93.25
2996.889	118.58333
2998.966	105.25
3001.042	113.91667
3003.117	99.58333
3005.191	107.58333
3007.263	111.91667
3009.334	106.25
3011.403	109.25
3013.472	100.25
3015.539	114.58333
3017.604	121.91667
3019.669	92.91667
3021.732	95.91667
3023.794	101.25
3025.854	94.25
3027.914	89.25
3029.971	88.58333
3032.028	95.25
3034.083	98.58333
3036.137	96.25
3038.19	82.58333
3040.242	80.91667
3042.292	82.25
3044.341	85.58333
3046.388	104.91667
3048.435	80.25
3050.48	102.25
3052.524	88.58333
3054.566	68.58333
3056.607	84.25
3058.647	81.58333
3060.686	69.25
3062.723	69.25
3064.759	72.25
3066.794	-1.08333
3068.828	0.58333
3070.86	0.91667
