-0.839	132.75
3.438	150.08333
7.711	63.08333
11.981	43.41667
16.247	30.41667
20.509	38.75
24.768	36.41667
29.024	40.08333
33.276	31.41667
37.524	42.41667
41.769	30.41667
46.01	24.75
50.247	45.75
54.481	50.41667
58.712	55.08333
62.939	36.08333
67.162	51.75
71.382	44.41667
75.599	35.41667
79.812	43.08333
84.021	63.08333
88.227	45.41667
92.429	50.75
96.628	36.75
100.823	50.08333
105.015	48.41667
109.204	44.08333
113.388	56.08333
117.57	46.41667
121.748	59.41667
125.922	49.75
130.093	60.08333
134.261	61.08333
138.425	52.41667
142.585	83.41667
146.742	65.41667
150.896	81.08333
155.046	74.08333
159.193	108.41667
163.336	157.08333
167.476	270.75
171.613	474.75
175.746	769.08333
179.875	1117.75
184.002	1457.75
188.124	1723.08333
192.244	1792.75
196.36	1796.75
200.472	1762.08333
204.581	1749.41667
208.687	1668.41667
212.79	1665.41667
216.889	1698.41667
220.984	1734.41667
225.077	1720.41667
229.165	1724.75
233.251	1726.75
237.333	1734.08333
241.412	1704.75
245.487	1689.75
249.559	1682.08333
253.628	1680.75
257.694	1641.41667
261.756	1656.41667
265.814	1629.41667
269.87	1587.75
273.922	1518.08333
277.97	1519.75
282.016	1490.41667
286.058	1503.08333
290.097	1523.08333
294.132	1522.75
298.164	1531.41667
302.193	1475.08333
306.219	1373.75
310.241	1305.75
314.26	1210.75
318.276	1144.41667
322.288	1110.08333
326.297	1069.41667
330.303	1043.75
334.305	1031.75
338.305	1017.08333
342.301	1012.08333
346.294	1002.41667
350.283	1000.75
354.269	981.08333
358.252	986.41667
362.232	997.75
366.209	991.75
370.182	961.08333
374.152	981.08333
378.119	977.08333
382.083	970.08333
386.043	984.41667
390	967.08333
393.954	973.41667
397.905	974.41667
401.852	987.41667
405.797	969.41667
409.738	955.75
413.676	978.08333
417.61	978.08333
421.542	979.08333
425.47	942.08333
429.396	945.08333
433.318	935.75
437.236	947.08333
441.152	981.75
445.065	933.41667
448.974	939.08333
452.88	913.08333
456.783	930.41667
460.683	915.75
464.58	929.41667
468.473	930.75
472.364	934.75
476.251	922.41667
480.135	937.08333
484.016	948.08333
487.894	949.75
491.769	949.75
495.641	934.75
499.509	955.75
503.375	942.08333
507.237	949.75
511.096	938.08333
514.952	939.75
518.805	946.41667
522.655	951.08333
526.502	946.41667
530.346	949.75
534.187	955.41667
538.024	946.75
541.859	930.08333
545.69	951.08333
549.519	954.41667
553.344	947.41667
557.166	920.75
560.985	919.75
564.802	920.75
568.615	917.41667
572.425	905.08333
576.232	906.41667
580.036	897.08333
583.836	897.41667
587.634	900.75
591.429	891.75
595.221	918.41667
599.01	927.41667
602.796	921.75
606.578	914.08333
610.358	930.75
614.135	913.75
617.909	927.75
621.679	911.75
625.447	906.08333
629.212	904.08333
632.973	911.41667
636.732	898.08333
640.488	916.41667
644.241	881.08333
647.991	888.08333
651.737	925.41667
655.481	889.75
659.222	886.75
662.96	887.41667
666.695	904.75
670.427	914.08333
674.156	903.75
677.882	910.75
681.605	893.08333
685.325	886.75
689.043	912.08333
692.757	890.41667
696.468	893.08333
700.177	897.75
703.882	871.75
707.585	873.41667
711.284	874.08333
714.981	860.75
718.675	859.08333
722.366	890.08333
726.054	871.41667
729.739	871.41667
733.421	869.75
737.1	868.41667
740.777	881.41667
744.45	858.08333
748.121	882.08333
751.789	905.08333
755.453	890.41667
759.115	893.75
762.774	893.41667
766.431	881.08333
770.084	906.75
773.734	898.75
777.382	918.41667
781.027	921.75
784.669	907.75
788.308	914.75
791.944	942.08333
795.577	930.75
799.208	940.08333
802.835	940.41667
806.46	948.41667
810.082	945.08333
813.701	931.41667
817.317	950.75
820.931	954.08333
824.542	951.08333
828.149	927.75
831.754	911.75
835.357	913.75
838.956	935.41667
842.553	933.08333
846.146	911.08333
849.737	898.75
853.326	914.75
856.911	897.08333
860.493	940.08333
864.073	912.41667
867.65	939.08333
871.225	943.08333
874.796	941.08333
878.365	924.08333
881.931	939.41667
885.494	960.41667
889.054	937.41667
892.612	943.41667
896.166	915.08333
899.719	913.75
903.268	895.41667
906.814	897.75
910.358	877.75
913.899	880.08333
917.438	879.75
920.973	872.41667
924.506	880.75
928.036	908.41667
931.564	925.75
935.088	934.08333
938.61	926.41667
942.129	912.75
945.646	940.75
949.16	940.75
952.671	948.75
956.179	960.41667
959.685	954.75
963.188	959.75
966.688	940.75
970.185	921.75
973.68	898.08333
977.173	891.75
980.662	884.75
984.149	879.41667
987.633	869.08333
991.114	877.08333
994.593	895.75
998.069	908.08333
1001.542	929.75
1005.013	909.41667
1008.481	868.41667
1011.947	862.75
1015.409	850.08333
1018.869	874.75
1022.327	868.08333
1025.782	846.41667
1029.234	842.08333
1032.683	834.41667
1036.13	807.41667
1039.574	789.08333
1043.016	765.41667
1046.455	760.41667
1049.891	759.75
1053.325	766.08333
1056.756	761.75
1060.184	755.41667
1063.61	738.75
1067.033	772.41667
1070.454	753.75
1073.872	784.75
1077.287	742.41667
1080.7	766.41667
1084.11	749.41667
1087.517	760.75
1090.922	754.08333
1094.325	734.41667
1097.724	726.08333
1101.122	737.08333
1104.516	728.41667
1107.908	717.08333
1111.298	728.08333
1114.684	748.08333
1118.069	741.08333
1121.45	765.41667
1124.83	739.41667
1128.206	755.75
1131.58	761.08333
1134.951	771.08333
1138.32	780.08333
1141.687	824.75
1145.05	830.75
1148.412	829.75
1151.77	845.41667
1155.126	825.75
1158.48	812.08333
1161.831	827.41667
1165.18	825.41667
1168.525	831.08333
1171.869	852.08333
1175.21	853.08333
1178.548	864.08333
1181.884	872.08333
1185.217	867.08333
1188.548	890.08333
1191.877	903.41667
1195.202	952.41667
1198.526	956.41667
1201.846	945.75
1205.165	957.75
1208.48	947.75
1211.794	955.08333
1215.104	958.08333
1218.413	943.08333
1221.719	939.08333
1225.022	917.75
1228.323	912.08333
1231.621	932.08333
1234.917	897.75
1238.21	928.41667
1241.501	895.41667
1244.79	906.41667
1248.076	882.08333
1251.359	902.08333
1254.64	936.08333
1257.919	931.75
1261.195	938.08333
1264.468	937.41667
1267.74	966.41667
1271.008	953.08333
1274.275	968.41667
1277.538	946.75
1280.8	952.08333
1284.059	949.75
1287.315	971.75
1290.569	954.08333
1293.821	955.08333
1297.07	967.75
1300.317	974.41667
1303.562	992.75
1306.803	964.41667
1310.043	961.08333
1313.28	958.08333
1316.515	949.41667
1319.747	954.08333
1322.977	943.75
1326.204	940.41667
1329.429	921.41667
1332.652	932.41667
1335.872	926.75
1339.09	890.75
1342.306	909.08333
1345.519	895.75
1348.729	884.41667
1351.938	880.75
1355.144	880.08333
1358.347	861.75
1361.548	880.41667
1364.747	883.75
1367.944	855.08333
1371.138	858.75
1374.329	853.41667
1377.518	859.08333
1380.705	860.75
1383.89	867.41667
1387.072	830.75
1390.252	807.08333
1393.429	788.41667
1396.605	773.08333
1399.777	750.08333
1402.948	747.41667
1406.116	735.08333
1409.282	725.08333
1412.445	728.08333
1415.606	758.41667
1418.765	748.08333
1421.921	754.75
1425.075	770.75
1428.227	783.08333
1431.376	820.08333
1434.524	855.75
1437.668	865.08333
1440.811	864.41667
1443.951	864.75
1447.089	873.75
1450.224	882.41667
1453.357	869.08333
1456.488	866.41667
1459.617	860.08333
1462.743	843.41667
1465.867	810.08333
1468.989	815.08333
1472.108	803.75
1475.225	796.41667
1478.34	783.41667
1481.453	770.75
1484.563	758.41667
1487.671	785.08333
1490.776	800.08333
1493.88	789.08333
1496.981	810.08333
1500.08	816.41667
1503.176	825.41667
1506.271	823.08333
1509.363	848.41667
1512.452	838.75
1515.54	845.75
1518.625	858.75
1521.708	876.41667
1524.789	916.41667
1527.867	936.08333
1530.944	979.08333
1534.018	996.08333
1537.089	1056.41667
1540.159	1054.75
1543.226	1072.08333
1546.291	1044.08333
1549.354	1028.75
1552.415	1012.41667
1555.473	991.75
1558.529	971.75
1561.583	962.41667
1564.634	945.75
1567.684	952.08333
1570.731	949.08333
1573.776	972.75
1576.819	971.75
1579.859	973.41667
1582.898	992.41667
1585.934	992.41667
1588.968	1004.75
1591.999	983.08333
1595.029	990.08333
1598.056	1002.08333
1601.081	1020.41667
1604.104	1002.08333
1607.125	994.75
1610.144	965.75
1613.16	944.08333
1616.174	917.75
1619.186	907.08333
1622.196	899.75
1625.203	875.75
1628.209	867.41667
1631.212	854.41667
1634.213	848.08333
1637.212	851.08333
1640.209	853.75
1643.203	814.75
1646.196	802.75
1649.186	760.41667
1652.174	754.75
1655.16	728.08333
1658.144	726.41667
1661.125	699.08333
1664.105	671.75
1667.082	650.75
1670.057	610.41667
1673.03	582.41667
1676.001	555.08333
1678.97	520.75
1681.937	503.08333
1684.901	472.41667
1687.863	469.41667
1690.824	436.08333
1693.782	448.41667
1696.738	421.75
1699.692	416.41667
1702.643	401.08333
1705.593	404.75
1708.54	391.41667
1711.486	413.75
1714.429	382.08333
1717.37	388.41667
1720.309	379.08333
1723.246	388.75
1726.181	371.41667
1729.113	370.75
1732.044	378.41667
1734.972	364.41667
1737.899	391.08333
1740.823	378.75
1743.745	403.75
1746.665	355.08333
1749.583	351.75
1752.499	346.41667
1755.413	346.08333
1758.325	336.75
1761.235	345.41667
1764.142	332.41667
1767.048	328.08333
1769.951	326.41667
1772.852	326.41667
1775.752	334.75
1778.649	331.08333
1781.544	346.41667
1784.437	319.08333
1787.328	329.41667
1790.217	324.75
1793.104	302.75
1795.989	309.08333
1798.872	302.08333
1801.753	322.75
1804.631	312.75
1807.508	314.08333
1810.383	304.08333
1813.255	308.08333
1816.126	303.08333
1818.994	305.08333
1821.861	304.75
1824.725	316.08333
1827.587	305.41667
1830.448	306.75
1833.306	289.41667
1836.162	304.41667
1839.017	295.75
1841.869	299.08333
1844.719	294.08333
1847.567	286.75
1850.414	275.41667
1853.258	279.75
1856.1	295.75
1858.94	301.75
1861.778	291.41667
1864.614	276.41667
1867.448	291.75
1870.28	270.41667
1873.111	294.08333
1875.939	291.08333
1878.765	296.75
1881.589	279.41667
1884.411	281.75
1887.231	293.41667
1890.049	285.41667
1892.865	294.41667
1895.68	281.75
1898.492	281.41667
1901.302	276.75
1904.11	281.08333
1906.916	277.75
1909.721	270.08333
1912.523	280.08333
1915.323	265.41667
1918.122	268.41667
1920.918	284.08333
1923.712	269.08333
1926.505	275.08333
1929.295	261.41667
1932.084	273.41667
1934.87	272.08333
1937.655	259.08333
1940.438	256.08333
1943.218	266.08333
1945.997	262.08333
1948.774	277.08333
1951.549	267.75
1954.322	266.41667
1957.093	268.41667
1959.862	256.75
1962.629	261.08333
1965.394	255.41667
1968.157	251.75
1970.918	264.41667
1973.678	251.08333
1976.435	258.75
1979.19	250.08333
1981.944	237.08333
1984.696	253.41667
1987.445	242.75
1990.193	251.08333
1992.939	266.08333
1995.683	256.08333
1998.425	229.75
2001.165	264.75
2003.903	232.75
2006.639	247.75
2009.374	252.41667
2012.106	249.75
2014.837	227.75
2017.566	248.75
2020.292	246.75
2023.017	236.08333
2025.74	235.75
2028.461	235.75
2031.18	241.41667
2033.898	224.41667
2036.613	239.41667
2039.327	240.08333
2042.038	230.75
2044.748	236.41667
2047.456	239.08333
2050.162	233.75
2052.866	231.41667
2055.568	245.08333
2058.268	230.41667
2060.967	243.41667
2063.663	221.08333
2066.358	216.08333
2069.051	220.08333
2071.742	228.41667
2074.431	238.75
2077.118	225.41667
2079.804	212.75
2082.487	225.75
2085.169	236.75
2087.849	249.41667
2090.527	225.75
2093.203	230.75
2095.877	223.08333
2098.55	219.08333
2101.22	231.41667
2103.889	236.41667
2106.556	222.41667
2109.221	234.75
2111.884	225.75
2114.546	255.75
2117.205	253.08333
2119.863	288.08333
2122.519	274.41667
2125.173	297.41667
2127.825	321.08333
2130.475	324.41667
2133.124	306.08333
2135.771	297.08333
2138.416	302.41667
2141.059	274.75
2143.7	287.08333
2146.339	254.41667
2148.977	233.08333
2151.613	241.75
2154.247	245.75
2156.879	235.08333
2159.51	222.41667
2162.138	222.75
2164.765	222.41667
2167.39	204.41667
2170.013	229.75
2172.634	224.75
2175.254	213.41667
2177.872	256.08333
2180.488	211.75
2183.102	213.08333
2185.714	211.41667
2188.325	201.75
2190.934	206.41667
2193.541	214.41667
2196.146	200.41667
2198.75	195.41667
2201.351	201.41667
2203.951	180.75
2206.549	203.75
2209.146	195.08333
2211.74	192.75
2214.333	205.75
2216.924	184.08333
2219.514	195.08333
2222.101	184.41667
2224.687	202.08333
2227.271	179.41667
2229.853	184.08333
2232.433	170.41667
2235.012	195.08333
2237.589	191.41667
2240.164	203.75
2242.738	182.75
2245.309	175.41667
2247.879	198.41667
2250.448	193.75
2253.014	171.75
2255.579	166.75
2258.142	175.41667
2260.703	175.75
2263.262	173.08333
2265.82	167.08333
2268.376	184.75
2270.93	173.41667
2273.483	167.41667
2276.033	179.08333
2278.583	167.75
2281.13	172.08333
2283.675	160.41667
2286.219	170.75
2288.761	178.41667
2291.302	175.41667
2293.841	183.08333
2296.377	164.41667
2298.913	172.41667
2301.446	182.08333
2303.978	166.41667
2306.508	171.08333
2309.037	165.41667
2311.563	172.41667
2314.088	173.08333
2316.612	157.08333
2319.133	173.75
2321.653	169.75
2324.171	161.41667
2326.688	176.08333
2329.202	165.75
2331.715	169.41667
2334.227	172.75
2336.736	157.08333
2339.244	156.41667
2341.751	151.41667
2344.255	170.75
2346.758	163.75
2349.259	150.08333
2351.759	163.41667
2354.257	151.75
2356.753	153.41667
2359.247	156.08333
2361.74	155.41667
2364.231	152.08333
2366.721	171.75
2369.209	148.41667
2371.695	152.75
2374.179	150.41667
2376.662	144.75
2379.143	166.41667
2381.622	151.75
2384.1	162.75
2386.576	148.75
2389.051	166.08333
2391.524	159.41667
2393.995	159.41667
2396.464	155.75
2398.932	152.08333
2401.398	158.41667
2403.863	148.41667
2406.325	148.75
2408.787	154.75
2411.246	152.41667
2413.704	151.41667
2416.16	144.41667
2418.615	146.08333
2421.068	153.75
2423.519	150.75
2425.969	138.08333
2428.417	160.75
2430.863	162.75
2433.308	160.08333
2435.751	147.75
2438.193	145.75
2440.633	150.41667
2443.071	162.41667
2445.508	139.08333
2447.943	143.41667
2450.376	139.75
2452.808	148.41667
2455.238	136.75
2457.667	172.41667
2460.093	134.08333
2462.519	134.75
2464.942	140.75
2467.365	141.41667
2469.785	148.08333
2472.204	136.75
2474.621	140.08333
2477.037	152.08333
2479.451	133.08333
2481.863	131.41667
2484.274	133.08333
2486.683	142.08333
2489.091	144.08333
2491.497	144.08333
2493.901	150.75
2496.304	131.08333
2498.705	149.41667
2501.105	143.41667
2503.503	163.41667
2505.899	129.41667
2508.294	155.75
2510.687	134.08333
2513.079	130.08333
2515.469	134.75
2517.858	131.41667
2520.245	148.75
2522.63	140.41667
2525.014	135.75
2527.396	130.08333
2529.776	134.08333
2532.156	140.08333
2534.533	128.75
2536.909	125.41667
2539.283	118.41667
2541.656	131.08333
2544.027	147.41667
2546.397	135.75
2548.765	129.08333
2551.131	139.08333
2553.496	136.41667
2555.86	137.75
2558.221	136.41667
2560.582	126.41667
2562.94	116.08333
2565.298	137.08333
2567.653	135.75
2570.007	122.08333
2572.36	135.41667
2574.711	127.75
2577.06	141.75
2579.408	126.08333
2581.754	127.41667
2584.099	126.75
2586.442	125.41667
2588.784	136.41667
2591.124	131.75
2593.463	126.41667
2595.8	130.41667
2598.135	117.08333
2600.469	121.41667
2602.802	141.75
2605.133	143.08333
2607.462	120.75
2609.79	114.41667
2612.116	130.08333
2614.441	128.41667
2616.764	133.08333
2619.086	125.75
2621.406	119.75
2623.725	135.41667
2626.042	124.41667
2628.358	116.75
2630.672	128.41667
2632.985	137.08333
2635.296	127.08333
2637.606	123.41667
2639.914	123.08333
2642.22	120.75
2644.525	119.41667
2646.829	124.75
2649.131	135.75
2651.432	128.75
2653.731	121.41667
2656.028	134.41667
2658.324	129.75
2660.619	119.75
2662.912	130.75
2665.204	112.75
2667.494	132.75
2669.782	116.41667
2672.07	138.08333
2674.355	133.08333
2676.639	128.75
2678.922	123.41667
2681.203	134.75
2683.483	119.75
2685.761	114.75
2688.038	131.75
2690.313	135.08333
2692.587	123.75
2694.859	122.75
2697.13	125.41667
2699.399	129.08333
2701.667	134.08333
2703.933	128.41667
2706.198	135.75
2708.461	136.75
2710.723	136.41667
2712.984	133.41667
2715.243	140.75
2717.5	128.08333
2719.757	136.75
2722.011	127.08333
2724.264	137.75
2726.516	146.08333
2728.766	129.75
2731.015	133.75
2733.262	127.08333
2735.508	133.41667
2737.753	131.75
2739.996	119.08333
2742.237	119.75
2744.477	134.75
2746.716	142.08333
2748.953	134.08333
2751.189	139.08333
2753.423	134.75
2755.656	125.08333
2757.887	117.75
2760.117	124.41667
2762.346	118.75
2764.573	114.75
2766.798	119.75
2769.022	125.41667
2771.245	113.75
2773.467	127.08333
2775.686	116.75
2777.905	125.08333
2780.122	126.41667
2782.337	127.75
2784.552	121.75
2786.764	128.75
2788.976	112.75
2791.186	123.08333
2793.394	129.08333
2795.601	132.41667
2797.807	130.08333
2800.011	128.41667
2802.214	139.41667
2804.415	132.41667
2806.615	129.41667
2808.814	134.08333
2811.011	137.41667
2813.206	137.08333
2815.401	149.75
2817.594	144.75
2819.785	149.75
2821.975	135.75
2824.164	141.75
2826.351	139.08333
2828.537	155.75
2830.722	150.08333
2832.905	150.08333
2835.086	160.41667
2837.267	166.08333
2839.445	172.41667
2841.623	170.08333
2843.799	170.08333
2845.974	183.41667
2848.147	184.41667
2850.319	191.75
2852.489	198.41667
2854.659	198.41667
2856.826	197.41667
2858.993	214.08333
2861.158	196.08333
2863.321	205.08333
2865.483	215.75
2867.644	213.75
2869.804	207.08333
2871.962	206.08333
2874.118	212.08333
2876.274	213.75
2878.428	210.41667
2880.58	221.75
2882.731	194.75
2884.881	215.75
2887.03	210.41667
2889.177	208.41667
2891.322	213.41667
2893.467	209.75
2895.61	204.75
2897.751	234.75
2899.892	214.41667
2902.03	219.41667
2904.168	209.75
2906.304	213.08333
2908.439	232.75
2910.572	209.08333
2912.704	215.75
2914.835	226.08333
2916.965	218.41667
2919.093	239.41667
2921.219	212.75
2923.345	239.75
2925.469	217.08333
2927.591	209.41667
2929.712	203.08333
2931.832	213.75
2933.951	206.75
2936.068	198.41667
2938.184	196.41667
2940.299	193.08333
2942.412	184.41667
2944.524	169.41667
2946.634	186.75
2948.744	162.75
2950.851	190.75
2952.958	161.75
2955.063	171.41667
2957.167	166.08333
2959.269	150.41667
2961.371	174.08333
2963.471	145.08333
2965.569	163.08333
2967.666	141.08333
2969.762	138.75
2971.857	137.75
2973.95	127.41667
2976.042	137.08333
2978.133	133.41667
2980.222	133.08333
2982.31	123.75
2984.396	107.41667
2986.482	115.08333
2988.566	123.41667
2990.648	120.75
2992.73	120.41667
2994.81	103.08333
2996.889	121.75
2998.966	114.41667
3001.042	123.41667
3003.117	110.75
3005.191	114.75
3007.263	125.41667
3009.334	112.41667
3011.403	116.75
3013.472	109.08333
3015.539	122.08333
3017.604	132.41667
3019.669	103.08333
3021.732	108.08333
3023.794	108.75
3025.854	103.41667
3027.914	99.08333
3029.971	98.08333
3032.028	103.75
3034.083	109.41667
3036.137	107.75
3038.19	91.08333
3040.242	89.08333
3042.292	85.75
3044.341	93.75
3046.388	113.08333
3048.435	88.75
3050.48	103.41667
3052.524	96.75
3054.566	84.41667
3056.607	94.41667
3058.647	96.75
3060.686	81.41667
3062.723	74.08333
3064.759	77.75
3066.794	-0.91667
3068.828	0.75
3070.86	1.08333
