-0.839	138.70833
3.438	158.70833
7.711	65.375
11.981	41.04167
16.247	32.375
20.509	38.375
24.768	35.375
29.024	39.70833
33.276	30.04167
37.524	41.375
41.769	29.70833
46.01	29.04167
50.247	45.70833
54.481	51.375
58.712	48.375
62.939	36.70833
67.162	52.70833
71.382	48.375
75.599	37.70833
79.812	44.70833
84.021	63.375
88.227	43.375
92.429	49.04167
96.628	39.04167
100.823	50.70833
105.015	50.04167
109.204	46.375
113.388	57.70833
117.57	41.70833
121.748	58.70833
125.922	47.70833
130.093	60.04167
134.261	62.375
138.425	50.375
142.585	84.375
146.742	62.70833
150.896	76.70833
155.046	71.70833
159.193	107.70833
163.336	151.70833
167.476	257.70833
171.613	453.375
175.746	740.375
179.875	1068.375
184.002	1384.70833
188.124	1632.04167
192.244	1686.375
196.36	1690.04167
200.472	1680.70833
204.581	1648.70833
208.687	1578.70833
212.79	1579.04167
216.889	1581.375
220.984	1603.04167
225.077	1605.375
229.165	1614.375
233.251	1591.70833
237.333	1616.70833
241.412	1593.375
245.487	1585.70833
249.559	1549.04167
253.628	1549.70833
257.694	1523.375
261.756	1541.04167
265.814	1504.375
269.87	1461.375
273.922	1430.70833
277.97	1414.04167
282.016	1406.375
286.058	1381.04167
290.097	1417.70833
294.132	1432.70833
298.164	1428.04167
302.193	1384.70833
306.219	1297.04167
310.241	1216.04167
314.26	1140.04167
318.276	1070.375
322.288	1046.04167
326.297	1009.04167
330.303	974.04167
334.305	969.04167
338.305	953.375
342.301	942.70833
346.294	957.70833
350.283	927.375
354.269	927.04167
358.252	912.04167
362.232	922.375
366.209	935.375
370.182	921.70833
374.152	896.70833
378.119	916.04167
382.083	899.375
386.043	921.70833
390	900.04167
393.954	918.70833
397.905	917.04167
401.852	930.04167
405.797	908.375
409.738	905.04167
413.676	920.375
417.61	909.70833
421.542	907.70833
425.47	883.375
429.396	887.70833
433.318	866.04167
437.236	883.375
441.152	918.375
445.065	867.04167
448.974	869.375
452.88	866.375
456.783	860.70833
460.683	865.70833
464.58	871.04167
468.473	869.70833
472.364	872.04167
476.251	861.70833
480.135	873.04167
484.016	879.04167
487.894	891.04167
491.769	892.375
495.641	870.375
499.509	898.375
503.375	893.04167
507.237	885.70833
511.096	888.70833
514.952	926.70833
518.805	963.04167
522.655	973.70833
526.502	932.70833
530.346	894.375
534.187	889.70833
538.024	882.04167
541.859	872.375
545.69	911.70833
549.519	882.70833
553.344	872.375
557.166	869.04167
560.985	865.04167
564.802	859.70833
568.615	852.375
572.425	828.70833
576.232	830.375
580.036	825.375
583.836	837.04167
587.634	841.375
591.429	828.04167
595.221	866.04167
599.01	860.04167
602.796	854.70833
606.578	870.04167
610.358	855.70833
614.135	854.375
617.909	862.70833
621.679	835.70833
625.447	844.70833
629.212	841.70833
632.973	846.04167
636.732	838.70833
640.488	856.375
644.241	836.375
647.991	838.70833
651.737	851.375
655.481	824.70833
659.222	835.04167
662.96	831.375
666.695	854.375
670.427	848.04167
674.156	852.375
677.882	852.70833
681.605	845.04167
685.325	822.70833
689.043	846.70833
692.757	825.04167
696.468	826.375
700.177	835.70833
703.882	817.04167
707.585	811.70833
711.284	830.375
714.981	809.04167
718.675	818.70833
722.366	825.375
726.054	815.04167
729.739	814.04167
733.421	812.375
737.1	805.375
740.777	815.70833
744.45	813.70833
748.121	823.375
751.789	858.375
755.453	832.375
759.115	836.70833
762.774	825.04167
766.431	836.70833
770.084	858.04167
773.734	833.375
777.382	850.375
781.027	859.04167
784.669	858.375
788.308	863.70833
791.944	872.04167
795.577	879.375
799.208	870.04167
802.835	873.04167
806.46	893.375
810.082	894.04167
813.701	868.70833
817.317	898.04167
820.931	898.375
824.542	898.04167
828.149	885.375
831.754	869.70833
835.357	871.04167
838.956	873.04167
842.553	873.04167
846.146	865.04167
849.737	850.375
853.326	844.375
856.911	841.375
860.493	870.04167
864.073	873.70833
867.65	874.70833
871.225	888.375
874.796	872.70833
878.365	874.70833
881.931	887.70833
885.494	901.375
889.054	878.375
892.612	886.04167
896.166	877.70833
899.719	857.04167
903.268	845.375
906.814	844.70833
910.358	842.375
913.899	832.04167
917.438	829.04167
920.973	825.70833
924.506	819.04167
928.036	851.375
931.564	853.70833
935.088	879.375
938.61	861.70833
942.129	866.70833
945.646	891.04167
949.16	889.375
952.671	899.375
956.179	915.70833
959.685	907.04167
963.188	902.70833
966.688	894.375
970.185	858.70833
973.68	845.04167
977.173	842.70833
980.662	820.04167
984.149	824.04167
987.633	811.04167
991.114	825.70833
994.593	838.375
998.069	842.375
1001.542	874.375
1005.013	857.70833
1008.481	808.04167
1011.947	801.04167
1015.409	792.375
1018.869	806.375
1022.327	794.375
1025.782	797.70833
1029.234	778.04167
1032.683	769.70833
1036.13	764.375
1039.574	729.70833
1043.016	716.70833
1046.455	698.70833
1049.891	693.04167
1053.325	709.70833
1056.756	703.70833
1060.184	705.70833
1063.61	693.375
1067.033	712.04167
1070.454	708.04167
1073.872	728.375
1077.287	703.375
1080.7	711.375
1084.11	704.375
1087.517	706.70833
1090.922	709.70833
1094.325	679.04167
1097.724	688.04167
1101.122	681.375
1104.516	686.70833
1107.908	684.04167
1111.298	692.04167
1114.684	692.70833
1118.069	695.04167
1121.45	714.04167
1124.83	685.04167
1128.206	708.375
1131.58	703.375
1134.951	725.04167
1138.32	748.375
1141.687	768.70833
1145.05	775.04167
1148.412	784.04167
1151.77	775.04167
1155.126	768.70833
1158.48	766.70833
1161.831	785.04167
1165.18	774.70833
1168.525	791.375
1171.869	794.375
1175.21	803.70833
1178.548	810.375
1181.884	802.04167
1185.217	817.70833
1188.548	832.70833
1191.877	849.375
1195.202	880.70833
1198.526	899.04167
1201.846	889.375
1205.165	892.375
1208.48	917.375
1211.794	898.375
1215.104	908.70833
1218.413	894.04167
1221.719	887.04167
1225.022	865.375
1228.323	865.375
1231.621	860.70833
1234.917	866.70833
1238.21	882.04167
1241.501	868.04167
1244.79	848.70833
1248.076	839.04167
1251.359	856.70833
1254.64	894.04167
1257.919	870.04167
1261.195	872.375
1264.468	895.70833
1267.74	896.375
1271.008	903.04167
1274.275	890.70833
1277.538	894.70833
1280.8	905.70833
1284.059	897.70833
1287.315	897.375
1290.569	882.70833
1293.821	902.375
1297.07	911.04167
1300.317	924.04167
1303.562	932.04167
1306.803	905.375
1310.043	922.04167
1313.28	912.70833
1316.515	900.04167
1319.747	914.04167
1322.977	896.04167
1326.204	885.70833
1329.429	875.70833
1332.652	884.70833
1335.872	873.375
1339.09	853.70833
1342.306	861.04167
1345.519	846.04167
1348.729	837.70833
1351.938	848.04167
1355.144	832.04167
1358.347	809.375
1361.548	836.375
1364.747	833.70833
1367.944	809.375
1371.138	807.70833
1374.329	813.375
1377.518	821.375
1380.705	825.375
1383.89	808.04167
1387.072	796.70833
1390.252	783.04167
1393.429	750.04167
1396.605	725.70833
1399.777	699.04167
1402.948	693.375
1406.116	691.70833
1409.282	695.04167
1412.445	700.04167
1415.606	698.70833
1418.765	709.375
1421.921	730.04167
1425.075	723.375
1428.227	748.04167
1431.376	765.70833
1434.524	804.375
1437.668	820.04167
1440.811	831.375
1443.951	821.04167
1447.089	844.375
1450.224	827.70833
1453.357	826.70833
1456.488	815.375
1459.617	824.375
1462.743	811.375
1465.867	791.375
1468.989	781.375
1472.108	769.375
1475.225	744.04167
1478.34	737.375
1481.453	736.04167
1484.563	726.04167
1487.671	747.70833
1490.776	745.04167
1493.88	771.70833
1496.981	778.70833
1500.08	779.04167
1503.176	781.375
1506.271	784.04167
1509.363	797.70833
1512.452	798.375
1515.54	809.375
1518.625	810.375
1521.708	856.375
1524.789	865.375
1527.867	888.04167
1530.944	929.04167
1534.018	941.70833
1537.089	991.375
1540.159	1000.375
1543.226	1009.375
1546.291	974.70833
1549.354	974.70833
1552.415	956.375
1555.473	925.04167
1558.529	933.375
1561.583	917.375
1564.634	897.375
1567.684	901.04167
1570.731	903.375
1573.776	913.70833
1576.819	916.04167
1579.859	919.04167
1582.898	937.70833
1585.934	949.70833
1588.968	935.70833
1591.999	931.70833
1595.029	938.375
1598.056	962.04167
1601.081	969.70833
1604.104	956.04167
1607.125	950.375
1610.144	921.70833
1613.16	896.04167
1616.174	887.375
1619.186	877.375
1622.196	864.70833
1625.203	831.375
1628.209	839.70833
1631.212	828.70833
1634.213	835.70833
1637.212	831.375
1640.209	831.375
1643.203	805.375
1646.196	773.04167
1649.186	753.04167
1652.174	743.70833
1655.16	698.04167
1658.144	693.70833
1661.125	659.375
1664.105	639.70833
1667.082	619.375
1670.057	577.04167
1673.03	553.04167
1676.001	531.04167
1678.97	493.375
1681.937	472.70833
1684.901	439.70833
1687.863	441.70833
1690.824	412.375
1693.782	425.04167
1696.738	394.375
1699.692	404.04167
1702.643	387.04167
1705.593	392.04167
1708.54	376.70833
1711.486	383.04167
1714.429	372.70833
1717.37	376.04167
1720.309	358.70833
1723.246	372.70833
1726.181	362.375
1729.113	355.375
1732.044	354.70833
1734.972	347.70833
1737.899	365.04167
1740.823	365.04167
1743.745	380.375
1746.665	337.375
1749.583	336.375
1752.499	337.04167
1755.413	332.375
1758.325	313.375
1761.235	328.70833
1764.142	308.04167
1767.048	315.375
1769.951	312.375
1772.852	315.375
1775.752	326.375
1778.649	318.375
1781.544	323.70833
1784.437	297.70833
1787.328	315.70833
1790.217	300.70833
1793.104	286.70833
1795.989	300.70833
1798.872	291.04167
1801.753	313.04167
1804.631	297.04167
1807.508	301.70833
1810.383	301.375
1813.255	288.375
1816.126	293.375
1818.994	288.70833
1821.861	283.70833
1824.725	303.70833
1827.587	298.04167
1830.448	292.70833
1833.306	275.04167
1836.162	292.04167
1839.017	283.375
1841.869	283.70833
1844.719	284.70833
1847.567	270.04167
1850.414	270.375
1853.258	269.375
1856.1	287.04167
1858.94	293.04167
1861.778	274.04167
1864.614	268.70833
1867.448	273.375
1870.28	257.70833
1873.111	284.375
1875.939	271.70833
1878.765	287.375
1881.589	279.04167
1884.411	272.70833
1887.231	281.375
1890.049	278.70833
1892.865	283.70833
1895.68	259.375
1898.492	267.375
1901.302	265.04167
1904.11	269.04167
1906.916	271.375
1909.721	259.375
1912.523	275.70833
1915.323	254.04167
1918.122	253.375
1920.918	270.375
1923.712	256.04167
1926.505	264.04167
1929.295	246.375
1932.084	262.375
1934.87	264.70833
1937.655	252.04167
1940.438	250.04167
1943.218	251.375
1945.997	252.375
1948.774	267.375
1951.549	269.375
1954.322	252.375
1957.093	248.70833
1959.862	247.70833
1962.629	244.70833
1965.394	241.70833
1968.157	235.04167
1970.918	255.375
1973.678	237.04167
1976.435	253.375
1979.19	245.04167
1981.944	233.70833
1984.696	241.04167
1987.445	237.70833
1990.193	241.70833
1992.939	257.70833
1995.683	241.375
1998.425	230.04167
2001.165	261.04167
2003.903	230.04167
2006.639	239.70833
2009.374	248.70833
2012.106	232.375
2014.837	213.375
2017.566	244.04167
2020.292	239.70833
2023.017	237.04167
2025.74	222.375
2028.461	227.04167
2031.18	236.375
2033.898	227.375
2036.613	234.04167
2039.327	236.04167
2042.038	228.04167
2044.748	228.04167
2047.456	233.375
2050.162	212.375
2052.866	228.70833
2055.568	237.375
2058.268	217.70833
2060.967	233.04167
2063.663	214.375
2066.358	222.375
2069.051	216.04167
2071.742	221.375
2074.431	236.70833
2077.118	222.375
2079.804	211.375
2082.487	220.375
2085.169	231.04167
2087.849	239.70833
2090.527	212.375
2093.203	221.70833
2095.877	224.375
2098.55	227.375
2101.22	233.375
2103.889	230.70833
2106.556	228.04167
2109.221	237.70833
2111.884	232.375
2114.546	246.70833
2117.205	249.70833
2119.863	278.375
2122.519	276.04167
2125.173	298.375
2127.825	318.375
2130.475	325.04167
2133.124	302.70833
2135.771	287.375
2138.416	299.70833
2141.059	276.70833
2143.7	271.70833
2146.339	250.70833
2148.977	230.04167
2151.613	239.70833
2154.247	236.375
2156.879	234.375
2159.51	220.04167
2162.138	220.375
2164.765	223.70833
2167.39	208.04167
2170.013	229.04167
2172.634	223.04167
2175.254	213.04167
2177.872	255.70833
2180.488	203.04167
2183.102	215.04167
2185.714	205.04167
2188.325	193.70833
2190.934	205.70833
2193.541	212.70833
2196.146	210.70833
2198.75	197.70833
2201.351	196.375
2203.951	181.04167
2206.549	201.375
2209.146	195.04167
2211.74	185.375
2214.333	199.04167
2216.924	187.375
2219.514	192.70833
2222.101	193.04167
2224.687	206.04167
2227.271	183.375
2229.853	193.70833
2232.433	174.70833
2235.012	200.70833
2237.589	192.70833
2240.164	196.70833
2242.738	186.375
2245.309	180.375
2247.879	199.04167
2250.448	191.70833
2253.014	180.375
2255.579	171.70833
2258.142	181.375
2260.703	181.375
2263.262	178.70833
2265.82	168.375
2268.376	190.375
2270.93	177.04167
2273.483	168.70833
2276.033	183.70833
2278.583	171.04167
2281.13	171.70833
2283.675	167.375
2286.219	174.375
2288.761	176.70833
2291.302	181.70833
2293.841	190.04167
2296.377	170.04167
2298.913	180.375
2301.446	185.70833
2303.978	176.04167
2306.508	172.04167
2309.037	175.04167
2311.563	173.375
2314.088	173.70833
2316.612	162.375
2319.133	175.70833
2321.653	169.70833
2324.171	166.375
2326.688	176.375
2329.202	174.375
2331.715	174.04167
2334.227	173.70833
2336.736	173.04167
2339.244	164.375
2341.751	154.70833
2344.255	170.04167
2346.758	167.375
2349.259	160.375
2351.759	173.70833
2354.257	154.04167
2356.753	157.70833
2359.247	161.70833
2361.74	164.70833
2364.231	165.70833
2366.721	168.70833
2369.209	156.70833
2371.695	162.04167
2374.179	159.375
2376.662	149.375
2379.143	171.70833
2381.622	155.70833
2384.1	168.70833
2386.576	158.70833
2389.051	170.375
2391.524	167.375
2393.995	174.70833
2396.464	158.04167
2398.932	155.375
2401.398	164.04167
2403.863	153.04167
2406.325	158.375
2408.787	169.375
2411.246	163.04167
2413.704	156.70833
2416.16	153.375
2418.615	155.375
2421.068	159.70833
2423.519	155.04167
2425.969	151.375
2428.417	170.04167
2430.863	177.04167
2433.308	166.70833
2435.751	164.375
2438.193	159.04167
2440.633	159.70833
2443.071	169.04167
2445.508	154.375
2447.943	148.70833
2450.376	154.375
2452.808	161.70833
2455.238	145.70833
2457.667	182.70833
2460.093	150.04167
2462.519	144.375
2464.942	150.70833
2467.365	157.375
2469.785	256.70833
2472.204	147.375
2474.621	150.375
2477.037	173.375
2479.451	147.70833
2481.863	147.70833
2484.274	149.375
2486.683	156.04167
2489.091	162.375
2491.497	160.70833
2493.901	152.04167
2496.304	146.70833
2498.705	163.04167
2501.105	155.04167
2503.503	172.70833
2505.899	146.04167
2508.294	166.70833
2510.687	148.70833
2513.079	149.04167
2515.469	149.04167
2517.858	148.70833
2520.245	169.375
2522.63	155.04167
2525.014	146.70833
2527.396	141.375
2529.776	142.375
2532.156	160.375
2534.533	141.375
2536.909	141.375
2539.283	133.375
2541.656	145.04167
2544.027	163.375
2546.397	151.04167
2548.765	147.375
2551.131	152.04167
2553.496	154.375
2555.86	159.04167
2558.221	163.04167
2560.582	142.70833
2562.94	139.375
2565.298	153.04167
2567.653	157.70833
2570.007	137.375
2572.36	155.04167
2574.711	145.375
2577.06	165.375
2579.408	154.375
2581.754	146.70833
2584.099	150.70833
2586.442	150.04167
2588.784	156.375
2591.124	146.375
2593.463	151.70833
2595.8	159.375
2598.135	140.04167
2600.469	138.70833
2602.802	159.375
2605.133	160.04167
2607.462	145.70833
2609.79	138.04167
2612.116	155.04167
2614.441	148.70833
2616.764	153.04167
2619.086	152.70833
2621.406	148.04167
2623.725	158.04167
2626.042	148.04167
2628.358	139.04167
2630.672	151.04167
2632.985	160.70833
2635.296	152.04167
2637.606	147.375
2639.914	144.04167
2642.22	149.04167
2644.525	153.375
2646.829	153.375
2649.131	162.04167
2651.432	161.04167
2653.731	150.70833
2656.028	161.375
2658.324	151.70833
2660.619	141.04167
2662.912	162.375
2665.204	145.375
2667.494	160.04167
2669.782	144.04167
2672.07	163.04167
2674.355	166.375
2676.639	160.375
2678.922	145.70833
2681.203	160.70833
2683.483	144.70833
2685.761	140.375
2688.038	157.70833
2690.313	170.70833
2692.587	156.70833
2694.859	152.375
2697.13	153.375
2699.399	156.04167
2701.667	167.70833
2703.933	161.04167
2706.198	164.70833
2708.461	166.375
2710.723	163.70833
2712.984	163.375
2715.243	168.04167
2717.5	159.70833
2719.757	164.70833
2722.011	163.04167
2724.264	171.70833
2726.516	178.04167
2728.766	153.70833
2731.015	167.375
2733.262	165.375
2735.508	161.375
2737.753	169.04167
2739.996	147.375
2742.237	159.375
2744.477	169.04167
2746.716	174.04167
2748.953	175.70833
2751.189	173.04167
2753.423	169.70833
2755.656	157.70833
2757.887	155.04167
2760.117	156.375
2762.346	150.04167
2764.573	142.04167
2766.798	157.04167
2769.022	158.04167
2771.245	155.375
2773.467	155.70833
2775.686	151.70833
2777.905	161.70833
2780.122	160.04167
2782.337	168.04167
2784.552	152.375
2786.764	161.70833
2788.976	156.04167
2791.186	163.375
2793.394	166.04167
2795.601	166.375
2797.807	178.70833
2800.011	168.375
2802.214	176.04167
2804.415	172.04167
2806.615	168.70833
2808.814	168.04167
2811.011	174.70833
2813.206	174.04167
2815.401	188.375
2817.594	184.375
2819.785	191.375
2821.975	173.375
2824.164	173.70833
2826.351	176.70833
2828.537	194.375
2830.722	188.04167
2832.905	185.375
2835.086	191.04167
2837.267	208.04167
2839.445	202.70833
2841.623	204.04167
2843.799	204.04167
2845.974	219.375
2848.147	215.70833
2850.319	227.375
2852.489	235.375
2854.659	233.04167
2856.826	231.375
2858.993	255.04167
2861.158	227.375
2863.321	238.375
2865.483	262.04167
2867.644	246.04167
2869.804	252.70833
2871.962	250.04167
2874.118	247.04167
2876.274	251.70833
2878.428	251.375
2880.58	250.04167
2882.731	241.04167
2884.881	240.70833
2887.03	252.375
2889.177	246.375
2891.322	260.375
2893.467	248.04167
2895.61	245.70833
2897.751	258.70833
2899.892	245.70833
2902.03	249.70833
2904.168	251.375
2906.304	252.04167
2908.439	274.70833
2910.572	251.375
2912.704	259.375
2914.835	263.04167
2916.965	263.70833
2919.093	279.375
2921.219	245.70833
2923.345	276.375
2925.469	253.375
2927.591	264.04167
2929.712	235.375
2931.832	256.70833
2933.951	249.375
2936.068	241.375
2938.184	239.375
2940.299	235.04167
2942.412	231.04167
2944.524	217.375
2946.634	226.04167
2948.744	206.375
2950.851	233.04167
2952.958	205.70833
2955.063	216.375
2957.167	206.70833
2959.269	195.375
2961.371	227.375
2963.471	200.70833
2965.569	216.375
2967.666	188.70833
2969.762	191.375
2971.857	185.70833
2973.95	180.04167
2976.042	186.375
2978.133	181.375
2980.222	179.375
2982.31	169.375
2984.396	154.04167
2986.482	159.70833
2988.566	173.375
2990.648	171.04167
2992.73	165.375
2994.81	153.70833
2996.889	175.04167
2998.966	171.04167
3001.042	173.375
3003.117	161.70833
3005.191	162.375
3007.263	167.04167
3009.334	164.04167
3011.403	165.04167
3013.472	159.375
3015.539	176.04167
3017.604	178.70833
3019.669	150.375
3021.732	152.70833
3023.794	156.375
3025.854	149.70833
3027.914	144.375
3029.971	150.70833
3032.028	151.70833
3034.083	165.70833
3036.137	155.70833
3038.19	146.04167
3040.242	138.04167
3042.292	135.375
3044.341	143.375
3046.388	150.375
3048.435	125.70833
3050.48	152.04167
3052.524	135.375
3054.566	128.375
3056.607	139.70833
3058.647	131.04167
3060.686	121.375
3062.723	114.375
3064.759	118.375
3066.794	-0.29167
3068.828	1.70833
3070.86	3.04167
