-0.839	136.75
3.438	151.41667
7.711	64.41667
11.981	37.41667
16.247	30.75
20.509	37.75
24.768	34.75
29.024	42.41667
33.276	31.41667
37.524	41.75
41.769	30.41667
46.01	25.41667
50.247	42.75
54.481	50.75
58.712	54.75
62.939	35.08333
67.162	52.41667
71.382	47.75
75.599	37.41667
79.812	43.75
84.021	61.75
88.227	43.75
92.429	55.08333
96.628	36.75
100.823	53.08333
105.015	50.75
109.204	46.41667
113.388	55.08333
117.57	43.08333
121.748	58.75
125.922	48.75
130.093	63.08333
134.261	60.08333
138.425	51.75
142.585	83.75
146.742	64.75
150.896	75.75
155.046	75.75
159.193	107.75
163.336	158.41667
167.476	275.41667
171.613	485.41667
175.746	793.75
179.875	1146.75
184.002	1459.08333
188.124	1718.75
192.244	1794.75
196.36	1809.08333
200.472	1796.08333
204.581	1774.08333
208.687	1700.75
212.79	1696.75
216.889	1706.08333
220.984	1735.41667
225.077	1715.41667
229.165	1717.75
233.251	1708.41667
237.333	1719.75
241.412	1701.41667
245.487	1676.41667
249.559	1658.41667
253.628	1664.41667
257.694	1643.75
261.756	1641.75
265.814	1594.41667
269.87	1571.75
273.922	1526.08333
277.97	1516.08333
282.016	1498.41667
286.058	1481.08333
290.097	1496.41667
294.132	1532.75
298.164	1524.41667
302.193	1476.41667
306.219	1387.41667
310.241	1307.08333
314.26	1213.75
318.276	1154.41667
322.288	1130.41667
326.297	1095.08333
330.303	1061.75
334.305	1049.75
338.305	1039.75
342.301	1031.08333
346.294	1023.41667
350.283	1021.08333
354.269	1017.41667
358.252	990.75
362.232	1013.08333
366.209	1008.75
370.182	996.41667
374.152	989.41667
378.119	999.75
382.083	980.41667
386.043	994.75
390	984.75
393.954	1004.41667
397.905	1005.41667
401.852	1006.41667
405.797	976.08333
409.738	987.08333
413.676	1009.75
417.61	1006.75
421.542	1001.75
425.47	973.41667
429.396	981.08333
433.318	954.75
437.236	958.08333
441.152	1000.08333
445.065	950.75
448.974	959.41667
452.88	942.08333
456.783	946.08333
460.683	943.75
464.58	949.75
468.473	952.75
472.364	941.41667
476.251	957.75
480.135	954.41667
484.016	964.75
487.894	972.75
491.769	966.75
495.641	978.08333
499.509	970.08333
503.375	974.75
507.237	977.41667
511.096	980.08333
514.952	1024.08333
518.805	1054.08333
522.655	1073.41667
526.502	1016.08333
530.346	992.75
534.187	983.08333
538.024	966.75
541.859	946.75
545.69	978.41667
549.519	964.75
553.344	965.41667
557.166	936.08333
560.985	946.75
564.802	946.41667
568.615	926.41667
572.425	919.41667
576.232	913.75
580.036	910.41667
583.836	912.75
587.634	933.75
591.429	919.41667
595.221	954.08333
599.01	942.41667
602.796	941.75
606.578	951.41667
610.358	935.08333
614.135	926.41667
617.909	934.75
621.679	943.08333
625.447	921.75
629.212	923.41667
632.973	939.41667
636.732	923.75
640.488	935.41667
644.241	917.08333
647.991	911.75
651.737	937.41667
655.481	914.41667
659.222	914.75
662.96	913.75
666.695	924.41667
670.427	928.08333
674.156	929.41667
677.882	930.08333
681.605	929.08333
685.325	904.08333
689.043	921.08333
692.757	902.41667
696.468	910.75
700.177	910.75
703.882	899.75
707.585	890.75
711.284	896.41667
714.981	882.41667
718.675	874.41667
722.366	902.41667
726.054	881.08333
729.739	891.41667
733.421	889.75
737.1	886.41667
740.777	909.08333
744.45	886.75
748.121	882.41667
751.789	917.08333
755.453	893.08333
759.115	917.75
762.774	908.75
766.431	903.41667
770.084	926.08333
773.734	911.75
777.382	927.08333
781.027	926.41667
784.669	931.08333
788.308	942.41667
791.944	951.41667
795.577	953.75
799.208	950.75
802.835	953.08333
806.46	964.75
810.082	954.41667
813.701	957.08333
817.317	968.41667
820.931	974.08333
824.542	964.41667
828.149	951.75
831.754	941.08333
835.357	924.41667
838.956	950.75
842.553	942.41667
846.146	933.41667
849.737	919.75
853.326	919.41667
856.911	901.41667
860.493	943.08333
864.073	937.08333
867.65	956.41667
871.225	947.75
874.796	942.75
878.365	926.41667
881.931	950.08333
885.494	955.41667
889.054	950.75
892.612	947.41667
896.166	937.08333
899.719	930.08333
903.268	912.08333
906.814	917.75
910.358	899.75
913.899	898.75
917.438	896.75
920.973	882.08333
924.506	890.08333
928.036	922.75
931.564	927.41667
935.088	933.41667
938.61	916.75
942.129	917.08333
945.646	942.08333
949.16	950.08333
952.671	981.41667
956.179	990.08333
959.685	982.41667
963.188	981.08333
966.688	957.75
970.185	938.08333
973.68	912.75
977.173	910.08333
980.662	876.75
984.149	889.08333
987.633	869.08333
991.114	884.08333
994.593	898.08333
998.069	911.08333
1001.542	930.08333
1005.013	922.75
1008.481	871.75
1011.947	869.75
1015.409	853.08333
1018.869	866.08333
1022.327	875.08333
1025.782	849.75
1029.234	845.08333
1032.683	837.75
1036.13	819.08333
1039.574	789.41667
1043.016	775.41667
1046.455	761.41667
1049.891	764.41667
1053.325	766.41667
1056.756	754.08333
1060.184	753.08333
1063.61	755.75
1067.033	773.75
1070.454	761.08333
1073.872	785.41667
1077.287	760.75
1080.7	765.75
1084.11	769.08333
1087.517	764.08333
1090.922	769.08333
1094.325	735.75
1097.724	740.41667
1101.122	748.08333
1104.516	734.41667
1107.908	728.75
1111.298	729.75
1114.684	741.08333
1118.069	738.75
1121.45	759.08333
1124.83	754.08333
1128.206	754.41667
1131.58	769.41667
1134.951	785.75
1138.32	797.75
1141.687	838.08333
1145.05	835.75
1148.412	838.08333
1151.77	840.41667
1155.126	832.41667
1158.48	831.41667
1161.831	834.41667
1165.18	823.08333
1168.525	847.75
1171.869	835.08333
1175.21	842.08333
1178.548	862.41667
1181.884	865.75
1185.217	858.41667
1188.548	903.75
1191.877	908.08333
1195.202	934.41667
1198.526	964.75
1201.846	957.41667
1205.165	962.75
1208.48	957.75
1211.794	961.41667
1215.104	970.41667
1218.413	953.08333
1221.719	957.08333
1225.022	946.41667
1228.323	914.75
1231.621	930.08333
1234.917	919.41667
1238.21	938.75
1241.501	909.41667
1244.79	892.75
1248.076	897.75
1251.359	902.41667
1254.64	952.41667
1257.919	925.75
1261.195	934.08333
1264.468	934.08333
1267.74	958.41667
1271.008	961.75
1274.275	964.08333
1277.538	950.08333
1280.8	939.08333
1284.059	940.08333
1287.315	950.08333
1290.569	959.41667
1293.821	973.41667
1297.07	964.75
1300.317	974.41667
1303.562	979.75
1306.803	972.08333
1310.043	966.75
1313.28	960.08333
1316.515	946.75
1319.747	959.41667
1322.977	938.75
1326.204	941.08333
1329.429	924.75
1332.652	940.08333
1335.872	936.08333
1339.09	908.75
1342.306	907.75
1345.519	917.75
1348.729	897.75
1351.938	892.75
1355.144	887.41667
1358.347	871.75
1361.548	895.08333
1364.747	888.08333
1367.944	857.75
1371.138	875.08333
1374.329	858.41667
1377.518	862.08333
1380.705	876.41667
1383.89	867.75
1387.072	842.75
1390.252	825.75
1393.429	801.41667
1396.605	777.08333
1399.777	747.41667
1402.948	759.41667
1406.116	731.08333
1409.282	744.41667
1412.445	736.08333
1415.606	741.08333
1418.765	744.08333
1421.921	764.08333
1425.075	772.41667
1428.227	792.41667
1431.376	813.75
1434.524	856.75
1437.668	858.75
1440.811	856.08333
1443.951	872.75
1447.089	884.08333
1450.224	878.41667
1453.357	864.08333
1456.488	866.08333
1459.617	866.41667
1462.743	850.41667
1465.867	830.08333
1468.989	831.08333
1472.108	809.08333
1475.225	806.75
1478.34	789.41667
1481.453	778.08333
1484.563	785.41667
1487.671	785.75
1490.776	793.41667
1493.88	806.41667
1496.981	815.75
1500.08	817.41667
1503.176	822.41667
1506.271	816.75
1509.363	840.41667
1512.452	842.41667
1515.54	856.75
1518.625	850.75
1521.708	893.41667
1524.789	916.08333
1527.867	928.75
1530.944	968.08333
1534.018	998.08333
1537.089	1039.41667
1540.159	1039.75
1543.226	1051.41667
1546.291	1036.08333
1549.354	1000.41667
1552.415	1001.41667
1555.473	980.41667
1558.529	962.41667
1561.583	968.08333
1564.634	937.41667
1567.684	943.41667
1570.731	946.08333
1573.776	949.41667
1576.819	972.75
1579.859	962.08333
1582.898	978.41667
1585.934	1004.08333
1588.968	1003.75
1591.999	985.75
1595.029	978.08333
1598.056	998.75
1601.081	1017.41667
1604.104	998.75
1607.125	994.75
1610.144	983.41667
1613.16	936.75
1616.174	927.41667
1619.186	918.75
1622.196	896.41667
1625.203	875.41667
1628.209	873.41667
1631.212	884.08333
1634.213	875.75
1637.212	888.75
1640.209	880.75
1643.203	842.75
1646.196	823.41667
1649.186	795.41667
1652.174	774.08333
1655.16	752.75
1658.144	746.75
1661.125	711.08333
1664.105	676.75
1667.082	654.75
1670.057	613.41667
1673.03	579.41667
1676.001	562.41667
1678.97	521.41667
1681.937	510.08333
1684.901	485.08333
1687.863	462.75
1690.824	448.08333
1693.782	447.08333
1696.738	419.75
1699.692	426.08333
1702.643	410.08333
1705.593	409.75
1708.54	401.08333
1711.486	418.08333
1714.429	394.75
1717.37	395.08333
1720.309	384.41667
1723.246	392.75
1726.181	384.41667
1729.113	383.41667
1732.044	388.75
1734.972	379.08333
1737.899	392.75
1740.823	389.41667
1743.745	406.41667
1746.665	362.41667
1749.583	351.08333
1752.499	347.08333
1755.413	354.75
1758.325	342.41667
1761.235	353.75
1764.142	336.08333
1767.048	331.75
1769.951	338.41667
1772.852	335.08333
1775.752	338.75
1778.649	339.75
1781.544	350.75
1784.437	324.75
1787.328	334.41667
1790.217	330.75
1793.104	305.75
1795.989	315.41667
1798.872	311.41667
1801.753	335.08333
1804.631	317.75
1807.508	329.75
1810.383	318.41667
1813.255	315.75
1816.126	312.75
1818.994	317.08333
1821.861	316.08333
1824.725	321.41667
1827.587	312.41667
1830.448	313.41667
1833.306	308.08333
1836.162	315.41667
1839.017	305.41667
1841.869	306.08333
1844.719	303.41667
1847.567	293.08333
1850.414	278.08333
1853.258	288.41667
1856.1	304.08333
1858.94	307.75
1861.778	298.08333
1864.614	288.75
1867.448	302.75
1870.28	280.75
1873.111	305.08333
1875.939	294.08333
1878.765	312.08333
1881.589	295.41667
1884.411	300.08333
1887.231	301.41667
1890.049	291.75
1892.865	301.41667
1895.68	280.08333
1898.492	287.08333
1901.302	291.75
1904.11	285.75
1906.916	286.08333
1909.721	283.75
1912.523	291.08333
1915.323	272.08333
1918.122	274.41667
1920.918	286.75
1923.712	276.41667
1926.505	279.75
1929.295	264.08333
1932.084	274.41667
1934.87	273.75
1937.655	271.75
1940.438	262.75
1943.218	274.08333
1945.997	271.75
1948.774	278.41667
1951.549	285.08333
1954.322	266.41667
1957.093	274.75
1959.862	266.41667
1962.629	269.75
1965.394	267.41667
1968.157	260.41667
1970.918	269.08333
1973.678	252.75
1976.435	275.41667
1979.19	257.41667
1981.944	252.41667
1984.696	259.75
1987.445	253.75
1990.193	255.41667
1992.939	270.08333
1995.683	259.41667
1998.425	240.75
2001.165	274.41667
2003.903	240.41667
2006.639	255.08333
2009.374	260.75
2012.106	255.75
2014.837	233.41667
2017.566	263.75
2020.292	249.41667
2023.017	245.75
2025.74	250.41667
2028.461	238.41667
2031.18	251.08333
2033.898	238.41667
2036.613	246.08333
2039.327	249.75
2042.038	228.41667
2044.748	246.08333
2047.456	254.08333
2050.162	234.41667
2052.866	242.41667
2055.568	247.75
2058.268	236.08333
2060.967	249.08333
2063.663	230.08333
2066.358	233.08333
2069.051	228.41667
2071.742	237.08333
2074.431	241.41667
2077.118	235.41667
2079.804	223.41667
2082.487	234.75
2085.169	245.41667
2087.849	260.08333
2090.527	236.08333
2093.203	242.08333
2095.877	230.08333
2098.55	245.41667
2101.22	244.41667
2103.889	246.75
2106.556	238.08333
2109.221	253.41667
2111.884	248.75
2114.546	260.08333
2117.205	262.08333
2119.863	303.41667
2122.519	286.75
2125.173	307.75
2127.825	340.41667
2130.475	345.41667
2133.124	324.75
2135.771	308.75
2138.416	325.41667
2141.059	300.75
2143.7	288.08333
2146.339	262.08333
2148.977	240.75
2151.613	252.08333
2154.247	250.75
2156.879	247.08333
2159.51	233.75
2162.138	234.75
2164.765	233.08333
2167.39	220.41667
2170.013	242.75
2172.634	240.75
2175.254	223.08333
2177.872	262.41667
2180.488	216.41667
2183.102	225.08333
2185.714	223.75
2188.325	219.08333
2190.934	228.75
2193.541	225.41667
2196.146	215.75
2198.75	207.75
2201.351	203.41667
2203.951	196.75
2206.549	218.08333
2209.146	214.08333
2211.74	200.08333
2214.333	214.75
2216.924	200.08333
2219.514	207.08333
2222.101	202.75
2224.687	215.75
2227.271	194.41667
2229.853	198.41667
2232.433	186.75
2235.012	214.41667
2237.589	204.41667
2240.164	216.75
2242.738	200.41667
2245.309	197.41667
2247.879	214.08333
2250.448	203.41667
2253.014	190.75
2255.579	184.75
2258.142	192.41667
2260.703	188.41667
2263.262	188.08333
2265.82	179.75
2268.376	203.08333
2270.93	190.41667
2273.483	179.41667
2276.033	195.08333
2278.583	185.08333
2281.13	189.75
2283.675	182.41667
2286.219	179.41667
2288.761	192.41667
2291.302	191.08333
2293.841	201.75
2296.377	178.08333
2298.913	187.08333
2301.446	204.41667
2303.978	186.75
2306.508	188.08333
2309.037	186.41667
2311.563	182.08333
2314.088	192.08333
2316.612	174.08333
2319.133	191.08333
2321.653	184.08333
2324.171	176.75
2326.688	192.08333
2329.202	185.08333
2331.715	186.75
2334.227	180.41667
2336.736	189.08333
2339.244	178.08333
2341.751	173.75
2344.255	188.75
2346.758	185.75
2349.259	170.41667
2351.759	182.75
2354.257	174.41667
2356.753	169.41667
2359.247	172.41667
2361.74	174.08333
2364.231	179.08333
2366.721	185.75
2369.209	177.41667
2371.695	167.41667
2374.179	171.08333
2376.662	165.41667
2379.143	184.75
2381.622	173.41667
2384.1	177.75
2386.576	175.08333
2389.051	183.75
2391.524	185.08333
2393.995	186.41667
2396.464	170.08333
2398.932	165.75
2401.398	178.08333
2403.863	168.75
2406.325	167.75
2408.787	177.08333
2411.246	172.41667
2413.704	169.75
2416.16	166.41667
2418.615	169.08333
2421.068	176.75
2423.519	172.75
2425.969	162.75
2428.417	188.08333
2430.863	193.41667
2433.308	181.75
2435.751	175.75
2438.193	174.41667
2440.633	178.41667
2443.071	181.75
2445.508	171.75
2447.943	162.75
2450.376	167.08333
2452.808	173.75
2455.238	161.75
2457.667	197.08333
2460.093	168.75
2462.519	154.08333
2464.942	161.41667
2467.365	173.75
2469.785	173.08333
2472.204	164.75
2474.621	170.41667
2477.037	183.08333
2479.451	159.08333
2481.863	159.08333
2484.274	157.08333
2486.683	164.41667
2489.091	177.75
2491.497	177.41667
2493.901	166.08333
2496.304	161.08333
2498.705	178.41667
2501.105	166.75
2503.503	183.75
2505.899	164.41667
2508.294	187.41667
2510.687	161.41667
2513.079	165.41667
2515.469	162.75
2517.858	159.08333
2520.245	177.75
2522.63	167.08333
2525.014	158.75
2527.396	162.08333
2529.776	159.08333
2532.156	167.08333
2534.533	154.41667
2536.909	157.08333
2539.283	146.41667
2541.656	155.08333
2544.027	179.41667
2546.397	169.08333
2548.765	165.75
2551.131	159.08333
2553.496	169.08333
2555.86	159.75
2558.221	175.75
2560.582	160.08333
2562.94	152.08333
2565.298	163.75
2567.653	173.41667
2570.007	157.08333
2572.36	173.75
2574.711	155.41667
2577.06	177.41667
2579.408	167.41667
2581.754	158.75
2584.099	162.41667
2586.442	164.08333
2588.784	163.75
2591.124	164.08333
2593.463	160.41667
2595.8	171.08333
2598.135	152.08333
2600.469	151.08333
2602.802	171.41667
2605.133	172.75
2607.462	158.75
2609.79	151.08333
2612.116	168.08333
2614.441	164.41667
2616.764	159.08333
2619.086	162.75
2621.406	160.41667
2623.725	174.75
2626.042	170.08333
2628.358	164.41667
2630.672	164.41667
2632.985	181.08333
2635.296	170.75
2637.606	165.08333
2639.914	161.08333
2642.22	161.75
2644.525	166.08333
2646.829	164.41667
2649.131	179.41667
2651.432	171.08333
2653.731	166.41667
2656.028	175.08333
2658.324	173.41667
2660.619	161.41667
2662.912	178.41667
2665.204	154.41667
2667.494	171.75
2669.782	160.08333
2672.07	176.41667
2674.355	175.08333
2676.639	169.75
2678.922	168.41667
2681.203	177.41667
2683.483	169.75
2685.761	161.41667
2688.038	176.08333
2690.313	181.41667
2692.587	169.08333
2694.859	168.75
2697.13	171.08333
2699.399	180.41667
2701.667	181.08333
2703.933	173.08333
2706.198	182.08333
2708.461	187.41667
2710.723	184.75
2712.984	178.41667
2715.243	188.08333
2717.5	175.75
2719.757	185.75
2722.011	180.41667
2724.264	185.41667
2726.516	197.41667
2728.766	174.75
2731.015	185.41667
2733.262	183.08333
2735.508	177.41667
2737.753	183.75
2739.996	172.41667
2742.237	176.08333
2744.477	185.75
2746.716	192.41667
2748.953	186.41667
2751.189	193.08333
2753.423	185.41667
2755.656	175.75
2757.887	173.41667
2760.117	174.08333
2762.346	170.08333
2764.573	162.75
2766.798	174.75
2769.022	171.41667
2771.245	171.75
2773.467	177.08333
2775.686	173.75
2777.905	179.41667
2780.122	173.08333
2782.337	183.08333
2784.552	176.41667
2786.764	182.41667
2788.976	177.41667
2791.186	185.41667
2793.394	175.75
2795.601	189.75
2797.807	193.08333
2800.011	186.41667
2802.214	191.75
2804.415	185.08333
2806.615	188.75
2808.814	189.08333
2811.011	197.75
2813.206	200.41667
2815.401	201.08333
2817.594	205.08333
2819.785	205.41667
2821.975	190.41667
2824.164	194.41667
2826.351	198.75
2828.537	204.75
2830.722	212.75
2832.905	201.08333
2835.086	210.08333
2837.267	231.41667
2839.445	222.75
2841.623	223.08333
2843.799	229.41667
2845.974	237.75
2848.147	243.41667
2850.319	247.41667
2852.489	257.75
2854.659	260.08333
2856.826	257.75
2858.993	278.75
2861.158	260.41667
2863.321	259.75
2865.483	272.08333
2867.644	270.41667
2869.804	273.08333
2871.962	265.75
2874.118	270.75
2876.274	267.75
2878.428	265.41667
2880.58	274.41667
2882.731	257.75
2884.881	264.41667
2887.03	278.75
2889.177	267.08333
2891.322	282.08333
2893.467	270.75
2895.61	268.08333
2897.751	279.41667
2899.892	279.41667
2902.03	271.08333
2904.168	273.75
2906.304	273.41667
2908.439	294.08333
2910.572	274.41667
2912.704	283.75
2914.835	289.08333
2916.965	281.08333
2919.093	294.75
2921.219	270.08333
2923.345	299.41667
2925.469	285.41667
2927.591	272.08333
2929.712	266.75
2931.832	283.08333
2933.951	273.08333
2936.068	265.41667
2938.184	261.08333
2940.299	254.75
2942.412	250.75
2944.524	238.08333
2946.634	255.08333
2948.744	225.41667
2950.851	259.08333
2952.958	222.41667
2955.063	238.75
2957.167	233.41667
2959.269	215.41667
2961.371	250.08333
2963.471	220.41667
2965.569	235.08333
2967.666	207.08333
2969.762	216.41667
2971.857	208.41667
2973.95	208.75
2976.042	210.41667
2978.133	199.08333
2980.222	201.08333
2982.31	189.75
2984.396	169.08333
2986.482	184.75
2988.566	188.41667
2990.648	188.75
2992.73	187.41667
2994.81	174.41667
2996.889	189.75
2998.966	191.41667
3001.042	201.08333
3003.117	186.41667
3005.191	189.75
3007.263	192.08333
3009.334	186.75
3011.403	186.75
3013.472	179.41667
3015.539	197.08333
3017.604	201.41667
3019.669	164.75
3021.732	175.41667
3023.794	178.08333
3025.854	172.41667
3027.914	165.75
3029.971	167.08333
3032.028	170.75
3034.083	181.08333
3036.137	174.08333
3038.19	160.75
3040.242	152.41667
3042.292	157.41667
3044.341	152.75
3046.388	169.75
3048.435	155.41667
3050.48	165.08333
3052.524	149.41667
3054.566	143.08333
3056.607	155.41667
3058.647	148.08333
3060.686	138.08333
3062.723	126.75
3064.759	127.08333
3066.794	2.41667
3068.828	-0.25
3070.86	2.75
