-0.839	134.5
3.438	145.5
7.711	63.16667
11.981	42.5
16.247	29.16667
20.509	37.83333
24.768	38.83333
29.024	42.5
33.276	32.83333
37.524	43.16667
41.769	28.83333
46.01	28.5
50.247	44.5
54.481	52.83333
58.712	56.16667
62.939	36.5
67.162	53.16667
71.382	45.5
75.599	37.16667
79.812	40.83333
84.021	62.83333
88.227	39.83333
92.429	53.5
96.628	36.83333
100.823	49.5
105.015	52.5
109.204	47.5
113.388	61.83333
117.57	43.5
121.748	60.16667
125.922	52.16667
130.093	66.5
134.261	63.83333
138.425	52.5
142.585	86.83333
146.742	64.16667
150.896	81.5
155.046	76.83333
159.193	110.16667
163.336	156.5
167.476	279.5
171.613	484.16667
175.746	787.5
179.875	1133.83333
184.002	1477.16667
188.124	1745.83333
192.244	1817.5
196.36	1823.5
200.472	1799.83333
204.581	1771.16667
208.687	1719.16667
212.79	1721.83333
216.889	1726.16667
220.984	1738.83333
225.077	1744.83333
229.165	1745.83333
233.251	1748.5
237.333	1750.5
241.412	1734.16667
245.487	1715.83333
249.559	1703.5
253.628	1714.83333
257.694	1684.83333
261.756	1684.16667
265.814	1646.16667
269.87	1617.16667
273.922	1562.83333
277.97	1542.16667
282.016	1542.83333
286.058	1524.83333
290.097	1556.5
294.132	1571.16667
298.164	1555.83333
302.193	1491.16667
306.219	1411.5
310.241	1338.83333
314.26	1237.5
318.276	1176.5
322.288	1141.5
326.297	1097.83333
330.303	1066.16667
334.305	1052.83333
338.305	1043.16667
342.301	1045.83333
346.294	1044.16667
350.283	1024.16667
354.269	1016.16667
358.252	1010.16667
362.232	1015.83333
366.209	1020.5
370.182	1009.16667
374.152	988.5
378.119	1001.5
382.083	999.5
386.043	1009.83333
390	986.16667
393.954	1009.83333
397.905	996.5
401.852	1019.16667
405.797	994.5
409.738	991.16667
413.676	1024.16667
417.61	1017.5
421.542	998.5
425.47	974.83333
429.396	979.83333
433.318	962.5
437.236	966.83333
441.152	1000.5
445.065	955.16667
448.974	959.83333
452.88	953.83333
456.783	955.5
460.683	942.83333
464.58	953.83333
468.473	961.83333
472.364	962.5
476.251	952.83333
480.135	965.5
484.016	975.5
487.894	987.83333
491.769	986.83333
495.641	983.16667
499.509	975.83333
503.375	973.16667
507.237	948.16667
511.096	973.83333
514.952	993.83333
518.805	982.16667
522.655	974.83333
526.502	973.16667
530.346	975.16667
534.187	982.16667
538.024	970.5
541.859	966.5
545.69	995.5
549.519	980.5
553.344	972.83333
557.166	955.16667
560.985	942.5
564.802	958.83333
568.615	949.83333
572.425	923.83333
576.232	914.83333
580.036	924.16667
583.836	920.83333
587.634	942.5
591.429	924.83333
595.221	960.16667
599.01	948.16667
602.796	953.16667
606.578	955.5
610.358	951.5
614.135	944.83333
617.909	947.5
621.679	944.83333
625.447	934.5
629.212	950.16667
632.973	937.83333
636.732	923.5
640.488	934.5
644.241	916.83333
647.991	918.5
651.737	949.16667
655.481	908.5
659.222	931.16667
662.96	922.83333
666.695	927.16667
670.427	935.5
674.156	947.83333
677.882	944.83333
681.605	936.16667
685.325	923.83333
689.043	937.5
692.757	915.16667
696.468	925.5
700.177	921.5
703.882	906.5
707.585	904.16667
711.284	889.83333
714.981	904.16667
718.675	880.5
722.366	921.5
726.054	889.83333
729.739	892.83333
733.421	897.83333
737.1	893.83333
740.777	912.83333
744.45	899.83333
748.121	916.83333
751.789	935.16667
755.453	908.5
759.115	922.83333
762.774	917.16667
766.431	926.83333
770.084	945.16667
773.734	931.16667
777.382	947.83333
781.027	949.5
784.669	950.16667
788.308	933.16667
791.944	964.5
795.577	972.83333
799.208	949.16667
802.835	960.83333
806.46	968.16667
810.082	974.5
813.701	976.5
817.317	974.83333
820.931	978.5
824.542	978.5
828.149	966.16667
831.754	950.16667
835.357	949.5
838.956	956.16667
842.553	961.83333
846.146	944.83333
849.737	931.83333
853.326	934.5
856.911	928.16667
860.493	955.5
864.073	935.16667
867.65	965.16667
871.225	974.16667
874.796	964.83333
878.365	948.83333
881.931	962.16667
885.494	972.83333
889.054	964.5
892.612	965.16667
896.166	960.16667
899.719	940.16667
903.268	925.5
906.814	928.83333
910.358	920.83333
913.899	903.83333
917.438	910.16667
920.973	899.5
924.506	913.16667
928.036	914.16667
931.564	931.83333
935.088	947.83333
938.61	924.83333
942.129	944.5
945.646	958.83333
949.16	967.16667
952.671	969.5
956.179	989.5
959.685	982.5
963.188	985.5
966.688	978.16667
970.185	936.83333
973.68	907.83333
977.173	901.16667
980.662	906.16667
984.149	917.5
987.633	891.16667
991.114	913.83333
994.593	921.16667
998.069	934.5
1001.542	962.83333
1005.013	961.83333
1008.481	878.5
1011.947	879.5
1015.409	862.5
1018.869	872.16667
1022.327	883.5
1025.782	872.83333
1029.234	847.83333
1032.683	855.83333
1036.13	837.83333
1039.574	810.5
1043.016	797.5
1046.455	781.5
1049.891	770.16667
1053.325	792.5
1056.756	771.5
1060.184	780.83333
1063.61	776.16667
1067.033	774.5
1070.454	757.83333
1073.872	807.16667
1077.287	783.5
1080.7	762.83333
1084.11	774.16667
1087.517	778.83333
1090.922	771.16667
1094.325	746.83333
1097.724	761.16667
1101.122	754.16667
1104.516	748.83333
1107.908	738.83333
1111.298	744.16667
1114.684	758.16667
1118.069	760.16667
1121.45	788.5
1124.83	763.5
1128.206	773.5
1131.58	778.5
1134.951	800.16667
1138.32	810.83333
1141.687	836.16667
1145.05	848.16667
1148.412	853.83333
1151.77	842.5
1155.126	837.5
1158.48	825.16667
1161.831	850.5
1165.18	841.5
1168.525	857.16667
1171.869	868.5
1175.21	854.16667
1178.548	877.16667
1181.884	877.5
1185.217	870.83333
1188.548	893.83333
1191.877	908.83333
1195.202	961.83333
1198.526	980.83333
1201.846	972.5
1205.165	974.16667
1208.48	976.16667
1211.794	976.16667
1215.104	962.5
1218.413	958.5
1221.719	949.16667
1225.022	946.83333
1228.323	923.5
1231.621	933.83333
1234.917	926.5
1238.21	951.83333
1241.501	929.5
1244.79	920.5
1248.076	907.83333
1251.359	919.16667
1254.64	961.5
1257.919	937.16667
1261.195	954.16667
1264.468	960.83333
1267.74	991.5
1271.008	979.83333
1274.275	970.5
1277.538	958.83333
1280.8	967.16667
1284.059	961.16667
1287.315	973.83333
1290.569	971.16667
1293.821	998.5
1297.07	985.16667
1300.317	984.5
1303.562	989.5
1306.803	975.5
1310.043	980.83333
1313.28	965.83333
1316.515	959.16667
1319.747	974.16667
1322.977	958.83333
1326.204	946.5
1329.429	931.83333
1332.652	940.83333
1335.872	929.83333
1339.09	923.83333
1342.306	927.5
1345.519	913.16667
1348.729	906.5
1351.938	905.83333
1355.144	887.5
1358.347	878.5
1361.548	910.5
1364.747	892.5
1367.944	872.5
1371.138	881.83333
1374.329	874.16667
1377.518	884.16667
1380.705	876.83333
1383.89	875.83333
1387.072	850.16667
1390.252	833.5
1393.429	803.16667
1396.605	795.16667
1399.777	755.16667
1402.948	759.5
1406.116	741.5
1409.282	749.16667
1412.445	744.83333
1415.606	766.16667
1418.765	764.83333
1421.921	784.83333
1425.075	792.5
1428.227	811.16667
1431.376	828.5
1434.524	863.16667
1437.668	879.5
1440.811	874.5
1443.951	891.83333
1447.089	893.16667
1450.224	893.83333
1453.357	880.16667
1456.488	882.83333
1459.617	882.5
1462.743	861.16667
1465.867	836.5
1468.989	837.16667
1472.108	825.5
1475.225	807.16667
1478.34	791.5
1481.453	788.83333
1484.563	790.83333
1487.671	798.83333
1490.776	805.83333
1493.88	815.16667
1496.981	827.5
1500.08	831.16667
1503.176	830.83333
1506.271	841.5
1509.363	855.16667
1512.452	841.16667
1515.54	866.5
1518.625	869.83333
1521.708	894.83333
1524.789	924.5
1527.867	950.83333
1530.944	988.83333
1534.018	1009.16667
1537.089	1068.16667
1540.159	1069.16667
1543.226	1079.16667
1546.291	1043.83333
1549.354	1042.83333
1552.415	1025.5
1555.473	996.16667
1558.529	982.5
1561.583	968.16667
1564.634	958.83333
1567.684	961.83333
1570.731	957.5
1573.776	972.16667
1576.819	977.5
1579.859	982.16667
1582.898	1000.16667
1585.934	1020.83333
1588.968	1015.5
1591.999	998.83333
1595.029	991.5
1598.056	1000.83333
1601.081	1034.5
1604.104	1015.83333
1607.125	1009.5
1610.144	988.16667
1613.16	960.83333
1616.174	935.16667
1619.186	921.83333
1622.196	905.5
1625.203	876.16667
1628.209	878.5
1631.212	877.16667
1634.213	866.16667
1637.212	860.5
1640.209	869.16667
1643.203	839.5
1646.196	808.83333
1649.186	786.16667
1652.174	770.16667
1655.16	746.16667
1658.144	741.83333
1661.125	710.16667
1664.105	684.16667
1667.082	659.5
1670.057	625.83333
1673.03	584.83333
1676.001	562.16667
1678.97	529.5
1681.937	511.83333
1684.901	475.16667
1687.863	468.83333
1690.824	441.16667
1693.782	455.83333
1696.738	425.16667
1699.692	424.83333
1702.643	411.5
1705.593	418.16667
1708.54	404.5
1711.486	417.16667
1714.429	395.16667
1717.37	399.5
1720.309	390.16667
1723.246	395.83333
1726.181	383.16667
1729.113	384.83333
1732.044	381.16667
1734.972	374.5
1737.899	381.16667
1740.823	390.83333
1743.745	409.16667
1746.665	365.16667
1749.583	357.16667
1752.499	362.16667
1755.413	365.83333
1758.325	347.5
1761.235	355.83333
1764.142	334.5
1767.048	341.16667
1769.951	348.5
1772.852	344.83333
1775.752	348.5
1778.649	339.5
1781.544	356.83333
1784.437	315.5
1787.328	333.16667
1790.217	336.83333
1793.104	314.16667
1795.989	315.83333
1798.872	302.83333
1801.753	329.5
1804.631	322.83333
1807.508	332.5
1810.383	321.83333
1813.255	324.83333
1816.126	319.83333
1818.994	321.5
1821.861	306.16667
1824.725	317.16667
1827.587	313.83333
1830.448	308.5
1833.306	298.16667
1836.162	322.83333
1839.017	304.83333
1841.869	308.83333
1844.719	300.83333
1847.567	293.83333
1850.414	285.83333
1853.258	290.16667
1856.1	308.83333
1858.94	308.83333
1861.778	295.5
1864.614	287.5
1867.448	296.5
1870.28	274.16667
1873.111	305.16667
1875.939	292.83333
1878.765	307.83333
1881.589	291.16667
1884.411	295.83333
1887.231	310.83333
1890.049	295.5
1892.865	302.5
1895.68	281.5
1898.492	297.16667
1901.302	278.5
1904.11	284.16667
1906.916	280.16667
1909.721	281.5
1912.523	284.5
1915.323	270.5
1918.122	276.83333
1920.918	287.83333
1923.712	273.83333
1926.505	280.83333
1929.295	255.83333
1932.084	281.16667
1934.87	271.5
1937.655	266.16667
1940.438	263.5
1943.218	268.16667
1945.997	271.83333
1948.774	279.5
1951.549	279.5
1954.322	266.83333
1957.093	272.16667
1959.862	261.5
1962.629	272.16667
1965.394	262.5
1968.157	260.83333
1970.918	267.83333
1973.678	255.5
1976.435	261.83333
1979.19	254.5
1981.944	249.16667
1984.696	255.16667
1987.445	254.83333
1990.193	255.83333
1992.939	263.16667
1995.683	252.16667
1998.425	241.83333
2001.165	270.16667
2003.903	243.83333
2006.639	249.5
2009.374	255.83333
2012.106	256.16667
2014.837	229.16667
2017.566	261.16667
2020.292	250.16667
2023.017	244.16667
2025.74	238.83333
2028.461	235.83333
2031.18	245.5
2033.898	234.16667
2036.613	243.16667
2039.327	249.5
2042.038	237.16667
2044.748	234.5
2047.456	246.16667
2050.162	229.83333
2052.866	238.5
2055.568	239.16667
2058.268	237.5
2060.967	246.83333
2063.663	221.16667
2066.358	235.5
2069.051	223.16667
2071.742	227.83333
2074.431	240.83333
2077.118	237.16667
2079.804	212.83333
2082.487	228.16667
2085.169	247.16667
2087.849	256.83333
2090.527	230.16667
2093.203	233.16667
2095.877	224.83333
2098.55	236.16667
2101.22	243.83333
2103.889	241.16667
2106.556	228.5
2109.221	247.16667
2111.884	234.16667
2114.546	263.83333
2117.205	256.5
2119.863	294.16667
2122.519	282.16667
2125.173	301.83333
2127.825	326.5
2130.475	335.83333
2133.124	317.83333
2135.771	294.16667
2138.416	314.5
2141.059	283.5
2143.7	281.83333
2146.339	258.5
2148.977	236.83333
2151.613	251.83333
2154.247	249.5
2156.879	237.83333
2159.51	226.16667
2162.138	231.5
2164.765	222.5
2167.39	207.83333
2170.013	233.5
2172.634	234.16667
2175.254	219.83333
2177.872	255.5
2180.488	206.5
2183.102	214.83333
2185.714	214.5
2188.325	197.16667
2190.934	216.5
2193.541	221.16667
2196.146	211.5
2198.75	196.16667
2201.351	201.16667
2203.951	188.83333
2206.549	213.5
2209.146	201.83333
2211.74	195.5
2214.333	205.83333
2216.924	191.16667
2219.514	199.83333
2222.101	189.16667
2224.687	207.16667
2227.271	184.83333
2229.853	193.16667
2232.433	179.5
2235.012	199.16667
2237.589	194.83333
2240.164	201.83333
2242.738	190.83333
2245.309	183.5
2247.879	203.83333
2250.448	194.5
2253.014	175.16667
2255.579	172.16667
2258.142	176.83333
2260.703	180.5
2263.262	181.16667
2265.82	177.83333
2268.376	184.83333
2270.93	178.83333
2273.483	165.83333
2276.033	187.5
2278.583	168.83333
2281.13	174.16667
2283.675	165.16667
2286.219	173.5
2288.761	178.83333
2291.302	178.83333
2293.841	189.83333
2296.377	163.16667
2298.913	175.16667
2301.446	184.5
2303.978	172.5
2306.508	166.83333
2309.037	177.16667
2311.563	169.16667
2314.088	171.83333
2316.612	154.83333
2319.133	169.83333
2321.653	169.5
2324.171	159.83333
2326.688	181.16667
2329.202	171.5
2331.715	164.5
2334.227	168.83333
2336.736	167.5
2339.244	157.5
2341.751	150.83333
2344.255	175.83333
2346.758	169.83333
2349.259	155.5
2351.759	171.16667
2354.257	155.5
2356.753	154.5
2359.247	157.5
2361.74	158.16667
2364.231	155.5
2366.721	168.16667
2369.209	154.16667
2371.695	158.5
2374.179	151.5
2376.662	146.83333
2379.143	172.5
2381.622	155.83333
2384.1	163.5
2386.576	156.16667
2389.051	166.16667
2391.524	161.83333
2393.995	161.16667
2396.464	152.5
2398.932	147.5
2401.398	157.83333
2403.863	147.83333
2406.325	144.5
2408.787	156.83333
2411.246	155.83333
2413.704	153.16667
2416.16	151.16667
2418.615	153.16667
2421.068	149.83333
2423.519	152.83333
2425.969	142.83333
2428.417	155.83333
2430.863	177.5
2433.308	161.16667
2435.751	158.16667
2438.193	155.83333
2440.633	149.16667
2443.071	153.83333
2445.508	139.16667
2447.943	147.83333
2450.376	143.83333
2452.808	153.5
2455.238	140.5
2457.667	172.5
2460.093	135.83333
2462.519	132.16667
2464.942	142.16667
2467.365	149.83333
2469.785	148.83333
2472.204	140.83333
2474.621	138.83333
2477.037	160.83333
2479.451	134.16667
2481.863	131.83333
2484.274	135.5
2486.683	140.83333
2489.091	151.83333
2491.497	147.16667
2493.901	148.83333
2496.304	139.5
2498.705	147.16667
2501.105	142.5
2503.503	158.5
2505.899	136.16667
2508.294	154.16667
2510.687	137.5
2513.079	138.5
2515.469	132.16667
2517.858	136.16667
2520.245	153.83333
2522.63	141.16667
2525.014	139.83333
2527.396	132.83333
2529.776	132.83333
2532.156	144.16667
2534.533	127.5
2536.909	125.16667
2539.283	119.5
2541.656	130.5
2544.027	151.5
2546.397	134.16667
2548.765	130.16667
2551.131	135.83333
2553.496	135.5
2555.86	134.83333
2558.221	139.16667
2560.582	129.16667
2562.94	121.5
2565.298	129.83333
2567.653	143.5
2570.007	124.5
2572.36	139.83333
2574.711	122.83333
2577.06	145.5
2579.408	132.83333
2581.754	129.5
2584.099	134.83333
2586.442	133.83333
2588.784	130.16667
2591.124	127.83333
2593.463	128.16667
2595.8	135.16667
2598.135	115.83333
2600.469	120.83333
2602.802	141.5
2605.133	140.16667
2607.462	122.16667
2609.79	117.83333
2612.116	138.83333
2614.441	128.16667
2616.764	131.83333
2619.086	125.83333
2621.406	119.5
2623.725	141.83333
2626.042	129.83333
2628.358	119.16667
2630.672	129.83333
2632.985	134.16667
2635.296	126.83333
2637.606	120.16667
2639.914	125.5
2642.22	125.83333
2644.525	125.83333
2646.829	128.5
2649.131	141.5
2651.432	131.5
2653.731	123.83333
2656.028	138.5
2658.324	126.5
2660.619	115.83333
2662.912	130.83333
2665.204	116.16667
2667.494	130.83333
2669.782	119.83333
2672.07	135.83333
2674.355	133.5
2676.639	128.5
2678.922	118.5
2681.203	128.5
2683.483	126.83333
2685.761	112.83333
2688.038	134.16667
2690.313	138.83333
2692.587	125.5
2694.859	126.83333
2697.13	124.5
2699.399	133.83333
2701.667	139.5
2703.933	135.83333
2706.198	138.16667
2708.461	141.16667
2710.723	138.83333
2712.984	130.16667
2715.243	139.16667
2717.5	132.83333
2719.757	140.83333
2722.011	130.5
2724.264	139.5
2726.516	152.16667
2728.766	131.83333
2731.015	134.5
2733.262	131.16667
2735.508	127.5
2737.753	143.5
2739.996	123.16667
2742.237	124.83333
2744.477	140.16667
2746.716	141.16667
2748.953	138.5
2751.189	140.5
2753.423	136.5
2755.656	123.16667
2757.887	122.5
2760.117	120.83333
2762.346	122.16667
2764.573	115.16667
2766.798	122.16667
2769.022	127.5
2771.245	121.83333
2773.467	125.16667
2775.686	123.16667
2777.905	132.16667
2780.122	121.5
2782.337	125.16667
2784.552	121.16667
2786.764	127.83333
2788.976	120.5
2791.186	132.16667
2793.394	128.5
2795.601	131.16667
2797.807	138.16667
2800.011	129.83333
2802.214	137.16667
2804.415	139.16667
2806.615	134.5
2808.814	134.16667
2811.011	140.5
2813.206	137.83333
2815.401	144.5
2817.594	147.16667
2819.785	151.5
2821.975	131.5
2824.164	141.5
2826.351	136.5
2828.537	155.83333
2830.722	155.5
2832.905	152.5
2835.086	156.83333
2837.267	175.16667
2839.445	169.83333
2841.623	172.83333
2843.799	173.83333
2845.974	177.83333
2848.147	184.83333
2850.319	190.5
2852.489	206.16667
2854.659	201.83333
2856.826	204.16667
2858.993	220.16667
2861.158	196.83333
2863.321	208.5
2865.483	220.83333
2867.644	217.16667
2869.804	221.5
2871.962	207.83333
2874.118	217.5
2876.274	215.83333
2878.428	219.16667
2880.58	215.83333
2882.731	205.16667
2884.881	212.16667
2887.03	226.5
2889.177	211.5
2891.322	220.83333
2893.467	214.83333
2895.61	209.5
2897.751	223.16667
2899.892	213.16667
2902.03	222.83333
2904.168	213.83333
2906.304	212.5
2908.439	235.16667
2910.572	208.16667
2912.704	218.83333
2914.835	226.5
2916.965	226.5
2919.093	242.16667
2921.219	204.16667
2923.345	238.5
2925.469	227.16667
2927.591	218.5
2929.712	207.5
2931.832	218.83333
2933.951	206.5
2936.068	204.5
2938.184	201.5
2940.299	197.83333
2942.412	183.83333
2944.524	170.5
2946.634	182.83333
2948.744	166.16667
2950.851	195.5
2952.958	158.83333
2955.063	172.5
2957.167	161.16667
2959.269	144.83333
2961.371	181.16667
2963.471	154.5
2965.569	167.83333
2967.666	142.5
2969.762	146.16667
2971.857	136.83333
2973.95	137.5
2976.042	142.83333
2978.133	134.83333
2980.222	135.16667
2982.31	127.16667
2984.396	109.83333
2986.482	115.83333
2988.566	120.16667
2990.648	124.83333
2992.73	119.16667
2994.81	105.83333
2996.889	124.16667
2998.966	121.5
3001.042	126.16667
3003.117	113.5
3005.191	124.16667
3007.263	115.16667
3009.334	114.16667
3011.403	114.83333
3013.472	114.5
3015.539	122.5
3017.604	133.16667
3019.669	102.5
3021.732	109.83333
3023.794	107.5
3025.854	104.16667
3027.914	94.83333
3029.971	96.5
3032.028	104.5
3034.083	110.5
3036.137	109.83333
3038.19	92.5
3040.242	89.16667
3042.292	90.16667
3044.341	100.5
3046.388	108.16667
3048.435	87.83333
3050.48	112.5
3052.524	96.83333
3054.566	81.16667
3056.607	94.83333
3058.647	91.5
3060.686	76.5
3062.723	75.83333
3064.759	81.5
3066.794	0.83333
3068.828	1.83333
3070.86	1.5
