-0.839	123.54167
3.438	138.20833
7.711	59.54167
11.981	40.20833
16.247	29.20833
20.509	36.875
24.768	36.20833
29.024	41.875
33.276	31.54167
37.524	41.54167
41.769	28.20833
46.01	24.54167
50.247	42.20833
54.481	50.54167
58.712	53.875
62.939	35.54167
67.162	51.875
71.382	43.20833
75.599	36.875
79.812	41.875
84.021	56.20833
88.227	39.875
92.429	49.875
96.628	34.20833
100.823	50.875
105.015	50.20833
109.204	43.20833
113.388	55.875
117.57	38.54167
121.748	58.54167
125.922	41.875
130.093	65.54167
134.261	61.54167
138.425	50.20833
142.585	82.20833
146.742	61.20833
150.896	73.875
155.046	64.875
159.193	100.54167
163.336	147.54167
167.476	245.54167
171.613	430.54167
175.746	698.20833
179.875	1015.20833
184.002	1301.20833
188.124	1532.875
192.244	1608.54167
196.36	1607.875
200.472	1588.875
204.581	1580.20833
208.687	1523.54167
212.79	1502.20833
216.889	1529.20833
220.984	1546.20833
225.077	1543.875
229.165	1551.54167
233.251	1546.54167
237.333	1542.54167
241.412	1515.54167
245.487	1520.875
249.559	1488.54167
253.628	1490.875
257.694	1470.20833
261.756	1486.54167
265.814	1445.20833
269.87	1387.875
273.922	1386.875
277.97	1365.20833
282.016	1366.20833
286.058	1336.875
290.097	1377.20833
294.132	1376.54167
298.164	1357.875
302.193	1317.875
306.219	1258.875
310.241	1180.54167
314.26	1093.875
318.276	1043.20833
322.288	1018.875
326.297	992.54167
330.303	977.54167
334.305	964.875
338.305	949.875
342.301	936.20833
346.294	934.54167
350.283	936.20833
354.269	926.54167
358.252	913.20833
362.232	925.54167
366.209	917.54167
370.182	904.875
374.152	904.875
378.119	921.20833
382.083	903.20833
386.043	923.20833
390	907.54167
393.954	917.20833
397.905	924.875
401.852	926.20833
405.797	907.54167
409.738	897.54167
413.676	917.20833
417.61	928.20833
421.542	898.875
425.47	892.20833
429.396	887.875
433.318	877.875
437.236	887.54167
441.152	920.54167
445.065	863.54167
448.974	882.54167
452.88	873.54167
456.783	856.54167
460.683	858.875
464.58	873.54167
468.473	871.54167
472.364	872.875
476.251	878.20833
480.135	874.54167
484.016	883.20833
487.894	895.54167
491.769	885.20833
495.641	880.875
499.509	888.20833
503.375	894.54167
507.237	880.20833
511.096	892.20833
514.952	893.20833
518.805	875.54167
522.655	875.20833
526.502	880.875
530.346	905.875
534.187	876.875
538.024	884.875
541.859	874.20833
545.69	900.54167
549.519	897.54167
553.344	894.20833
557.166	866.875
560.985	858.54167
564.802	882.875
568.615	870.20833
572.425	846.20833
576.232	839.875
580.036	846.875
583.836	850.54167
587.634	857.54167
591.429	837.54167
595.221	880.875
599.01	869.54167
602.796	860.875
606.578	869.20833
610.358	873.875
614.135	865.20833
617.909	865.875
621.679	862.875
625.447	850.20833
629.212	856.875
632.973	861.875
636.732	855.20833
640.488	854.875
644.241	827.54167
647.991	829.54167
651.737	859.20833
655.481	827.54167
659.222	836.54167
662.96	821.20833
666.695	848.20833
670.427	842.20833
674.156	840.54167
677.882	842.875
681.605	839.20833
685.325	828.20833
689.043	862.875
692.757	841.20833
696.468	843.20833
700.177	833.875
703.882	813.54167
707.585	821.54167
711.284	822.875
714.981	813.875
718.675	798.54167
722.366	834.20833
726.054	808.54167
729.739	822.20833
733.421	832.875
737.1	813.875
740.777	823.875
744.45	823.875
748.121	816.20833
751.789	856.54167
755.453	831.54167
759.115	834.875
762.774	840.54167
766.431	833.875
770.084	841.20833
773.734	829.875
777.382	852.875
781.027	870.875
784.669	855.20833
788.308	867.54167
791.944	871.875
795.577	872.875
799.208	863.875
802.835	871.875
806.46	871.875
810.082	866.54167
813.701	868.20833
817.317	882.54167
820.931	872.20833
824.542	882.54167
828.149	863.54167
831.754	860.875
835.357	863.875
838.956	871.54167
842.553	857.875
846.146	840.875
849.737	836.54167
853.326	848.20833
856.911	831.20833
860.493	856.20833
864.073	857.20833
867.65	874.875
871.225	883.875
874.796	857.54167
878.365	862.20833
881.931	875.875
885.494	878.54167
889.054	860.54167
892.612	883.54167
896.166	861.20833
899.719	838.54167
903.268	832.875
906.814	838.875
910.358	831.54167
913.899	816.875
917.438	814.54167
920.973	798.20833
924.506	816.20833
928.036	839.875
931.564	839.20833
935.088	849.875
938.61	835.20833
942.129	835.54167
945.646	844.875
949.16	861.54167
952.671	860.54167
956.179	881.875
959.685	858.54167
963.188	863.875
966.688	858.875
970.185	832.875
973.68	810.54167
977.173	806.875
980.662	800.875
984.149	809.54167
987.633	789.20833
991.114	801.20833
994.593	821.20833
998.069	828.875
1001.542	856.20833
1005.013	839.54167
1008.481	785.20833
1011.947	781.875
1015.409	769.875
1018.869	785.54167
1022.327	791.54167
1025.782	770.20833
1029.234	753.875
1032.683	750.20833
1036.13	740.20833
1039.574	713.54167
1043.016	696.54167
1046.455	698.54167
1049.891	679.54167
1053.325	704.875
1056.756	680.54167
1060.184	699.875
1063.61	673.875
1067.033	695.54167
1070.454	688.20833
1073.872	710.54167
1077.287	683.20833
1080.7	682.54167
1084.11	685.20833
1087.517	684.20833
1090.922	682.875
1094.325	664.20833
1097.724	670.54167
1101.122	661.20833
1104.516	665.54167
1107.908	656.54167
1111.298	655.20833
1114.684	667.20833
1118.069	668.54167
1121.45	690.875
1124.83	673.54167
1128.206	689.20833
1131.58	693.54167
1134.951	705.54167
1138.32	722.54167
1141.687	741.875
1145.05	754.54167
1148.412	753.54167
1151.77	751.20833
1155.126	744.54167
1158.48	721.20833
1161.831	736.20833
1165.18	734.54167
1168.525	751.20833
1171.869	762.875
1175.21	750.20833
1178.548	774.20833
1181.884	774.875
1185.217	775.875
1188.548	789.875
1191.877	794.875
1195.202	835.54167
1198.526	842.54167
1201.846	846.54167
1205.165	859.875
1208.48	851.20833
1211.794	839.54167
1215.104	854.20833
1218.413	844.875
1221.719	837.20833
1225.022	828.20833
1228.323	816.20833
1231.621	817.875
1234.917	812.20833
1238.21	839.875
1241.501	816.875
1244.79	800.54167
1248.076	789.54167
1251.359	816.54167
1254.64	849.20833
1257.919	824.20833
1261.195	851.20833
1264.468	853.875
1267.74	843.20833
1271.008	851.54167
1274.275	865.54167
1277.538	850.875
1280.8	850.875
1284.059	841.875
1287.315	852.54167
1290.569	862.20833
1293.821	861.20833
1297.07	865.20833
1300.317	873.875
1303.562	875.20833
1306.803	871.54167
1310.043	852.54167
1313.28	850.875
1316.515	845.875
1319.747	855.54167
1322.977	844.54167
1326.204	829.20833
1329.429	828.54167
1332.652	830.875
1335.872	827.54167
1339.09	794.20833
1342.306	809.20833
1345.519	806.875
1348.729	790.875
1351.938	793.54167
1355.144	796.875
1358.347	784.875
1361.548	794.875
1364.747	783.54167
1367.944	766.54167
1371.138	767.875
1374.329	769.54167
1377.518	773.54167
1380.705	777.20833
1383.89	776.20833
1387.072	758.20833
1390.252	736.20833
1393.429	712.20833
1396.605	696.54167
1399.777	680.20833
1402.948	680.20833
1406.116	663.875
1409.282	671.20833
1412.445	664.54167
1415.606	665.875
1418.765	681.54167
1421.921	690.20833
1425.075	693.54167
1428.227	710.875
1431.376	740.54167
1434.524	755.54167
1437.668	774.20833
1440.811	788.54167
1443.951	786.54167
1447.089	790.20833
1450.224	795.875
1453.357	787.875
1456.488	777.20833
1459.617	763.54167
1462.743	753.54167
1465.867	725.875
1468.989	740.875
1472.108	720.54167
1475.225	703.20833
1478.34	692.54167
1481.453	690.20833
1484.563	681.54167
1487.671	705.20833
1490.776	712.54167
1493.88	714.54167
1496.981	734.875
1500.08	721.875
1503.176	728.875
1506.271	735.875
1509.363	756.20833
1512.452	751.20833
1515.54	763.875
1518.625	755.54167
1521.708	811.54167
1524.789	808.20833
1527.867	825.875
1530.944	866.54167
1534.018	889.875
1537.089	930.875
1540.159	948.54167
1543.226	952.20833
1546.291	924.875
1549.354	898.20833
1552.415	895.20833
1555.473	871.875
1558.529	873.20833
1561.583	854.20833
1564.634	852.20833
1567.684	847.54167
1570.731	843.875
1573.776	846.20833
1576.819	840.20833
1579.859	846.54167
1582.898	858.54167
1585.934	881.20833
1588.968	888.875
1591.999	868.54167
1595.029	864.875
1598.056	874.875
1601.081	895.20833
1604.104	890.54167
1607.125	865.20833
1610.144	853.54167
1613.16	817.20833
1616.174	814.54167
1619.186	807.54167
1622.196	780.20833
1625.203	755.54167
1628.209	773.20833
1631.212	758.875
1634.213	750.20833
1637.212	752.875
1640.209	742.20833
1643.203	721.54167
1646.196	703.875
1649.186	678.20833
1652.174	678.20833
1655.16	645.54167
1658.144	653.54167
1661.125	621.875
1664.105	603.20833
1667.082	584.54167
1670.057	552.20833
1673.03	521.54167
1676.001	515.875
1678.97	467.875
1681.937	454.20833
1684.901	429.875
1687.863	426.875
1690.824	402.54167
1693.782	402.54167
1696.738	383.20833
1699.692	379.54167
1702.643	360.875
1705.593	370.875
1708.54	365.875
1711.486	371.20833
1714.429	351.20833
1717.37	360.875
1720.309	344.20833
1723.246	361.54167
1726.181	335.875
1729.113	340.54167
1732.044	342.20833
1734.972	341.54167
1737.899	358.54167
1740.823	347.20833
1743.745	371.875
1746.665	327.54167
1749.583	326.875
1752.499	312.875
1755.413	321.54167
1758.325	300.20833
1761.235	315.54167
1764.142	304.54167
1767.048	309.20833
1769.951	301.54167
1772.852	299.875
1775.752	316.54167
1778.649	306.875
1781.544	313.875
1784.437	286.875
1787.328	305.54167
1790.217	299.875
1793.104	272.875
1795.989	288.20833
1798.872	273.875
1801.753	291.54167
1804.631	285.20833
1807.508	298.20833
1810.383	286.875
1813.255	282.875
1816.126	283.20833
1818.994	284.54167
1821.861	276.875
1824.725	282.20833
1827.587	290.54167
1830.448	275.875
1833.306	268.54167
1836.162	289.54167
1839.017	274.875
1841.869	276.875
1844.719	269.54167
1847.567	258.20833
1850.414	254.54167
1853.258	255.875
1856.1	272.875
1858.94	273.54167
1861.778	268.20833
1864.614	258.20833
1867.448	262.875
1870.28	249.20833
1873.111	277.875
1875.939	260.54167
1878.765	275.54167
1881.589	257.54167
1884.411	266.54167
1887.231	273.54167
1890.049	260.875
1892.865	265.54167
1895.68	249.875
1898.492	253.875
1901.302	260.20833
1904.11	254.875
1906.916	250.20833
1909.721	251.875
1912.523	263.875
1915.323	248.20833
1918.122	245.54167
1920.918	257.54167
1923.712	241.20833
1926.505	253.54167
1929.295	229.875
1932.084	248.20833
1934.87	246.54167
1937.655	243.20833
1940.438	236.875
1943.218	242.875
1945.997	241.20833
1948.774	245.875
1951.549	253.54167
1954.322	238.20833
1957.093	242.54167
1959.862	232.54167
1962.629	236.875
1965.394	236.54167
1968.157	223.875
1970.918	248.875
1973.678	230.875
1976.435	244.54167
1979.19	229.875
1981.944	220.875
1984.696	231.875
1987.445	225.54167
1990.193	228.54167
1992.939	245.875
1995.683	233.875
1998.425	211.54167
2001.165	242.54167
2003.903	218.875
2006.639	223.875
2009.374	226.54167
2012.106	231.54167
2014.837	205.20833
2017.566	233.875
2020.292	222.20833
2023.017	217.875
2025.74	211.54167
2028.461	209.54167
2031.18	223.54167
2033.898	209.875
2036.613	222.54167
2039.327	224.54167
2042.038	206.20833
2044.748	213.20833
2047.456	218.875
2050.162	199.20833
2052.866	212.54167
2055.568	224.20833
2058.268	204.20833
2060.967	217.875
2063.663	204.20833
2066.358	200.875
2069.051	200.875
2071.742	209.54167
2074.431	219.20833
2077.118	205.20833
2079.804	195.20833
2082.487	210.54167
2085.169	215.20833
2087.849	229.875
2090.527	204.875
2093.203	207.20833
2095.877	212.875
2098.55	204.20833
2101.22	217.54167
2103.889	222.54167
2106.556	206.54167
2109.221	223.875
2111.884	216.54167
2114.546	234.20833
2117.205	232.54167
2119.863	282.875
2122.519	270.54167
2125.173	289.20833
2127.825	314.20833
2130.475	314.875
2133.124	302.20833
2135.771	286.875
2138.416	295.875
2141.059	261.875
2143.7	267.20833
2146.339	245.875
2148.977	219.20833
2151.613	231.20833
2154.247	228.20833
2156.879	221.20833
2159.51	206.20833
2162.138	209.875
2164.765	205.875
2167.39	188.20833
2170.013	217.20833
2172.634	211.875
2175.254	200.20833
2177.872	236.20833
2180.488	190.20833
2183.102	199.54167
2185.714	193.54167
2188.325	182.54167
2190.934	195.54167
2193.541	195.54167
2196.146	193.54167
2198.75	181.875
2201.351	182.54167
2203.951	168.875
2206.549	189.20833
2209.146	178.54167
2211.74	174.54167
2214.333	187.875
2216.924	170.875
2219.514	179.20833
2222.101	168.875
2224.687	185.54167
2227.271	167.20833
2229.853	165.54167
2232.433	157.875
2235.012	177.20833
2237.589	174.54167
2240.164	184.54167
2242.738	171.54167
2245.309	162.875
2247.879	177.875
2250.448	174.20833
2253.014	158.875
2255.579	157.875
2258.142	162.20833
2260.703	159.54167
2263.262	158.54167
2265.82	152.20833
2268.376	169.875
2270.93	156.54167
2273.483	146.20833
2276.033	167.54167
2278.583	155.54167
2281.13	150.875
2283.675	146.20833
2286.219	157.54167
2288.761	159.875
2291.302	166.54167
2293.841	169.20833
2296.377	144.54167
2298.913	158.20833
2301.446	167.54167
2303.978	155.54167
2306.508	148.54167
2309.037	155.54167
2311.563	156.875
2314.088	152.875
2316.612	141.54167
2319.133	158.54167
2321.653	156.20833
2324.171	146.875
2326.688	158.875
2329.202	152.54167
2331.715	150.875
2334.227	147.875
2336.736	147.875
2339.244	141.54167
2341.751	134.875
2344.255	155.875
2346.758	151.20833
2349.259	138.54167
2351.759	144.875
2354.257	134.20833
2356.753	142.20833
2359.247	138.875
2361.74	144.875
2364.231	141.20833
2366.721	149.54167
2369.209	141.54167
2371.695	140.875
2374.179	134.54167
2376.662	127.20833
2379.143	149.54167
2381.622	135.875
2384.1	146.875
2386.576	138.54167
2389.051	147.54167
2391.524	150.54167
2393.995	144.20833
2396.464	138.54167
2398.932	134.20833
2401.398	134.54167
2403.863	131.875
2406.325	131.54167
2408.787	138.54167
2411.246	134.54167
2413.704	133.54167
2416.16	128.875
2418.615	133.54167
2421.068	139.875
2423.519	126.20833
2425.969	126.20833
2428.417	141.54167
2430.863	153.54167
2433.308	138.54167
2435.751	136.20833
2438.193	133.20833
2440.633	137.875
2443.071	140.54167
2445.508	128.875
2447.943	129.54167
2450.376	128.20833
2452.808	133.54167
2455.238	121.875
2457.667	151.875
2460.093	125.54167
2462.519	118.54167
2464.942	122.20833
2467.365	129.20833
2469.785	129.20833
2472.204	123.20833
2474.621	126.875
2477.037	138.20833
2479.451	117.875
2481.863	119.20833
2484.274	121.20833
2486.683	125.20833
2489.091	136.20833
2491.497	127.54167
2493.901	126.875
2496.304	123.54167
2498.705	132.20833
2501.105	121.54167
2503.503	141.20833
2505.899	116.20833
2508.294	137.875
2510.687	120.54167
2513.079	119.20833
2515.469	112.875
2517.858	116.54167
2520.245	134.54167
2522.63	120.20833
2525.014	113.875
2527.396	113.20833
2529.776	119.54167
2532.156	126.54167
2534.533	105.54167
2536.909	106.875
2539.283	99.875
2541.656	114.54167
2544.027	131.54167
2546.397	116.54167
2548.765	117.875
2551.131	116.875
2553.496	119.875
2555.86	117.20833
2558.221	116.20833
2560.582	111.54167
2562.94	101.875
2565.298	118.54167
2567.653	123.875
2570.007	103.20833
2572.36	122.875
2574.711	108.20833
2577.06	124.20833
2579.408	118.20833
2581.754	113.20833
2584.099	113.54167
2586.442	111.54167
2588.784	125.20833
2591.124	108.875
2593.463	109.54167
2595.8	122.54167
2598.135	104.20833
2600.469	105.20833
2602.802	116.54167
2605.133	123.20833
2607.462	105.875
2609.79	100.54167
2612.116	117.875
2614.441	106.54167
2616.764	115.54167
2619.086	112.54167
2621.406	107.54167
2623.725	121.875
2626.042	104.875
2628.358	102.54167
2630.672	110.20833
2632.985	121.20833
2635.296	110.875
2637.606	111.875
2639.914	104.20833
2642.22	109.54167
2644.525	109.20833
2646.829	109.54167
2649.131	120.54167
2651.432	118.20833
2653.731	104.20833
2656.028	120.54167
2658.324	115.20833
2660.619	100.54167
2662.912	117.875
2665.204	97.20833
2667.494	115.54167
2669.782	100.875
2672.07	123.20833
2674.355	122.20833
2676.639	117.875
2678.922	110.20833
2681.203	110.54167
2683.483	104.20833
2685.761	99.54167
2688.038	118.54167
2690.313	123.875
2692.587	113.875
2694.859	110.20833
2697.13	105.54167
2699.399	113.875
2701.667	117.875
2703.933	111.20833
2706.198	116.54167
2708.461	123.20833
2710.723	116.20833
2712.984	110.875
2715.243	118.54167
2717.5	111.20833
2719.757	119.875
2722.011	111.875
2724.264	123.54167
2726.516	128.20833
2728.766	110.54167
2731.015	116.20833
2733.262	113.54167
2735.508	109.54167
2737.753	119.875
2739.996	102.20833
2742.237	104.54167
2744.477	114.875
2746.716	129.20833
2748.953	129.20833
2751.189	125.20833
2753.423	116.875
2755.656	108.875
2757.887	103.54167
2760.117	109.875
2762.346	103.875
2764.573	90.875
2766.798	102.54167
2769.022	108.20833
2771.245	99.875
2773.467	106.875
2775.686	102.20833
2777.905	108.875
2780.122	105.20833
2782.337	114.20833
2784.552	104.20833
2786.764	105.875
2788.976	100.54167
2791.186	108.20833
2793.394	110.20833
2795.601	117.20833
2797.807	122.20833
2800.011	109.54167
2802.214	121.875
2804.415	116.54167
2806.615	112.54167
2808.814	112.875
2811.011	116.875
2813.206	120.20833
2815.401	126.875
2817.594	127.54167
2819.785	134.54167
2821.975	113.20833
2824.164	125.20833
2826.351	121.875
2828.537	135.875
2830.722	127.20833
2832.905	131.54167
2835.086	131.875
2837.267	150.20833
2839.445	142.54167
2841.623	144.20833
2843.799	148.54167
2845.974	151.54167
2848.147	154.20833
2850.319	159.20833
2852.489	170.875
2854.659	176.54167
2856.826	165.875
2858.993	189.54167
2861.158	169.20833
2863.321	174.20833
2865.483	184.20833
2867.644	181.54167
2869.804	180.54167
2871.962	170.875
2874.118	182.20833
2876.274	184.54167
2878.428	182.875
2880.58	182.54167
2882.731	172.54167
2884.881	177.20833
2887.03	182.875
2889.177	179.875
2891.322	185.20833
2893.467	176.20833
2895.61	175.20833
2897.751	184.54167
2899.892	181.875
2902.03	179.875
2904.168	181.54167
2906.304	178.54167
2908.439	198.875
2910.572	173.54167
2912.704	188.54167
2914.835	190.20833
2916.965	182.54167
2919.093	200.20833
2921.219	175.20833
2923.345	206.20833
2925.469	184.54167
2927.591	185.54167
2929.712	167.875
2931.832	186.54167
2933.951	171.875
2936.068	169.54167
2938.184	164.875
2940.299	160.54167
2942.412	158.20833
2944.524	145.875
2946.634	157.875
2948.744	132.20833
2950.851	172.875
2952.958	133.875
2955.063	143.54167
2957.167	135.20833
2959.269	124.54167
2961.371	150.875
2963.471	124.875
2965.569	143.875
2967.666	114.20833
2969.762	114.54167
2971.857	118.54167
2973.95	108.54167
2976.042	117.20833
2978.133	111.20833
2980.222	108.20833
2982.31	101.20833
2984.396	85.20833
2986.482	96.20833
2988.566	98.54167
2990.648	95.20833
2992.73	99.875
2994.81	82.20833
2996.889	100.875
2998.966	91.875
3001.042	107.20833
3003.117	94.20833
3005.191	97.20833
3007.263	101.875
3009.334	95.54167
3011.403	97.54167
3013.472	90.875
3015.539	106.20833
3017.604	108.54167
3019.669	80.20833
3021.732	87.54167
3023.794	91.54167
3025.854	83.54167
3027.914	82.54167
3029.971	82.54167
3032.028	85.20833
3034.083	88.54167
3036.137	86.875
3038.19	75.875
3040.242	71.875
3042.292	74.54167
3044.341	74.875
3046.388	91.54167
3048.435	71.54167
3050.48	90.875
3052.524	77.875
3054.566	64.875
3056.607	79.54167
3058.647	77.875
3060.686	67.20833
3062.723	57.54167
3064.759	61.20833
3066.794	-1.125
3068.828	-0.79167
3070.86	4.875
