-0.839	137.45833
3.438	158.45833
7.711	70.125
11.981	43.79167
16.247	30.45833
20.509	37.45833
24.768	34.125
29.024	44.125
33.276	33.125
37.524	38.45833
41.769	31.45833
46.01	28.79167
50.247	46.125
54.481	51.45833
58.712	54.45833
62.939	33.79167
67.162	52.125
71.382	41.45833
75.599	34.79167
79.812	42.79167
84.021	60.125
88.227	39.125
92.429	52.79167
96.628	35.125
100.823	53.125
105.015	52.125
109.204	45.125
113.388	57.79167
117.57	41.79167
121.748	61.45833
125.922	48.45833
130.093	62.125
134.261	65.125
138.425	52.79167
142.585	80.79167
146.742	63.79167
150.896	82.125
155.046	71.79167
159.193	112.125
163.336	161.79167
167.476	277.125
171.613	494.45833
175.746	788.79167
179.875	1155.79167
184.002	1499.45833
188.124	1774.79167
192.244	1849.45833
196.36	1846.125
200.472	1824.45833
204.581	1803.79167
208.687	1733.79167
212.79	1727.45833
216.889	1763.125
220.984	1741.45833
225.077	1759.79167
229.165	1753.45833
233.251	1757.125
237.333	1757.125
241.412	1735.45833
245.487	1728.79167
249.559	1699.125
253.628	1701.79167
257.694	1675.45833
261.756	1694.79167
265.814	1655.79167
269.87	1598.45833
273.922	1568.125
277.97	1548.45833
282.016	1536.79167
286.058	1529.79167
290.097	1549.45833
294.132	1570.125
298.164	1555.45833
302.193	1523.79167
306.219	1421.45833
310.241	1343.125
314.26	1243.79167
318.276	1197.45833
322.288	1167.45833
326.297	1128.79167
330.303	1102.45833
334.305	1065.45833
338.305	1079.125
342.301	1067.125
346.294	1060.79167
350.283	1042.79167
354.269	1034.79167
358.252	1036.45833
362.232	1033.45833
366.209	1043.45833
370.182	1026.45833
374.152	1020.125
378.119	1021.79167
382.083	1026.45833
386.043	1038.79167
390	1023.125
393.954	1036.79167
397.905	1026.79167
401.852	1048.79167
405.797	1036.45833
409.738	1016.45833
413.676	1038.45833
417.61	1034.79167
421.542	1027.45833
425.47	993.125
429.396	999.79167
433.318	995.79167
437.236	1003.45833
441.152	1032.79167
445.065	986.125
448.974	998.45833
452.88	967.125
456.783	986.45833
460.683	964.125
464.58	987.79167
468.473	982.45833
472.364	992.79167
476.251	978.79167
480.135	992.45833
484.016	1010.79167
487.894	1006.45833
491.769	1009.125
495.641	1003.79167
499.509	1010.45833
503.375	1016.45833
507.237	1002.45833
511.096	1020.79167
514.952	1055.45833
518.805	1098.125
522.655	1118.45833
526.502	1067.79167
530.346	1018.45833
534.187	1013.125
538.024	991.45833
541.859	981.125
545.69	1012.45833
549.519	1007.125
553.344	1007.125
557.166	971.125
560.985	980.45833
564.802	992.45833
568.615	967.45833
572.425	960.79167
576.232	947.45833
580.036	939.45833
583.836	963.79167
587.634	947.45833
591.429	947.79167
595.221	989.45833
599.01	969.125
602.796	974.79167
606.578	982.79167
610.358	978.45833
614.135	977.45833
617.909	974.45833
621.679	962.79167
625.447	965.79167
629.212	952.79167
632.973	969.79167
636.732	961.125
640.488	964.79167
644.241	941.79167
647.991	949.79167
651.737	959.45833
655.481	932.125
659.222	945.45833
662.96	957.45833
666.695	957.125
670.427	960.79167
674.156	960.45833
677.882	962.125
681.605	964.125
685.325	943.45833
689.043	962.125
692.757	942.125
696.468	945.79167
700.177	952.45833
703.882	918.125
707.585	924.79167
711.284	922.79167
714.981	905.79167
718.675	912.125
722.366	922.79167
726.054	912.45833
729.739	915.79167
733.421	921.125
737.1	920.79167
740.777	930.45833
744.45	945.79167
748.121	927.125
751.789	959.45833
755.453	920.45833
759.115	937.45833
762.774	939.125
766.431	937.125
770.084	956.125
773.734	943.125
777.382	962.125
781.027	966.45833
784.669	954.45833
788.308	961.79167
791.944	977.79167
795.577	980.125
799.208	978.125
802.835	981.79167
806.46	987.79167
810.082	1001.45833
813.701	996.45833
817.317	1005.79167
820.931	1018.125
824.542	1001.79167
828.149	984.45833
831.754	964.79167
835.357	973.79167
838.956	982.79167
842.553	967.79167
846.146	959.79167
849.737	942.125
853.326	950.79167
856.911	927.125
860.493	964.45833
864.073	967.45833
867.65	974.125
871.225	990.45833
874.796	968.79167
878.365	952.125
881.931	967.45833
885.494	1000.79167
889.054	964.45833
892.612	978.79167
896.166	962.45833
899.719	958.45833
903.268	938.79167
906.814	941.79167
910.358	931.45833
913.899	943.79167
917.438	916.79167
920.973	901.125
924.506	912.79167
928.036	941.45833
931.564	955.45833
935.088	985.79167
938.61	966.125
942.129	946.45833
945.646	975.79167
949.16	984.125
952.671	994.125
956.179	996.79167
959.685	996.79167
963.188	1007.79167
966.688	981.45833
970.185	956.79167
973.68	938.45833
977.173	938.125
980.662	910.79167
984.149	913.79167
987.633	904.45833
991.114	909.79167
994.593	929.45833
998.069	940.79167
1001.542	966.79167
1005.013	958.79167
1008.481	898.45833
1011.947	886.79167
1015.409	883.79167
1018.869	888.45833
1022.327	895.125
1025.782	875.45833
1029.234	862.45833
1032.683	874.125
1036.13	844.79167
1039.574	814.45833
1043.016	809.125
1046.455	773.45833
1049.891	783.125
1053.325	792.45833
1056.756	786.45833
1060.184	786.45833
1063.61	763.79167
1067.033	789.125
1070.454	790.79167
1073.872	806.125
1077.287	784.45833
1080.7	786.79167
1084.11	775.45833
1087.517	782.125
1090.922	783.125
1094.325	766.125
1097.724	754.45833
1101.122	758.125
1104.516	753.45833
1107.908	749.125
1111.298	771.45833
1114.684	768.79167
1118.069	759.45833
1121.45	788.45833
1124.83	769.125
1128.206	777.79167
1131.58	788.45833
1134.951	798.45833
1138.32	810.125
1141.687	842.45833
1145.05	858.79167
1148.412	855.79167
1151.77	855.125
1155.126	843.79167
1158.48	849.125
1161.831	843.45833
1165.18	838.125
1168.525	849.45833
1171.869	878.45833
1175.21	866.79167
1178.548	868.79167
1181.884	887.45833
1185.217	882.79167
1188.548	910.79167
1191.877	906.79167
1195.202	965.125
1198.526	970.125
1201.846	977.45833
1205.165	981.45833
1208.48	980.79167
1211.794	984.45833
1215.104	991.125
1218.413	969.125
1221.719	976.79167
1225.022	940.45833
1228.323	937.45833
1231.621	940.125
1234.917	928.45833
1238.21	956.125
1241.501	935.45833
1244.79	926.125
1248.076	917.125
1251.359	918.45833
1254.64	980.45833
1257.919	945.125
1261.195	964.79167
1264.468	977.79167
1267.74	967.79167
1271.008	992.125
1274.275	981.125
1277.538	985.125
1280.8	975.79167
1284.059	970.125
1287.315	992.79167
1290.569	974.79167
1293.821	989.45833
1297.07	1005.125
1300.317	985.79167
1303.562	1010.79167
1306.803	987.125
1310.043	976.79167
1313.28	980.79167
1316.515	974.79167
1319.747	987.125
1322.977	957.125
1326.204	967.79167
1329.429	941.45833
1332.652	943.45833
1335.872	948.79167
1339.09	943.125
1342.306	932.125
1345.519	933.79167
1348.729	922.45833
1351.938	914.45833
1355.144	911.45833
1358.347	890.45833
1361.548	901.125
1364.747	904.45833
1367.944	886.125
1371.138	890.45833
1374.329	884.45833
1377.518	889.125
1380.705	881.125
1383.89	879.79167
1387.072	859.79167
1390.252	840.45833
1393.429	823.125
1396.605	803.45833
1399.777	749.45833
1402.948	764.45833
1406.116	745.79167
1409.282	754.45833
1412.445	757.79167
1415.606	755.45833
1418.765	764.45833
1421.921	773.45833
1425.075	790.125
1428.227	804.79167
1431.376	835.79167
1434.524	861.45833
1437.668	879.79167
1440.811	882.125
1443.951	881.79167
1447.089	909.125
1450.224	886.45833
1453.357	901.45833
1456.488	884.79167
1459.617	886.79167
1462.743	868.45833
1465.867	850.79167
1468.989	845.79167
1472.108	821.125
1475.225	810.79167
1478.34	811.79167
1481.453	795.45833
1484.563	789.125
1487.671	806.79167
1490.776	815.79167
1493.88	822.45833
1496.981	839.125
1500.08	840.79167
1503.176	835.125
1506.271	848.45833
1509.363	855.45833
1512.452	849.45833
1515.54	854.45833
1518.625	881.45833
1521.708	914.125
1524.789	921.79167
1527.867	958.125
1530.944	968.79167
1534.018	1026.125
1537.089	1061.79167
1540.159	1062.79167
1543.226	1071.45833
1546.291	1036.125
1549.354	1028.125
1552.415	1016.125
1555.473	989.125
1558.529	983.125
1561.583	973.79167
1564.634	963.125
1567.684	960.79167
1570.731	971.45833
1573.776	961.45833
1576.819	976.45833
1579.859	977.79167
1582.898	1011.125
1585.934	1008.79167
1588.968	1011.79167
1591.999	993.45833
1595.029	991.79167
1598.056	1020.45833
1601.081	1026.79167
1604.104	1021.79167
1607.125	992.45833
1610.144	994.79167
1613.16	959.79167
1616.174	947.125
1619.186	924.125
1622.196	913.125
1625.203	901.79167
1628.209	899.45833
1631.212	889.125
1634.213	891.79167
1637.212	901.45833
1640.209	903.45833
1643.203	860.79167
1646.196	841.45833
1649.186	807.125
1652.174	792.79167
1655.16	756.45833
1658.144	748.45833
1661.125	708.45833
1664.105	688.45833
1667.082	659.45833
1670.057	620.79167
1673.03	609.125
1676.001	570.125
1678.97	534.79167
1681.937	507.45833
1684.901	487.45833
1687.863	491.45833
1690.824	459.125
1693.782	465.125
1696.738	433.125
1699.692	430.79167
1702.643	412.79167
1705.593	419.45833
1708.54	412.45833
1711.486	424.45833
1714.429	397.125
1717.37	413.125
1720.309	402.79167
1723.246	405.125
1726.181	390.45833
1729.113	389.125
1732.044	395.125
1734.972	379.79167
1737.899	397.45833
1740.823	388.45833
1743.745	418.45833
1746.665	366.79167
1749.583	366.125
1752.499	365.45833
1755.413	365.79167
1758.325	349.125
1761.235	356.79167
1764.142	350.125
1767.048	341.125
1769.951	347.125
1772.852	346.125
1775.752	352.45833
1778.649	351.125
1781.544	355.125
1784.437	334.45833
1787.328	344.45833
1790.217	344.125
1793.104	315.79167
1795.989	329.125
1798.872	321.45833
1801.753	343.45833
1804.631	324.79167
1807.508	337.79167
1810.383	329.45833
1813.255	327.79167
1816.126	319.125
1818.994	320.45833
1821.861	318.79167
1824.725	323.79167
1827.587	318.79167
1830.448	320.45833
1833.306	303.125
1836.162	325.125
1839.017	316.79167
1841.869	314.125
1844.719	311.125
1847.567	301.79167
1850.414	297.125
1853.258	301.125
1856.1	306.125
1858.94	315.45833
1861.778	302.79167
1864.614	293.125
1867.448	309.125
1870.28	289.79167
1873.111	313.45833
1875.939	297.45833
1878.765	318.125
1881.589	292.79167
1884.411	301.45833
1887.231	307.45833
1890.049	301.79167
1892.865	309.125
1895.68	292.125
1898.492	296.79167
1901.302	285.125
1904.11	299.45833
1906.916	289.79167
1909.721	288.79167
1912.523	293.45833
1915.323	280.45833
1918.122	284.79167
1920.918	298.125
1923.712	282.125
1926.505	283.45833
1929.295	265.45833
1932.084	288.79167
1934.87	289.79167
1937.655	282.45833
1940.438	273.45833
1943.218	280.79167
1945.997	280.125
1948.774	283.125
1951.549	285.79167
1954.322	268.125
1957.093	275.79167
1959.862	269.45833
1962.629	278.45833
1965.394	270.125
1968.157	261.45833
1970.918	279.79167
1973.678	258.45833
1976.435	276.125
1979.19	268.79167
1981.944	257.125
1984.696	263.125
1987.445	262.125
1990.193	262.45833
1992.939	273.79167
1995.683	275.45833
1998.425	244.79167
2001.165	278.125
2003.903	245.79167
2006.639	256.79167
2009.374	267.45833
2012.106	264.125
2014.837	241.45833
2017.566	267.125
2020.292	255.125
2023.017	251.45833
2025.74	254.125
2028.461	239.79167
2031.18	256.45833
2033.898	247.45833
2036.613	249.45833
2039.327	253.45833
2042.038	243.125
2044.748	250.125
2047.456	251.125
2050.162	244.125
2052.866	242.79167
2055.568	252.79167
2058.268	246.125
2060.967	254.45833
2063.663	238.79167
2066.358	243.45833
2069.051	230.125
2071.742	236.125
2074.431	250.125
2077.118	243.45833
2079.804	236.125
2082.487	237.125
2085.169	250.45833
2087.849	262.79167
2090.527	233.79167
2093.203	246.45833
2095.877	242.45833
2098.55	243.45833
2101.22	247.79167
2103.889	258.125
2106.556	243.125
2109.221	259.125
2111.884	248.79167
2114.546	268.79167
2117.205	271.45833
2119.863	303.45833
2122.519	298.79167
2125.173	318.125
2127.825	344.45833
2130.475	346.45833
2133.124	320.45833
2135.771	312.79167
2138.416	313.79167
2141.059	291.79167
2143.7	300.125
2146.339	270.125
2148.977	252.125
2151.613	257.125
2154.247	260.79167
2156.879	255.125
2159.51	240.125
2162.138	235.45833
2164.765	239.45833
2167.39	230.79167
2170.013	244.79167
2172.634	243.79167
2175.254	231.125
2177.872	270.125
2180.488	218.125
2183.102	227.125
2185.714	225.125
2188.325	219.45833
2190.934	226.79167
2193.541	232.45833
2196.146	220.79167
2198.75	205.79167
2201.351	212.79167
2203.951	204.125
2206.549	220.79167
2209.146	211.45833
2211.74	206.45833
2214.333	220.125
2216.924	200.45833
2219.514	211.125
2222.101	211.125
2224.687	219.45833
2227.271	197.125
2229.853	207.125
2232.433	186.125
2235.012	218.79167
2237.589	209.79167
2240.164	217.79167
2242.738	205.125
2245.309	196.45833
2247.879	213.79167
2250.448	214.45833
2253.014	192.125
2255.579	192.45833
2258.142	193.125
2260.703	198.45833
2263.262	188.79167
2265.82	193.79167
2268.376	207.45833
2270.93	195.125
2273.483	184.79167
2276.033	199.45833
2278.583	190.125
2281.13	191.45833
2283.675	179.45833
2286.219	190.45833
2288.761	194.125
2291.302	201.125
2293.841	207.45833
2296.377	184.125
2298.913	189.45833
2301.446	198.45833
2303.978	181.79167
2306.508	191.79167
2309.037	191.79167
2311.563	189.45833
2314.088	190.79167
2316.612	176.45833
2319.133	189.125
2321.653	191.45833
2324.171	183.125
2326.688	191.125
2329.202	190.125
2331.715	189.45833
2334.227	185.125
2336.736	186.79167
2339.244	177.125
2341.751	170.79167
2344.255	190.79167
2346.758	182.45833
2349.259	174.125
2351.759	184.125
2354.257	176.79167
2356.753	174.45833
2359.247	174.125
2361.74	179.45833
2364.231	180.125
2366.721	184.79167
2369.209	175.125
2371.695	175.125
2374.179	170.45833
2376.662	162.45833
2379.143	197.125
2381.622	178.125
2384.1	185.125
2386.576	171.45833
2389.051	189.45833
2391.524	183.125
2393.995	185.125
2396.464	176.125
2398.932	171.79167
2401.398	181.125
2403.863	167.125
2406.325	172.125
2408.787	176.45833
2411.246	173.125
2413.704	179.125
2416.16	175.125
2418.615	174.79167
2421.068	180.125
2423.519	174.79167
2425.969	166.125
2428.417	185.79167
2430.863	189.45833
2433.308	178.79167
2435.751	178.79167
2438.193	174.79167
2440.633	180.125
2443.071	181.125
2445.508	171.79167
2447.943	173.45833
2450.376	165.45833
2452.808	175.79167
2455.238	166.45833
2457.667	191.125
2460.093	164.79167
2462.519	162.125
2464.942	167.125
2467.365	171.125
2469.785	178.79167
2472.204	171.125
2474.621	163.79167
2477.037	183.125
2479.451	158.45833
2481.863	157.45833
2484.274	161.79167
2486.683	167.125
2489.091	181.125
2491.497	171.125
2493.901	175.125
2496.304	166.45833
2498.705	178.125
2501.105	169.125
2503.503	190.45833
2505.899	162.45833
2508.294	179.79167
2510.687	165.45833
2513.079	170.79167
2515.469	169.45833
2517.858	162.45833
2520.245	177.125
2522.63	172.125
2525.014	164.45833
2527.396	159.125
2529.776	165.125
2532.156	173.125
2534.533	158.125
2536.909	158.79167
2539.283	151.45833
2541.656	162.79167
2544.027	184.125
2546.397	170.125
2548.765	166.45833
2551.131	164.45833
2553.496	167.45833
2555.86	173.125
2558.221	176.79167
2560.582	164.45833
2562.94	156.45833
2565.298	171.125
2567.653	172.45833
2570.007	151.45833
2572.36	171.125
2574.711	161.125
2577.06	173.45833
2579.408	170.125
2581.754	162.79167
2584.099	165.45833
2586.442	164.45833
2588.784	170.125
2591.124	170.45833
2593.463	161.45833
2595.8	173.79167
2598.135	154.125
2600.469	162.125
2602.802	176.125
2605.133	173.45833
2607.462	160.125
2609.79	152.79167
2612.116	172.45833
2614.441	164.45833
2616.764	166.79167
2619.086	169.125
2621.406	168.125
2623.725	176.79167
2626.042	166.45833
2628.358	162.125
2630.672	164.125
2632.985	174.79167
2635.296	169.45833
2637.606	171.125
2639.914	165.79167
2642.22	163.45833
2644.525	168.45833
2646.829	173.79167
2649.131	185.125
2651.432	176.79167
2653.731	167.45833
2656.028	183.79167
2658.324	173.125
2660.619	163.45833
2662.912	184.125
2665.204	154.45833
2667.494	177.125
2669.782	167.45833
2672.07	179.45833
2674.355	187.45833
2676.639	177.79167
2678.922	164.45833
2681.203	176.79167
2683.483	166.125
2685.761	162.45833
2688.038	177.79167
2690.313	186.45833
2692.587	176.125
2694.859	176.79167
2697.13	174.79167
2699.399	175.125
2701.667	181.125
2703.933	178.125
2706.198	184.79167
2708.461	180.125
2710.723	188.125
2712.984	176.125
2715.243	195.45833
2717.5	174.79167
2719.757	186.45833
2722.011	176.125
2724.264	194.125
2726.516	196.79167
2728.766	176.45833
2731.015	184.79167
2733.262	184.45833
2735.508	184.125
2737.753	189.125
2739.996	170.125
2742.237	179.125
2744.477	194.79167
2746.716	196.79167
2748.953	188.79167
2751.189	187.45833
2753.423	184.125
2755.656	178.45833
2757.887	173.79167
2760.117	171.79167
2762.346	170.79167
2764.573	163.125
2766.798	168.45833
2769.022	180.125
2771.245	164.125
2773.467	176.45833
2775.686	173.125
2777.905	181.79167
2780.122	174.79167
2782.337	183.125
2784.552	178.125
2786.764	180.125
2788.976	174.125
2791.186	176.79167
2793.394	184.125
2795.601	188.79167
2797.807	192.45833
2800.011	182.125
2802.214	194.45833
2804.415	189.79167
2806.615	188.125
2808.814	192.79167
2811.011	192.125
2813.206	194.125
2815.401	208.79167
2817.594	203.79167
2819.785	212.125
2821.975	191.45833
2824.164	201.45833
2826.351	200.45833
2828.537	210.45833
2830.722	211.45833
2832.905	201.125
2835.086	209.125
2837.267	231.79167
2839.445	230.79167
2841.623	231.79167
2843.799	228.45833
2845.974	233.79167
2848.147	240.45833
2850.319	251.79167
2852.489	258.125
2854.659	267.79167
2856.826	259.79167
2858.993	280.125
2861.158	260.45833
2863.321	265.125
2865.483	279.45833
2867.644	275.125
2869.804	278.45833
2871.962	267.79167
2874.118	278.125
2876.274	278.125
2878.428	278.79167
2880.58	274.45833
2882.731	265.79167
2884.881	265.125
2887.03	269.79167
2889.177	272.45833
2891.322	279.45833
2893.467	264.79167
2895.61	265.45833
2897.751	283.125
2899.892	273.79167
2902.03	285.79167
2904.168	274.45833
2906.304	284.79167
2908.439	295.79167
2910.572	275.45833
2912.704	277.45833
2914.835	292.45833
2916.965	279.125
2919.093	308.45833
2921.219	271.79167
2923.345	308.79167
2925.469	287.125
2927.591	279.125
2929.712	276.45833
2931.832	274.45833
2933.951	261.125
2936.068	264.79167
2938.184	267.45833
2940.299	255.125
2942.412	254.79167
2944.524	242.125
2946.634	245.79167
2948.744	229.79167
2950.851	260.125
2952.958	226.45833
2955.063	239.79167
2957.167	233.79167
2959.269	214.125
2961.371	250.79167
2963.471	216.79167
2965.569	238.125
2967.666	213.79167
2969.762	208.45833
2971.857	206.45833
2973.95	207.79167
2976.042	216.79167
2978.133	208.125
2980.222	202.79167
2982.31	189.45833
2984.396	175.45833
2986.482	183.125
2988.566	194.45833
2990.648	184.125
2992.73	193.45833
2994.81	178.79167
2996.889	189.45833
2998.966	185.79167
3001.042	197.125
3003.117	178.125
3005.191	187.79167
3007.263	188.79167
3009.334	184.79167
3011.403	190.45833
3013.472	183.79167
3015.539	192.45833
3017.604	205.79167
3019.669	168.45833
3021.732	171.125
3023.794	180.125
3025.854	167.125
3027.914	171.125
3029.971	170.125
3032.028	171.45833
3034.083	176.45833
3036.137	170.45833
3038.19	156.45833
3040.242	149.79167
3042.292	157.45833
3044.341	157.79167
3046.388	172.79167
3048.435	153.125
3050.48	171.45833
3052.524	157.45833
3054.566	144.125
3056.607	156.79167
3058.647	156.125
3060.686	140.125
3062.723	138.125
3064.759	130.45833
3066.794	0.79167
3068.828	0.79167
3070.86	3.79167
