-0.839	129.375
3.438	147.04167
7.711	62.04167
11.981	41.04167
16.247	33.70833
20.509	37.70833
24.768	31.04167
29.024	46.04167
33.276	30.04167
37.524	44.375
41.769	29.04167
46.01	28.04167
50.247	43.375
54.481	49.70833
58.712	52.04167
62.939	32.70833
67.162	53.04167
71.382	43.04167
75.599	39.04167
79.812	43.375
84.021	57.70833
88.227	38.70833
92.429	51.375
96.628	35.375
100.823	52.70833
105.015	48.70833
109.204	44.375
113.388	57.375
117.57	42.70833
121.748	56.70833
125.922	45.375
130.093	66.04167
134.261	64.375
138.425	52.04167
142.585	82.04167
146.742	63.70833
150.896	72.70833
155.046	71.70833
159.193	101.04167
163.336	158.70833
167.476	265.375
171.613	479.04167
175.746	770.04167
179.875	1122.70833
184.002	1430.375
188.124	1690.70833
192.244	1753.04167
196.36	1763.70833
200.472	1738.70833
204.581	1699.375
208.687	1656.04167
212.79	1640.70833
216.889	1656.04167
220.984	1681.375
225.077	1676.375
229.165	1688.70833
233.251	1686.70833
237.333	1701.70833
241.412	1666.04167
245.487	1662.04167
249.559	1643.375
253.628	1634.375
257.694	1625.04167
261.756	1622.375
265.814	1575.375
269.87	1538.70833
273.922	1497.70833
277.97	1466.70833
282.016	1464.04167
286.058	1444.70833
290.097	1491.70833
294.132	1494.70833
298.164	1496.04167
302.193	1428.70833
306.219	1365.375
310.241	1271.70833
314.26	1184.70833
318.276	1124.70833
322.288	1076.70833
326.297	1028.04167
330.303	1010.375
334.305	1003.04167
338.305	998.04167
342.301	962.70833
346.294	972.70833
350.283	967.04167
354.269	954.04167
358.252	949.04167
362.232	953.70833
366.209	955.04167
370.182	937.375
374.152	933.375
378.119	943.04167
382.083	939.04167
386.043	953.70833
390	927.04167
393.954	933.04167
397.905	941.70833
401.852	956.70833
405.797	937.70833
409.738	928.70833
413.676	942.04167
417.61	954.70833
421.542	941.375
425.47	914.04167
429.396	902.375
433.318	905.375
437.236	906.375
441.152	934.70833
445.065	893.375
448.974	898.70833
452.88	879.04167
456.783	883.375
460.683	877.70833
464.58	887.375
468.473	905.70833
472.364	891.375
476.251	897.70833
480.135	894.70833
484.016	911.70833
487.894	913.04167
491.769	913.375
495.641	906.04167
499.509	919.70833
503.375	912.375
507.237	895.70833
511.096	898.375
514.952	916.04167
518.805	902.70833
522.655	909.04167
526.502	916.375
530.346	919.375
534.187	919.70833
538.024	908.70833
541.859	905.04167
545.69	938.375
549.519	921.04167
553.344	915.70833
557.166	898.375
560.985	900.04167
564.802	878.375
568.615	880.375
572.425	863.375
576.232	860.375
580.036	861.70833
583.836	874.375
587.634	884.375
591.429	870.375
595.221	889.70833
599.01	882.70833
602.796	878.375
606.578	895.375
610.358	904.70833
614.135	892.70833
617.909	890.375
621.679	874.375
625.447	872.70833
629.212	873.04167
632.973	883.04167
636.732	870.70833
640.488	863.04167
644.241	851.04167
647.991	859.375
651.737	897.375
655.481	837.70833
659.222	855.04167
662.96	846.375
666.695	859.375
670.427	867.70833
674.156	870.375
677.882	871.375
681.605	864.04167
685.325	854.70833
689.043	877.375
692.757	859.70833
696.468	854.70833
700.177	852.70833
703.882	845.375
707.585	834.04167
711.284	836.70833
714.981	828.04167
718.675	835.04167
722.366	853.375
726.054	824.375
729.739	834.70833
733.421	837.70833
737.1	847.70833
740.777	849.375
744.45	838.70833
748.121	844.70833
751.789	870.70833
755.453	850.70833
759.115	879.04167
762.774	861.375
766.431	868.375
770.084	868.70833
773.734	874.04167
777.382	883.70833
781.027	892.375
784.669	888.70833
788.308	891.70833
791.944	907.04167
795.577	909.375
799.208	906.375
802.835	906.70833
806.46	926.70833
810.082	899.04167
813.701	913.375
817.317	923.375
820.931	912.375
824.542	915.04167
828.149	902.375
831.754	894.70833
835.357	891.375
838.956	908.70833
842.553	903.04167
846.146	889.04167
849.737	864.375
853.326	874.70833
856.911	865.375
860.493	898.375
864.073	896.70833
867.65	920.70833
871.225	918.70833
874.796	910.375
878.365	906.04167
881.931	914.70833
885.494	919.04167
889.054	904.375
892.612	911.04167
896.166	900.70833
899.719	884.70833
903.268	864.375
906.814	888.375
910.358	864.70833
913.899	855.70833
917.438	857.70833
920.973	832.375
924.506	872.375
928.036	868.375
931.564	887.04167
935.088	920.375
938.61	879.375
942.129	890.375
945.646	904.04167
949.16	911.70833
952.671	926.70833
956.179	946.04167
959.685	931.375
963.188	928.04167
966.688	922.04167
970.185	886.375
973.68	873.04167
977.173	874.04167
980.662	844.375
984.149	861.375
987.633	840.04167
991.114	857.70833
994.593	875.375
998.069	882.70833
1001.542	897.375
1005.013	910.04167
1008.481	847.70833
1011.947	836.70833
1015.409	823.375
1018.869	832.375
1022.327	841.70833
1025.782	799.70833
1029.234	822.375
1032.683	812.70833
1036.13	786.375
1039.574	757.375
1043.016	735.70833
1046.455	732.04167
1049.891	737.70833
1053.325	733.04167
1056.756	726.375
1060.184	733.04167
1063.61	718.04167
1067.033	743.04167
1070.454	735.375
1073.872	753.375
1077.287	735.375
1080.7	733.375
1084.11	729.70833
1087.517	730.04167
1090.922	727.04167
1094.325	705.04167
1097.724	712.70833
1101.122	720.375
1104.516	714.04167
1107.908	705.04167
1111.298	719.375
1114.684	729.70833
1118.069	717.375
1121.45	749.04167
1124.83	709.70833
1128.206	729.04167
1131.58	753.375
1134.951	754.70833
1138.32	764.70833
1141.687	802.375
1145.05	811.375
1148.412	812.70833
1151.77	804.70833
1155.126	805.04167
1158.48	799.04167
1161.831	792.70833
1165.18	804.375
1168.525	812.375
1171.869	826.70833
1175.21	811.70833
1178.548	838.375
1181.884	836.04167
1185.217	841.04167
1188.548	867.375
1191.877	867.70833
1195.202	925.70833
1198.526	928.04167
1201.846	931.04167
1205.165	916.375
1208.48	945.375
1211.794	941.04167
1215.104	942.04167
1218.413	922.04167
1221.719	935.70833
1225.022	907.04167
1228.323	899.375
1231.621	902.70833
1234.917	883.375
1238.21	912.375
1241.501	878.375
1244.79	875.04167
1248.076	864.375
1251.359	901.375
1254.64	922.375
1257.919	898.04167
1261.195	921.04167
1264.468	932.375
1267.74	938.375
1271.008	951.04167
1274.275	940.375
1277.538	926.375
1280.8	936.04167
1284.059	914.04167
1287.315	949.70833
1290.569	924.70833
1293.821	958.375
1297.07	958.04167
1300.317	955.04167
1303.562	956.70833
1306.803	922.04167
1310.043	944.70833
1313.28	939.70833
1316.515	925.375
1319.747	950.04167
1322.977	922.375
1326.204	923.04167
1329.429	896.70833
1332.652	900.70833
1335.872	890.375
1339.09	884.70833
1342.306	875.04167
1345.519	871.375
1348.729	870.375
1351.938	853.375
1355.144	859.04167
1358.347	843.70833
1361.548	851.70833
1364.747	849.70833
1367.944	834.04167
1371.138	847.04167
1374.329	838.04167
1377.518	845.04167
1380.705	842.04167
1383.89	841.04167
1387.072	809.70833
1390.252	792.04167
1393.429	774.04167
1396.605	758.375
1399.777	722.375
1402.948	720.04167
1406.116	717.375
1409.282	715.70833
1412.445	723.375
1415.606	731.375
1418.765	727.70833
1421.921	745.375
1425.075	756.04167
1428.227	763.70833
1431.376	797.70833
1434.524	827.70833
1437.668	837.375
1440.811	849.70833
1443.951	836.70833
1447.089	868.375
1450.224	849.70833
1453.357	852.375
1456.488	856.375
1459.617	849.70833
1462.743	825.70833
1465.867	802.04167
1468.989	804.04167
1472.108	780.70833
1475.225	770.70833
1478.34	763.04167
1481.453	766.04167
1484.563	749.375
1487.671	769.375
1490.776	780.375
1493.88	776.04167
1496.981	797.04167
1500.08	813.04167
1503.176	821.04167
1506.271	807.375
1509.363	820.70833
1512.452	822.04167
1515.54	830.375
1518.625	839.375
1521.708	882.04167
1524.789	890.375
1527.867	912.375
1530.944	946.04167
1534.018	982.375
1537.089	1028.70833
1540.159	1054.375
1543.226	1048.375
1546.291	1018.375
1549.354	1008.04167
1552.415	987.70833
1555.473	966.04167
1558.529	951.70833
1561.583	959.70833
1564.634	926.70833
1567.684	927.04167
1570.731	939.04167
1573.776	947.375
1576.819	944.04167
1579.859	952.04167
1582.898	971.375
1585.934	982.375
1588.968	980.70833
1591.999	968.375
1595.029	961.70833
1598.056	968.375
1601.081	999.375
1604.104	1003.375
1607.125	972.70833
1610.144	946.70833
1613.16	925.04167
1616.174	902.04167
1619.186	895.70833
1622.196	878.375
1625.203	848.70833
1628.209	843.70833
1631.212	833.04167
1634.213	832.70833
1637.212	839.375
1640.209	834.70833
1643.203	803.04167
1646.196	777.375
1649.186	759.375
1652.174	747.70833
1655.16	709.375
1658.144	710.04167
1661.125	682.04167
1664.105	650.04167
1667.082	634.04167
1670.057	599.70833
1673.03	577.70833
1676.001	540.375
1678.97	509.375
1681.937	483.70833
1684.901	462.04167
1687.863	457.70833
1690.824	434.04167
1693.782	437.375
1696.738	404.04167
1699.692	405.375
1702.643	396.375
1705.593	397.375
1708.54	391.04167
1711.486	403.70833
1714.429	371.04167
1717.37	384.375
1720.309	368.375
1723.246	374.375
1726.181	354.375
1729.113	359.375
1732.044	362.375
1734.972	354.04167
1737.899	371.375
1740.823	369.70833
1743.745	385.70833
1746.665	347.375
1749.583	341.375
1752.499	333.70833
1755.413	340.04167
1758.325	331.375
1761.235	327.70833
1764.142	323.04167
1767.048	315.375
1769.951	323.70833
1772.852	315.70833
1775.752	330.375
1778.649	324.375
1781.544	334.70833
1784.437	310.70833
1787.328	316.70833
1790.217	318.70833
1793.104	289.04167
1795.989	302.375
1798.872	286.70833
1801.753	316.04167
1804.631	308.375
1807.508	310.04167
1810.383	301.04167
1813.255	301.375
1816.126	294.04167
1818.994	298.04167
1821.861	295.70833
1824.725	300.375
1827.587	293.70833
1830.448	295.375
1833.306	283.375
1836.162	302.04167
1839.017	291.375
1841.869	292.04167
1844.719	294.375
1847.567	275.70833
1850.414	271.70833
1853.258	275.04167
1856.1	290.04167
1858.94	296.375
1861.778	281.70833
1864.614	270.04167
1867.448	282.375
1870.28	269.70833
1873.111	292.70833
1875.939	278.70833
1878.765	294.375
1881.589	272.375
1884.411	283.04167
1887.231	274.375
1890.049	286.375
1892.865	291.04167
1895.68	266.375
1898.492	276.04167
1901.302	265.04167
1904.11	262.04167
1906.916	273.70833
1909.721	267.375
1912.523	277.375
1915.323	260.70833
1918.122	256.375
1920.918	277.375
1923.712	256.70833
1926.505	267.375
1929.295	247.375
1932.084	259.375
1934.87	256.375
1937.655	260.04167
1940.438	251.375
1943.218	254.70833
1945.997	260.375
1948.774	268.04167
1951.549	264.04167
1954.322	255.375
1957.093	250.375
1959.862	250.375
1962.629	248.70833
1965.394	252.70833
1968.157	239.04167
1970.918	252.70833
1973.678	242.04167
1976.435	256.375
1979.19	246.70833
1981.944	238.375
1984.696	237.04167
1987.445	233.70833
1990.193	242.375
1992.939	250.375
1995.683	249.04167
1998.425	221.375
2001.165	268.70833
2003.903	224.70833
2006.639	236.04167
2009.374	250.04167
2012.106	248.70833
2014.837	215.04167
2017.566	246.04167
2020.292	235.04167
2023.017	229.70833
2025.74	227.04167
2028.461	228.70833
2031.18	231.375
2033.898	225.70833
2036.613	226.70833
2039.327	242.375
2042.038	217.70833
2044.748	222.375
2047.456	230.70833
2050.162	216.04167
2052.866	227.70833
2055.568	242.04167
2058.268	218.70833
2060.967	232.04167
2063.663	217.375
2066.358	215.70833
2069.051	213.04167
2071.742	219.04167
2074.431	231.04167
2077.118	217.70833
2079.804	205.375
2082.487	211.70833
2085.169	233.70833
2087.849	238.04167
2090.527	216.375
2093.203	217.70833
2095.877	225.04167
2098.55	222.70833
2101.22	229.04167
2103.889	231.04167
2106.556	215.04167
2109.221	232.04167
2111.884	227.375
2114.546	241.70833
2117.205	248.70833
2119.863	278.70833
2122.519	271.375
2125.173	289.375
2127.825	324.375
2130.475	321.375
2133.124	303.04167
2135.771	289.70833
2138.416	300.70833
2141.059	267.04167
2143.7	272.04167
2146.339	243.70833
2148.977	226.375
2151.613	246.375
2154.247	232.375
2156.879	229.70833
2159.51	211.375
2162.138	213.70833
2164.765	210.04167
2167.39	203.04167
2170.013	237.04167
2172.634	224.375
2175.254	210.375
2177.872	240.70833
2180.488	210.375
2183.102	206.04167
2185.714	198.375
2188.325	195.70833
2190.934	211.70833
2193.541	208.04167
2196.146	202.70833
2198.75	191.04167
2201.351	188.375
2203.951	183.04167
2206.549	202.04167
2209.146	189.375
2211.74	179.70833
2214.333	195.70833
2216.924	173.70833
2219.514	187.04167
2222.101	179.04167
2224.687	201.70833
2227.271	179.04167
2229.853	179.70833
2232.433	164.04167
2235.012	187.04167
2237.589	182.375
2240.164	202.70833
2242.738	180.04167
2245.309	170.70833
2247.879	198.375
2250.448	183.375
2253.014	171.04167
2255.579	169.04167
2258.142	174.04167
2260.703	170.04167
2263.262	169.70833
2265.82	164.04167
2268.376	178.70833
2270.93	169.375
2273.483	160.04167
2276.033	170.70833
2278.583	165.04167
2281.13	163.375
2283.675	160.04167
2286.219	159.375
2288.761	172.375
2291.302	169.70833
2293.841	181.375
2296.377	158.04167
2298.913	170.70833
2301.446	180.70833
2303.978	163.375
2306.508	164.70833
2309.037	167.04167
2311.563	163.70833
2314.088	169.04167
2316.612	155.375
2319.133	161.04167
2321.653	168.04167
2324.171	155.70833
2326.688	171.04167
2329.202	163.375
2331.715	159.04167
2334.227	161.70833
2336.736	160.375
2339.244	158.70833
2341.751	147.375
2344.255	165.375
2346.758	158.70833
2349.259	150.04167
2351.759	155.70833
2354.257	146.375
2356.753	149.04167
2359.247	145.04167
2361.74	151.375
2364.231	158.375
2366.721	159.04167
2369.209	149.375
2371.695	147.375
2374.179	144.70833
2376.662	141.04167
2379.143	159.04167
2381.622	151.04167
2384.1	152.375
2386.576	153.04167
2389.051	158.375
2391.524	161.375
2393.995	156.70833
2396.464	149.375
2398.932	144.70833
2401.398	147.375
2403.863	142.70833
2406.325	145.375
2408.787	149.04167
2411.246	145.375
2413.704	144.375
2416.16	140.375
2418.615	141.04167
2421.068	149.70833
2423.519	140.04167
2425.969	131.375
2428.417	150.375
2430.863	162.375
2433.308	153.375
2435.751	150.375
2438.193	148.70833
2440.633	147.04167
2443.071	151.04167
2445.508	138.04167
2447.943	142.70833
2450.376	140.375
2452.808	146.375
2455.238	130.04167
2457.667	162.375
2460.093	131.70833
2462.519	128.04167
2464.942	135.70833
2467.365	145.04167
2469.785	147.375
2472.204	130.04167
2474.621	135.04167
2477.037	154.04167
2479.451	126.70833
2481.863	126.04167
2484.274	127.04167
2486.683	139.04167
2489.091	148.70833
2491.497	136.04167
2493.901	137.70833
2496.304	130.375
2498.705	139.04167
2501.105	133.04167
2503.503	153.04167
2505.899	127.70833
2508.294	150.70833
2510.687	128.375
2513.079	137.70833
2515.469	126.70833
2517.858	135.375
2520.245	143.375
2522.63	126.70833
2525.014	131.375
2527.396	130.70833
2529.776	127.04167
2532.156	137.375
2534.533	119.375
2536.909	124.04167
2539.283	115.04167
2541.656	128.04167
2544.027	138.70833
2546.397	134.70833
2548.765	127.04167
2551.131	129.70833
2553.496	135.70833
2555.86	131.70833
2558.221	136.70833
2560.582	124.70833
2562.94	113.375
2565.298	125.70833
2567.653	135.04167
2570.007	115.375
2572.36	135.375
2574.711	122.70833
2577.06	140.70833
2579.408	123.04167
2581.754	122.70833
2584.099	122.70833
2586.442	125.70833
2588.784	133.04167
2591.124	126.04167
2593.463	121.04167
2595.8	128.375
2598.135	113.375
2600.469	114.375
2602.802	132.04167
2605.133	127.70833
2607.462	117.375
2609.79	113.04167
2612.116	132.04167
2614.441	121.04167
2616.764	125.375
2619.086	124.04167
2621.406	114.70833
2623.725	132.70833
2626.042	129.375
2628.358	115.70833
2630.672	126.375
2632.985	129.70833
2635.296	128.375
2637.606	128.70833
2639.914	114.375
2642.22	120.70833
2644.525	122.04167
2646.829	121.70833
2649.131	135.375
2651.432	123.375
2653.731	119.04167
2656.028	131.70833
2658.324	130.375
2660.619	109.70833
2662.912	129.375
2665.204	110.375
2667.494	127.375
2669.782	112.70833
2672.07	135.70833
2674.355	132.375
2676.639	125.04167
2678.922	122.375
2681.203	126.375
2683.483	123.70833
2685.761	111.04167
2688.038	134.375
2690.313	137.04167
2692.587	116.70833
2694.859	118.375
2697.13	121.04167
2699.399	130.375
2701.667	130.70833
2703.933	126.375
2706.198	137.375
2708.461	131.375
2710.723	138.04167
2712.984	125.375
2715.243	132.04167
2717.5	123.70833
2719.757	142.70833
2722.011	127.04167
2724.264	138.70833
2726.516	144.04167
2728.766	128.375
2731.015	125.04167
2733.262	126.375
2735.508	119.04167
2737.753	130.70833
2739.996	116.375
2742.237	119.70833
2744.477	135.04167
2746.716	137.375
2748.953	139.04167
2751.189	139.04167
2753.423	130.70833
2755.656	116.70833
2757.887	119.70833
2760.117	120.375
2762.346	117.04167
2764.573	104.70833
2766.798	116.375
2769.022	119.70833
2771.245	117.70833
2773.467	121.70833
2775.686	120.04167
2777.905	127.04167
2780.122	123.70833
2782.337	126.375
2784.552	122.375
2786.764	115.70833
2788.976	118.70833
2791.186	119.375
2793.394	122.04167
2795.601	132.70833
2797.807	137.375
2800.011	126.375
2802.214	134.375
2804.415	130.04167
2806.615	125.04167
2808.814	131.04167
2811.011	134.70833
2813.206	137.70833
2815.401	142.04167
2817.594	141.04167
2819.785	150.375
2821.975	134.375
2824.164	138.70833
2826.351	138.375
2828.537	157.375
2830.722	153.04167
2832.905	144.04167
2835.086	153.70833
2837.267	168.70833
2839.445	169.70833
2841.623	164.04167
2843.799	165.70833
2845.974	178.70833
2848.147	177.04167
2850.319	188.04167
2852.489	196.04167
2854.659	193.375
2856.826	196.04167
2858.993	218.375
2861.158	195.375
2863.321	204.70833
2865.483	211.375
2867.644	209.375
2869.804	207.375
2871.962	200.70833
2874.118	209.04167
2876.274	207.04167
2878.428	207.70833
2880.58	207.70833
2882.731	198.375
2884.881	205.70833
2887.03	216.70833
2889.177	206.375
2891.322	216.375
2893.467	208.70833
2895.61	198.04167
2897.751	220.375
2899.892	211.04167
2902.03	215.375
2904.168	204.70833
2906.304	209.375
2908.439	225.375
2910.572	208.375
2912.704	216.70833
2914.835	225.04167
2916.965	207.70833
2919.093	243.04167
2921.219	203.70833
2923.345	235.70833
2925.469	211.04167
2927.591	215.04167
2929.712	196.70833
2931.832	210.04167
2933.951	199.375
2936.068	195.04167
2938.184	192.70833
2940.299	191.70833
2942.412	187.04167
2944.524	168.70833
2946.634	190.70833
2948.744	162.04167
2950.851	193.04167
2952.958	155.375
2955.063	169.70833
2957.167	164.70833
2959.269	147.70833
2961.371	173.375
2963.471	145.375
2965.569	169.70833
2967.666	140.04167
2969.762	143.04167
2971.857	137.70833
2973.95	129.375
2976.042	137.70833
2978.133	124.70833
2980.222	134.70833
2982.31	116.04167
2984.396	103.70833
2986.482	112.04167
2988.566	120.375
2990.648	116.375
2992.73	118.04167
2994.81	104.04167
2996.889	120.04167
2998.966	112.04167
3001.042	122.04167
3003.117	108.04167
3005.191	114.04167
3007.263	120.04167
3009.334	111.375
3011.403	115.70833
3013.472	105.70833
3015.539	127.70833
3017.604	128.375
3019.669	94.04167
3021.732	103.70833
3023.794	109.04167
3025.854	99.04167
3027.914	94.70833
3029.971	97.375
3032.028	98.375
3034.083	104.70833
3036.137	104.04167
3038.19	87.04167
3040.242	88.70833
3042.292	90.70833
3044.341	96.70833
3046.388	109.04167
3048.435	83.04167
3050.48	107.375
3052.524	97.70833
3054.566	75.375
3056.607	91.70833
3058.647	88.70833
3060.686	81.04167
3062.723	71.04167
3064.759	78.375
3066.794	-0.625
3068.828	-0.29167
3070.86	3.04167
