-0.839	133.08333
3.438	148.75
7.711	62.41667
11.981	47.41667
16.247	31.08333
20.509	40.08333
24.768	37.75
29.024	46.08333
33.276	30.08333
37.524	44.08333
41.769	28.75
46.01	24.75
50.247	46.75
54.481	54.08333
58.712	57.08333
62.939	34.75
67.162	51.75
71.382	45.08333
75.599	36.08333
79.812	43.75
84.021	63.41667
88.227	41.75
92.429	50.75
96.628	40.41667
100.823	53.75
105.015	53.75
109.204	45.41667
113.388	56.75
117.57	45.41667
121.748	57.75
125.922	49.41667
130.093	66.08333
134.261	64.75
138.425	50.75
142.585	82.08333
146.742	66.08333
150.896	76.75
155.046	74.08333
159.193	110.08333
163.336	163.41667
167.476	277.41667
171.613	505.75
175.746	804.75
179.875	1165.41667
184.002	1500.41667
188.124	1789.08333
192.244	1858.08333
196.36	1861.75
200.472	1845.41667
204.581	1812.08333
208.687	1765.08333
212.79	1767.08333
216.889	1781.08333
220.984	1793.41667
225.077	1798.41667
229.165	1794.08333
233.251	1798.75
237.333	1795.41667
241.412	1794.08333
245.487	1786.08333
249.559	1753.41667
253.628	1752.08333
257.694	1721.08333
261.756	1737.41667
265.814	1697.41667
269.87	1654.41667
273.922	1611.08333
277.97	1585.41667
282.016	1588.08333
286.058	1575.41667
290.097	1604.75
294.132	1622.75
298.164	1610.08333
302.193	1552.75
306.219	1460.41667
310.241	1380.08333
314.26	1290.41667
318.276	1225.75
322.288	1208.08333
326.297	1147.08333
330.303	1125.75
334.305	1113.75
338.305	1098.08333
342.301	1098.08333
346.294	1082.75
350.283	1078.75
354.269	1074.41667
358.252	1062.41667
362.232	1069.08333
366.209	1066.41667
370.182	1063.75
374.152	1060.08333
378.119	1066.08333
382.083	1053.41667
386.043	1064.75
390	1049.41667
393.954	1048.41667
397.905	1060.08333
401.852	1056.75
405.797	1062.08333
409.738	1063.41667
413.676	1070.41667
417.61	1079.75
421.542	1054.41667
425.47	1043.41667
429.396	1038.08333
433.318	1018.08333
437.236	1028.41667
441.152	1043.41667
445.065	1022.75
448.974	1024.75
452.88	1009.75
456.783	1001.08333
460.683	993.41667
464.58	1018.08333
468.473	1024.08333
472.364	1028.41667
476.251	1010.41667
480.135	1013.08333
484.016	1033.41667
487.894	1036.08333
491.769	1035.41667
495.641	1029.41667
499.509	1040.41667
503.375	1037.75
507.237	1034.75
511.096	1018.41667
514.952	1038.75
518.805	1044.41667
522.655	1032.75
526.502	1025.75
530.346	1036.08333
534.187	1029.08333
538.024	1034.41667
541.859	1026.08333
545.69	1054.41667
549.519	1031.41667
553.344	1033.08333
557.166	1022.41667
560.985	1010.08333
564.802	1006.75
568.615	998.08333
572.425	978.41667
576.232	981.41667
580.036	972.75
583.836	990.75
587.634	990.41667
591.429	989.08333
595.221	1006.08333
599.01	1025.41667
602.796	1002.08333
606.578	1006.75
610.358	1012.41667
614.135	998.41667
617.909	1009.08333
621.679	1005.08333
625.447	983.08333
629.212	1003.41667
632.973	978.41667
636.732	981.41667
640.488	998.08333
644.241	979.41667
647.991	982.41667
651.737	998.75
655.481	962.75
659.222	988.75
662.96	970.41667
666.695	984.75
670.427	980.41667
674.156	981.08333
677.882	982.75
681.605	1003.41667
685.325	967.08333
689.043	991.08333
692.757	966.41667
696.468	979.08333
700.177	966.08333
703.882	963.75
707.585	957.75
711.284	966.75
714.981	943.41667
718.675	945.75
722.366	968.75
726.054	954.75
729.739	947.41667
733.421	956.75
737.1	946.41667
740.777	956.41667
744.45	959.41667
748.121	967.75
751.789	989.41667
755.453	964.75
759.115	976.41667
762.774	968.41667
766.431	964.75
770.084	986.75
773.734	983.41667
777.382	995.75
781.027	988.08333
784.669	996.08333
788.308	988.41667
791.944	1011.41667
795.577	1009.75
799.208	1021.75
802.835	1018.75
806.46	1021.08333
810.082	1022.41667
813.701	1020.75
817.317	1026.08333
820.931	1026.08333
824.542	1034.75
828.149	1012.08333
831.754	1008.75
835.357	997.08333
838.956	1017.41667
842.553	1006.75
846.146	996.08333
849.737	961.41667
853.326	990.08333
856.911	958.08333
860.493	995.41667
864.073	986.41667
867.65	1010.41667
871.225	1018.75
874.796	1008.41667
878.365	990.41667
881.931	1006.41667
885.494	1025.75
889.054	1000.75
892.612	1010.75
896.166	1006.08333
899.719	981.08333
903.268	971.41667
906.814	971.08333
910.358	967.75
913.899	942.08333
917.438	951.41667
920.973	931.75
924.506	962.75
928.036	969.41667
931.564	977.41667
935.088	1001.08333
938.61	964.41667
942.129	981.41667
945.646	997.08333
949.16	1011.08333
952.671	1019.08333
956.179	1028.41667
959.685	1022.75
963.188	1019.41667
966.688	1011.75
970.185	975.75
973.68	964.08333
977.173	948.08333
980.662	936.41667
984.149	955.08333
987.633	929.08333
991.114	950.41667
994.593	975.08333
998.069	963.75
1001.542	985.75
1005.013	984.08333
1008.481	926.41667
1011.947	906.08333
1015.409	908.41667
1018.869	922.08333
1022.327	922.08333
1025.782	903.75
1029.234	895.41667
1032.683	891.08333
1036.13	863.75
1039.574	831.75
1043.016	831.08333
1046.455	808.75
1049.891	793.08333
1053.325	823.08333
1056.756	804.08333
1060.184	828.41667
1063.61	808.08333
1067.033	819.75
1070.454	804.08333
1073.872	824.75
1077.287	806.41667
1080.7	807.08333
1084.11	812.41667
1087.517	801.75
1090.922	806.75
1094.325	786.08333
1097.724	792.08333
1101.122	785.41667
1104.516	786.75
1107.908	771.75
1111.298	785.75
1114.684	788.08333
1118.069	794.41667
1121.45	812.41667
1124.83	789.08333
1128.206	814.75
1131.58	820.75
1134.951	835.41667
1138.32	843.75
1141.687	868.08333
1145.05	889.08333
1148.412	876.41667
1151.77	884.08333
1155.126	879.08333
1158.48	867.08333
1161.831	876.08333
1165.18	881.08333
1168.525	882.75
1171.869	881.08333
1175.21	895.08333
1178.548	896.08333
1181.884	923.41667
1185.217	912.75
1188.548	934.08333
1191.877	945.41667
1195.202	986.75
1198.526	998.08333
1201.846	1004.08333
1205.165	1005.08333
1208.48	1001.75
1211.794	1004.08333
1215.104	1004.75
1218.413	999.41667
1221.719	984.08333
1225.022	980.41667
1228.323	959.75
1231.621	980.08333
1234.917	957.75
1238.21	962.41667
1241.501	957.41667
1244.79	941.08333
1248.076	929.08333
1251.359	957.08333
1254.64	1004.08333
1257.919	969.75
1261.195	981.75
1264.468	1002.75
1267.74	993.41667
1271.008	1011.41667
1274.275	1013.75
1277.538	1010.41667
1280.8	1004.75
1284.059	988.08333
1287.315	1000.08333
1290.569	996.08333
1293.821	1016.41667
1297.07	1018.08333
1300.317	1013.41667
1303.562	1021.08333
1306.803	1009.75
1310.043	998.08333
1313.28	997.08333
1316.515	993.41667
1319.747	1001.41667
1322.977	984.75
1326.204	974.41667
1329.429	955.75
1332.652	976.75
1335.872	958.41667
1339.09	936.08333
1342.306	954.08333
1345.519	937.08333
1348.729	932.08333
1351.938	933.41667
1355.144	915.41667
1358.347	905.75
1361.548	917.75
1364.747	917.75
1367.944	905.75
1371.138	889.08333
1374.329	904.75
1377.518	898.08333
1380.705	914.41667
1383.89	908.08333
1387.072	872.41667
1390.252	855.08333
1393.429	834.41667
1396.605	815.08333
1399.777	771.08333
1402.948	782.08333
1406.116	767.08333
1409.282	778.08333
1412.445	768.75
1415.606	780.41667
1418.765	780.75
1421.921	800.41667
1425.075	805.75
1428.227	823.75
1431.376	853.08333
1434.524	878.75
1437.668	896.41667
1440.811	915.41667
1443.951	904.08333
1447.089	922.08333
1450.224	901.75
1453.357	904.75
1456.488	902.41667
1459.617	906.08333
1462.743	891.41667
1465.867	842.75
1468.989	851.41667
1472.108	853.75
1475.225	823.75
1478.34	816.41667
1481.453	808.75
1484.563	812.08333
1487.671	808.75
1490.776	826.08333
1493.88	831.75
1496.981	849.08333
1500.08	850.41667
1503.176	850.41667
1506.271	861.08333
1509.363	885.08333
1512.452	861.75
1515.54	874.75
1518.625	886.41667
1521.708	923.41667
1524.789	951.08333
1527.867	958.41667
1530.944	1012.08333
1534.018	1030.08333
1537.089	1088.75
1540.159	1105.75
1543.226	1113.08333
1546.291	1074.08333
1549.354	1064.75
1552.415	1047.75
1555.473	1015.75
1558.529	1011.75
1561.583	995.75
1564.634	990.41667
1567.684	981.75
1570.731	981.75
1573.776	994.41667
1576.819	989.41667
1579.859	992.41667
1582.898	1009.08333
1585.934	1040.75
1588.968	1036.08333
1591.999	1017.08333
1595.029	1017.75
1598.056	1024.75
1601.081	1056.08333
1604.104	1046.41667
1607.125	1020.41667
1610.144	999.75
1613.16	975.41667
1616.174	958.75
1619.186	948.75
1622.196	920.41667
1625.203	898.08333
1628.209	894.75
1631.212	884.41667
1634.213	884.08333
1637.212	884.75
1640.209	888.75
1643.203	861.75
1646.196	833.08333
1649.186	799.08333
1652.174	792.75
1655.16	758.41667
1658.144	759.41667
1661.125	723.08333
1664.105	701.08333
1667.082	676.41667
1670.057	641.41667
1673.03	614.08333
1676.001	576.08333
1678.97	534.75
1681.937	521.08333
1684.901	498.41667
1687.863	491.75
1690.824	469.75
1693.782	477.08333
1696.738	436.75
1699.692	441.41667
1702.643	428.08333
1705.593	431.75
1708.54	428.41667
1711.486	439.08333
1714.429	411.08333
1717.37	416.08333
1720.309	405.08333
1723.246	409.75
1726.181	388.08333
1729.113	398.75
1732.044	403.75
1734.972	393.41667
1737.899	408.75
1740.823	401.75
1743.745	428.75
1746.665	380.75
1749.583	373.41667
1752.499	367.08333
1755.413	374.41667
1758.325	356.41667
1761.235	366.75
1764.142	355.41667
1767.048	354.75
1769.951	352.75
1772.852	360.41667
1775.752	357.75
1778.649	365.08333
1781.544	361.41667
1784.437	334.75
1787.328	344.75
1790.217	348.41667
1793.104	326.08333
1795.989	338.08333
1798.872	325.75
1801.753	344.08333
1804.631	335.75
1807.508	341.08333
1810.383	331.75
1813.255	325.08333
1816.126	329.41667
1818.994	334.08333
1821.861	319.08333
1824.725	333.08333
1827.587	328.75
1830.448	326.08333
1833.306	311.08333
1836.162	332.75
1839.017	312.75
1841.869	329.41667
1844.719	319.08333
1847.567	300.08333
1850.414	303.75
1853.258	292.41667
1856.1	319.75
1858.94	318.75
1861.778	305.08333
1864.614	297.75
1867.448	311.41667
1870.28	293.75
1873.111	317.08333
1875.939	300.75
1878.765	315.75
1881.589	298.08333
1884.411	305.08333
1887.231	313.41667
1890.049	303.41667
1892.865	310.75
1895.68	287.75
1898.492	303.08333
1901.302	299.08333
1904.11	293.08333
1906.916	297.08333
1909.721	291.75
1912.523	301.75
1915.323	285.75
1918.122	295.08333
1920.918	297.41667
1923.712	278.75
1926.505	286.75
1929.295	266.75
1932.084	286.41667
1934.87	289.41667
1937.655	281.75
1940.438	268.41667
1943.218	283.08333
1945.997	288.41667
1948.774	294.41667
1951.549	287.41667
1954.322	274.75
1957.093	274.08333
1959.862	274.75
1962.629	272.75
1965.394	273.41667
1968.157	267.75
1970.918	283.75
1973.678	262.41667
1976.435	281.41667
1979.19	272.41667
1981.944	257.75
1984.696	263.08333
1987.445	261.75
1990.193	268.75
1992.939	279.08333
1995.683	270.75
1998.425	251.75
2001.165	291.75
2003.903	247.08333
2006.639	254.08333
2009.374	262.41667
2012.106	266.41667
2014.837	238.08333
2017.566	266.08333
2020.292	261.41667
2023.017	253.75
2025.74	252.08333
2028.461	247.75
2031.18	255.41667
2033.898	237.75
2036.613	243.08333
2039.327	258.41667
2042.038	243.08333
2044.748	245.75
2047.456	258.08333
2050.162	235.41667
2052.866	243.08333
2055.568	260.41667
2058.268	234.08333
2060.967	253.75
2063.663	224.75
2066.358	235.75
2069.051	227.41667
2071.742	239.08333
2074.431	250.75
2077.118	242.41667
2079.804	231.08333
2082.487	240.41667
2085.169	250.75
2087.849	263.41667
2090.527	234.75
2093.203	241.08333
2095.877	242.41667
2098.55	243.41667
2101.22	251.08333
2103.889	255.41667
2106.556	238.41667
2109.221	253.41667
2111.884	241.41667
2114.546	268.41667
2117.205	272.75
2119.863	298.75
2122.519	286.41667
2125.173	304.41667
2127.825	340.08333
2130.475	332.08333
2133.124	317.08333
2135.771	300.41667
2138.416	325.75
2141.059	286.75
2143.7	287.75
2146.339	266.08333
2148.977	243.41667
2151.613	261.41667
2154.247	254.41667
2156.879	240.08333
2159.51	228.75
2162.138	229.41667
2164.765	229.75
2167.39	220.75
2170.013	247.08333
2172.634	234.08333
2175.254	226.75
2177.872	267.08333
2180.488	218.08333
2183.102	221.08333
2185.714	226.08333
2188.325	209.41667
2190.934	220.08333
2193.541	227.41667
2196.146	219.41667
2198.75	207.75
2201.351	206.41667
2203.951	198.75
2206.549	215.08333
2209.146	200.75
2211.74	199.08333
2214.333	214.08333
2216.924	195.08333
2219.514	203.75
2222.101	197.08333
2224.687	215.08333
2227.271	195.08333
2229.853	192.41667
2232.433	181.08333
2235.012	205.75
2237.589	197.75
2240.164	217.41667
2242.738	196.41667
2245.309	183.75
2247.879	207.08333
2250.448	201.08333
2253.014	189.08333
2255.579	176.75
2258.142	190.41667
2260.703	181.08333
2263.262	179.75
2265.82	181.08333
2268.376	199.75
2270.93	180.41667
2273.483	172.75
2276.033	193.08333
2278.583	175.41667
2281.13	183.75
2283.675	167.75
2286.219	168.41667
2288.761	184.41667
2291.302	190.41667
2293.841	192.08333
2296.377	169.41667
2298.913	178.41667
2301.446	188.75
2303.978	181.75
2306.508	176.75
2309.037	176.41667
2311.563	179.75
2314.088	178.41667
2316.612	162.08333
2319.133	177.75
2321.653	176.08333
2324.171	170.08333
2326.688	179.08333
2329.202	175.75
2331.715	176.08333
2334.227	177.41667
2336.736	175.75
2339.244	169.08333
2341.751	157.75
2344.255	179.75
2346.758	174.41667
2349.259	164.41667
2351.759	177.75
2354.257	161.41667
2356.753	157.08333
2359.247	152.41667
2361.74	164.08333
2364.231	165.41667
2366.721	173.41667
2369.209	164.08333
2371.695	163.08333
2374.179	153.75
2376.662	145.75
2379.143	172.75
2381.622	159.75
2384.1	164.75
2386.576	150.75
2389.051	167.41667
2391.524	162.75
2393.995	167.41667
2396.464	159.08333
2398.932	154.41667
2401.398	160.41667
2403.863	152.41667
2406.325	158.08333
2408.787	160.08333
2411.246	155.08333
2413.704	158.41667
2416.16	152.08333
2418.615	154.08333
2421.068	161.75
2423.519	151.75
2425.969	144.41667
2428.417	163.08333
2430.863	179.75
2433.308	160.41667
2435.751	153.75
2438.193	159.75
2440.633	153.41667
2443.071	158.75
2445.508	150.75
2447.943	151.75
2450.376	150.08333
2452.808	157.41667
2455.238	142.75
2457.667	176.08333
2460.093	143.75
2462.519	138.08333
2464.942	142.41667
2467.365	151.41667
2469.785	151.75
2472.204	141.75
2474.621	146.41667
2477.037	166.41667
2479.451	137.75
2481.863	139.41667
2484.274	142.75
2486.683	142.08333
2489.091	157.75
2491.497	148.08333
2493.901	145.41667
2496.304	146.08333
2498.705	150.41667
2501.105	145.75
2503.503	158.08333
2505.899	136.08333
2508.294	161.08333
2510.687	135.75
2513.079	140.75
2515.469	141.41667
2517.858	134.75
2520.245	155.41667
2522.63	138.41667
2525.014	144.08333
2527.396	137.75
2529.776	136.41667
2532.156	143.41667
2534.533	134.08333
2536.909	128.75
2539.283	123.41667
2541.656	131.41667
2544.027	151.08333
2546.397	141.08333
2548.765	141.08333
2551.131	135.75
2553.496	141.41667
2555.86	142.75
2558.221	144.41667
2560.582	130.41667
2562.94	131.08333
2565.298	136.41667
2567.653	141.41667
2570.007	122.08333
2572.36	143.08333
2574.711	128.75
2577.06	144.41667
2579.408	135.75
2581.754	131.75
2584.099	134.41667
2586.442	132.08333
2588.784	138.75
2591.124	130.75
2593.463	131.75
2595.8	135.08333
2598.135	123.08333
2600.469	124.08333
2602.802	140.08333
2605.133	139.41667
2607.462	123.08333
2609.79	120.08333
2612.116	140.08333
2614.441	130.75
2616.764	134.41667
2619.086	131.08333
2621.406	126.41667
2623.725	141.08333
2626.042	132.41667
2628.358	124.08333
2630.672	130.75
2632.985	140.08333
2635.296	136.75
2637.606	131.08333
2639.914	126.41667
2642.22	126.75
2644.525	129.08333
2646.829	127.41667
2649.131	142.08333
2651.432	135.08333
2653.731	121.41667
2656.028	141.41667
2658.324	137.75
2660.619	118.08333
2662.912	136.41667
2665.204	122.75
2667.494	136.41667
2669.782	120.08333
2672.07	139.75
2674.355	140.08333
2676.639	136.08333
2678.922	123.08333
2681.203	129.75
2683.483	128.75
2685.761	119.08333
2688.038	140.08333
2690.313	145.08333
2692.587	130.75
2694.859	129.08333
2697.13	133.75
2699.399	134.08333
2701.667	138.08333
2703.933	132.08333
2706.198	139.08333
2708.461	140.75
2710.723	140.41667
2712.984	133.41667
2715.243	143.75
2717.5	136.41667
2719.757	135.75
2722.011	133.75
2724.264	146.75
2726.516	153.08333
2728.766	126.08333
2731.015	136.08333
2733.262	136.41667
2735.508	136.41667
2737.753	141.75
2739.996	122.08333
2742.237	125.75
2744.477	138.41667
2746.716	153.75
2748.953	141.75
2751.189	141.08333
2753.423	133.75
2755.656	124.75
2757.887	124.75
2760.117	126.75
2762.346	123.08333
2764.573	113.75
2766.798	127.41667
2769.022	129.75
2771.245	123.08333
2773.467	127.08333
2775.686	119.75
2777.905	130.41667
2780.122	122.41667
2782.337	133.41667
2784.552	124.08333
2786.764	122.41667
2788.976	127.41667
2791.186	129.41667
2793.394	131.41667
2795.601	135.08333
2797.807	141.41667
2800.011	132.08333
2802.214	141.08333
2804.415	133.75
2806.615	134.75
2808.814	142.75
2811.011	143.08333
2813.206	135.08333
2815.401	152.41667
2817.594	148.41667
2819.785	149.41667
2821.975	140.08333
2824.164	147.75
2826.351	147.41667
2828.537	158.75
2830.722	153.08333
2832.905	146.75
2835.086	164.41667
2837.267	178.75
2839.445	173.75
2841.623	176.41667
2843.799	178.75
2845.974	183.75
2848.147	186.75
2850.319	196.75
2852.489	205.75
2854.659	203.41667
2856.826	205.75
2858.993	225.08333
2861.158	197.75
2863.321	205.41667
2865.483	223.08333
2867.644	223.75
2869.804	221.41667
2871.962	212.08333
2874.118	209.75
2876.274	215.08333
2878.428	219.75
2880.58	216.41667
2882.731	206.75
2884.881	208.75
2887.03	215.08333
2889.177	214.08333
2891.322	222.41667
2893.467	211.08333
2895.61	214.41667
2897.751	223.08333
2899.892	212.41667
2902.03	223.41667
2904.168	212.41667
2906.304	219.75
2908.439	239.08333
2910.572	211.75
2912.704	224.08333
2914.835	231.08333
2916.965	228.08333
2919.093	247.41667
2921.219	217.08333
2923.345	236.08333
2925.469	222.75
2927.591	220.08333
2929.712	205.75
2931.832	212.75
2933.951	213.75
2936.068	203.08333
2938.184	202.41667
2940.299	202.75
2942.412	194.08333
2944.524	181.08333
2946.634	189.75
2948.744	160.41667
2950.851	197.75
2952.958	166.75
2955.063	175.41667
2957.167	164.08333
2959.269	154.41667
2961.371	189.08333
2963.471	157.08333
2965.569	168.41667
2967.666	143.75
2969.762	144.75
2971.857	136.41667
2973.95	135.41667
2976.042	143.75
2978.133	133.75
2980.222	135.75
2982.31	126.41667
2984.396	107.75
2986.482	122.41667
2988.566	127.08333
2990.648	123.08333
2992.73	125.75
2994.81	112.41667
2996.889	121.08333
2998.966	121.08333
3001.042	131.75
3003.117	118.08333
3005.191	120.75
3007.263	128.75
3009.334	124.41667
3011.403	126.41667
3013.472	114.41667
3015.539	129.41667
3017.604	132.41667
3019.669	104.08333
3021.732	113.08333
3023.794	112.75
3025.854	103.41667
3027.914	101.41667
3029.971	105.41667
3032.028	113.08333
3034.083	113.75
3036.137	111.75
3038.19	94.41667
3040.242	93.08333
3042.292	92.08333
3044.341	99.41667
3046.388	117.75
3048.435	97.75
3050.48	113.75
3052.524	100.41667
3054.566	88.75
3056.607	95.75
3058.647	95.08333
3060.686	83.41667
3062.723	77.08333
3064.759	79.75
3066.794	-1.25
3068.828	1.41667
3070.86	2.41667
