-0.839	120.375
3.438	137.70833
7.711	58.375
11.981	39.04167
16.247	33.375
20.509	38.04167
24.768	32.70833
29.024	41.70833
33.276	27.70833
37.524	42.04167
41.769	28.375
46.01	26.375
50.247	42.375
54.481	46.375
58.712	55.04167
62.939	35.04167
67.162	51.04167
71.382	43.04167
75.599	34.04167
79.812	44.375
84.021	56.375
88.227	39.375
92.429	52.70833
96.628	32.70833
100.823	53.04167
105.015	48.70833
109.204	45.375
113.388	57.04167
117.57	41.70833
121.748	59.70833
125.922	47.04167
130.093	63.04167
134.261	60.70833
138.425	50.70833
142.585	81.04167
146.742	58.04167
150.896	73.375
155.046	67.70833
159.193	103.04167
163.336	147.375
167.476	245.70833
171.613	445.375
175.746	705.70833
179.875	1021.375
184.002	1332.70833
188.124	1562.375
192.244	1624.04167
196.36	1641.70833
200.472	1625.375
204.581	1603.375
208.687	1548.04167
212.79	1543.375
216.889	1553.375
220.984	1591.70833
225.077	1587.375
229.165	1594.70833
233.251	1576.04167
237.333	1587.04167
241.412	1558.70833
245.487	1547.375
249.559	1520.375
253.628	1534.04167
257.694	1510.375
261.756	1514.04167
265.814	1474.04167
269.87	1449.70833
273.922	1409.04167
277.97	1388.04167
282.016	1412.04167
286.058	1376.70833
290.097	1413.70833
294.132	1423.70833
298.164	1396.70833
302.193	1357.04167
306.219	1289.375
310.241	1218.04167
314.26	1141.04167
318.276	1079.375
322.288	1064.70833
326.297	1018.70833
330.303	1012.375
334.305	996.70833
338.305	965.04167
342.301	971.70833
346.294	984.375
350.283	961.375
354.269	951.375
358.252	941.70833
362.232	949.04167
366.209	955.375
370.182	944.04167
374.152	946.70833
378.119	928.04167
382.083	940.375
386.043	954.70833
390	934.70833
393.954	949.04167
397.905	945.375
401.852	958.04167
405.797	944.04167
409.738	933.04167
413.676	965.375
417.61	962.04167
421.542	950.70833
425.47	910.04167
429.396	931.04167
433.318	916.375
437.236	911.375
441.152	956.375
445.065	896.70833
448.974	906.70833
452.88	895.70833
456.783	888.04167
460.683	890.04167
464.58	899.375
468.473	914.375
472.364	914.375
476.251	904.04167
480.135	907.70833
484.016	925.70833
487.894	930.04167
491.769	923.375
495.641	925.70833
499.509	924.04167
503.375	929.70833
507.237	923.375
511.096	922.375
514.952	915.375
518.805	914.04167
522.655	902.70833
526.502	909.375
530.346	919.04167
534.187	928.70833
538.024	911.04167
541.859	913.375
545.69	933.70833
549.519	930.04167
553.344	918.375
557.166	904.04167
560.985	880.375
564.802	895.70833
568.615	892.375
572.425	873.70833
576.232	876.04167
580.036	875.70833
583.836	873.04167
587.634	887.375
591.429	879.375
595.221	911.375
599.01	900.375
602.796	910.04167
606.578	898.70833
610.358	900.04167
614.135	881.70833
617.909	893.375
621.679	905.375
625.447	878.375
629.212	876.04167
632.973	880.70833
636.732	887.375
640.488	885.70833
644.241	879.70833
647.991	873.04167
651.737	889.70833
655.481	851.375
659.222	850.70833
662.96	867.04167
666.695	865.04167
670.427	880.04167
674.156	869.375
677.882	875.04167
681.605	886.70833
685.325	862.375
689.043	879.70833
692.757	865.70833
696.468	876.375
700.177	862.04167
703.882	853.375
707.585	847.70833
711.284	858.04167
714.981	841.70833
718.675	837.04167
722.366	867.70833
726.054	838.375
729.739	840.375
733.421	850.375
737.1	833.375
740.777	859.70833
744.45	850.70833
748.121	862.70833
751.789	882.375
755.453	861.04167
759.115	863.375
762.774	857.375
766.431	857.70833
770.084	881.70833
773.734	878.04167
777.382	884.04167
781.027	877.04167
784.669	879.70833
788.308	877.04167
791.944	899.375
795.577	902.375
799.208	891.70833
802.835	906.04167
806.46	904.375
810.082	907.70833
813.701	900.70833
817.317	907.04167
820.931	905.04167
824.542	908.375
828.149	889.70833
831.754	884.70833
835.357	894.70833
838.956	901.375
842.553	899.70833
846.146	884.04167
849.737	851.70833
853.326	886.04167
856.911	867.70833
860.493	881.375
864.073	884.70833
867.65	905.04167
871.225	911.375
874.796	901.375
878.365	875.70833
881.931	902.375
885.494	908.04167
889.054	896.375
892.612	905.04167
896.166	898.375
899.719	873.375
903.268	855.375
906.814	863.70833
910.358	857.04167
913.899	838.375
917.438	848.70833
920.973	822.04167
924.506	844.04167
928.036	843.70833
931.564	856.375
935.088	887.375
938.61	861.375
942.129	851.375
945.646	868.04167
949.16	886.04167
952.671	890.375
956.179	904.70833
959.685	881.375
963.188	899.70833
966.688	888.04167
970.185	850.375
973.68	842.375
977.173	837.70833
980.662	830.70833
984.149	843.70833
987.633	809.375
991.114	834.375
994.593	850.375
998.069	849.70833
1001.542	872.04167
1005.013	880.375
1008.481	810.375
1011.947	807.375
1015.409	809.04167
1018.869	810.04167
1022.327	820.04167
1025.782	798.04167
1029.234	783.70833
1032.683	779.70833
1036.13	759.70833
1039.574	743.70833
1043.016	733.375
1046.455	714.04167
1049.891	706.70833
1053.325	723.70833
1056.756	712.70833
1060.184	709.70833
1063.61	702.375
1067.033	708.04167
1070.454	710.04167
1073.872	724.70833
1077.287	696.375
1080.7	711.375
1084.11	715.04167
1087.517	711.04167
1090.922	707.04167
1094.325	679.04167
1097.724	692.375
1101.122	688.04167
1104.516	677.70833
1107.908	667.04167
1111.298	689.70833
1114.684	679.04167
1118.069	678.04167
1121.45	702.375
1124.83	688.375
1128.206	700.70833
1131.58	703.04167
1134.951	708.70833
1138.32	729.04167
1141.687	744.70833
1145.05	776.375
1148.412	760.70833
1151.77	758.04167
1155.126	750.375
1158.48	756.70833
1161.831	752.70833
1165.18	757.70833
1168.525	768.70833
1171.869	771.375
1175.21	775.375
1178.548	787.04167
1181.884	800.04167
1185.217	793.70833
1188.548	815.375
1191.877	817.70833
1195.202	848.04167
1198.526	873.70833
1201.846	863.375
1205.165	864.375
1208.48	883.70833
1211.794	881.70833
1215.104	874.04167
1218.413	866.04167
1221.719	869.70833
1225.022	841.04167
1228.323	832.375
1231.621	842.375
1234.917	840.375
1238.21	856.70833
1241.501	832.70833
1244.79	816.375
1248.076	815.70833
1251.359	828.375
1254.64	860.70833
1257.919	850.375
1261.195	861.70833
1264.468	864.375
1267.74	874.70833
1271.008	874.70833
1274.275	876.04167
1277.538	867.375
1280.8	867.70833
1284.059	872.70833
1287.315	881.70833
1290.569	876.04167
1293.821	891.375
1297.07	891.70833
1300.317	884.04167
1303.562	888.375
1306.803	879.04167
1310.043	888.70833
1313.28	872.70833
1316.515	862.70833
1319.747	874.70833
1322.977	849.375
1326.204	851.70833
1329.429	846.04167
1332.652	850.04167
1335.872	843.04167
1339.09	823.375
1342.306	829.70833
1345.519	824.70833
1348.729	819.04167
1351.938	809.04167
1355.144	795.04167
1358.347	807.04167
1361.548	801.375
1364.747	817.375
1367.944	782.70833
1371.138	787.70833
1374.329	796.04167
1377.518	795.04167
1380.705	791.375
1383.89	797.04167
1387.072	786.70833
1390.252	757.04167
1393.429	737.04167
1396.605	718.04167
1399.777	692.04167
1402.948	699.375
1406.116	692.375
1409.282	683.04167
1412.445	680.70833
1415.606	685.04167
1418.765	693.375
1421.921	698.70833
1425.075	712.70833
1428.227	720.70833
1431.376	750.04167
1434.524	771.375
1437.668	796.375
1440.811	798.70833
1443.951	790.04167
1447.089	804.375
1450.224	800.375
1453.357	793.70833
1456.488	788.375
1459.617	780.04167
1462.743	779.375
1465.867	744.375
1468.989	756.70833
1472.108	739.375
1475.225	717.375
1478.34	700.70833
1481.453	707.04167
1484.563	694.375
1487.671	712.70833
1490.776	719.375
1493.88	729.375
1496.981	740.70833
1500.08	739.70833
1503.176	740.375
1506.271	748.04167
1509.363	766.04167
1512.452	761.70833
1515.54	767.04167
1518.625	774.375
1521.708	802.375
1524.789	826.04167
1527.867	848.375
1530.944	878.375
1534.018	907.70833
1537.089	956.375
1540.159	961.375
1543.226	981.70833
1546.291	962.70833
1549.354	932.375
1552.415	918.70833
1555.473	894.04167
1558.529	885.04167
1561.583	874.375
1564.634	860.70833
1567.684	853.04167
1570.731	867.04167
1573.776	867.375
1576.819	874.375
1579.859	856.04167
1582.898	873.375
1585.934	889.70833
1588.968	910.04167
1591.999	878.70833
1595.029	881.70833
1598.056	882.375
1601.081	903.70833
1604.104	900.04167
1607.125	896.375
1610.144	877.375
1613.16	853.04167
1616.174	832.375
1619.186	824.04167
1622.196	805.70833
1625.203	773.04167
1628.209	774.375
1631.212	765.70833
1634.213	764.04167
1637.212	757.04167
1640.209	753.70833
1643.203	722.375
1646.196	722.375
1649.186	698.70833
1652.174	690.04167
1655.16	668.04167
1658.144	674.375
1661.125	637.70833
1664.105	620.375
1667.082	604.375
1670.057	560.375
1673.03	533.375
1676.001	505.70833
1678.97	477.04167
1681.937	460.70833
1684.901	438.04167
1687.863	439.70833
1690.824	405.70833
1693.782	421.04167
1696.738	391.70833
1699.692	387.04167
1702.643	372.04167
1705.593	377.375
1708.54	374.70833
1711.486	392.70833
1714.429	362.04167
1717.37	363.70833
1720.309	356.375
1723.246	361.70833
1726.181	348.70833
1729.113	350.70833
1732.044	348.70833
1734.972	352.04167
1737.899	360.04167
1740.823	352.375
1743.745	381.04167
1746.665	333.375
1749.583	325.375
1752.499	331.70833
1755.413	326.375
1758.325	312.375
1761.235	319.375
1764.142	322.04167
1767.048	307.70833
1769.951	302.375
1772.852	304.375
1775.752	322.70833
1778.649	321.04167
1781.544	324.375
1784.437	295.375
1787.328	308.375
1790.217	312.375
1793.104	289.375
1795.989	289.70833
1798.872	283.70833
1801.753	308.375
1804.631	293.04167
1807.508	299.375
1810.383	293.70833
1813.255	301.375
1816.126	290.70833
1818.994	288.375
1821.861	289.70833
1824.725	287.70833
1827.587	294.375
1830.448	290.375
1833.306	274.375
1836.162	296.70833
1839.017	278.375
1841.869	285.04167
1844.719	289.70833
1847.567	268.70833
1850.414	266.70833
1853.258	273.375
1856.1	281.375
1858.94	291.04167
1861.778	274.375
1864.614	264.04167
1867.448	271.70833
1870.28	260.04167
1873.111	281.375
1875.939	266.375
1878.765	278.04167
1881.589	269.375
1884.411	272.70833
1887.231	275.04167
1890.049	265.70833
1892.865	278.70833
1895.68	262.04167
1898.492	271.04167
1901.302	260.70833
1904.11	260.70833
1906.916	258.375
1909.721	258.04167
1912.523	270.70833
1915.323	249.04167
1918.122	255.375
1920.918	261.70833
1923.712	250.70833
1926.505	260.375
1929.295	243.04167
1932.084	253.375
1934.87	248.70833
1937.655	248.70833
1940.438	246.04167
1943.218	250.70833
1945.997	248.375
1948.774	255.70833
1951.549	260.04167
1954.322	243.70833
1957.093	254.70833
1959.862	243.04167
1962.629	243.04167
1965.394	235.375
1968.157	233.70833
1970.918	252.375
1973.678	234.375
1976.435	249.04167
1979.19	237.70833
1981.944	232.375
1984.696	234.70833
1987.445	232.70833
1990.193	234.70833
1992.939	234.375
1995.683	233.375
1998.425	221.70833
2001.165	251.04167
2003.903	224.04167
2006.639	234.70833
2009.374	236.70833
2012.106	231.375
2014.837	212.70833
2017.566	236.04167
2020.292	225.70833
2023.017	218.70833
2025.74	220.375
2028.461	217.70833
2031.18	221.70833
2033.898	218.375
2036.613	220.70833
2039.327	221.70833
2042.038	220.04167
2044.748	217.70833
2047.456	230.04167
2050.162	211.04167
2052.866	212.70833
2055.568	232.70833
2058.268	210.375
2060.967	224.375
2063.663	202.70833
2066.358	209.375
2069.051	210.375
2071.742	218.04167
2074.431	223.04167
2077.118	213.375
2079.804	198.375
2082.487	215.04167
2085.169	223.70833
2087.849	237.04167
2090.527	217.04167
2093.203	216.04167
2095.877	224.04167
2098.55	216.375
2101.22	225.04167
2103.889	224.70833
2106.556	211.04167
2109.221	227.04167
2111.884	222.70833
2114.546	243.70833
2117.205	249.04167
2119.863	275.04167
2122.519	277.04167
2125.173	295.375
2127.825	329.70833
2130.475	326.04167
2133.124	297.70833
2135.771	294.70833
2138.416	302.375
2141.059	267.375
2143.7	270.375
2146.339	243.375
2148.977	220.04167
2151.613	239.70833
2154.247	226.375
2156.879	220.70833
2159.51	212.375
2162.138	212.70833
2164.765	211.04167
2167.39	197.70833
2170.013	223.375
2172.634	215.04167
2175.254	200.70833
2177.872	242.04167
2180.488	193.375
2183.102	197.04167
2185.714	201.04167
2188.325	191.04167
2190.934	196.70833
2193.541	202.04167
2196.146	195.70833
2198.75	182.70833
2201.351	182.04167
2203.951	175.04167
2206.549	192.04167
2209.146	176.04167
2211.74	179.70833
2214.333	188.04167
2216.924	169.04167
2219.514	179.375
2222.101	174.70833
2224.687	197.04167
2227.271	165.70833
2229.853	173.70833
2232.433	151.04167
2235.012	182.70833
2237.589	178.70833
2240.164	186.375
2242.738	172.70833
2245.309	165.375
2247.879	184.04167
2250.448	181.70833
2253.014	163.70833
2255.579	159.04167
2258.142	165.70833
2260.703	162.04167
2263.262	161.70833
2265.82	150.375
2268.376	169.70833
2270.93	161.04167
2273.483	151.375
2276.033	169.375
2278.583	157.375
2281.13	157.375
2283.675	147.70833
2286.219	159.375
2288.761	162.375
2291.302	167.375
2293.841	167.70833
2296.377	149.70833
2298.913	156.375
2301.446	171.04167
2303.978	159.70833
2306.508	158.375
2309.037	154.375
2311.563	153.04167
2314.088	157.04167
2316.612	144.04167
2319.133	160.70833
2321.653	162.70833
2324.171	142.70833
2326.688	161.04167
2329.202	151.375
2331.715	160.375
2334.227	152.70833
2336.736	150.70833
2339.244	147.375
2341.751	135.70833
2344.255	158.375
2346.758	149.70833
2349.259	143.04167
2351.759	152.70833
2354.257	138.04167
2356.753	140.375
2359.247	140.375
2361.74	144.70833
2364.231	144.375
2366.721	146.70833
2369.209	140.70833
2371.695	138.70833
2374.179	137.375
2376.662	126.375
2379.143	153.375
2381.622	138.70833
2384.1	149.04167
2386.576	137.70833
2389.051	151.375
2391.524	154.04167
2393.995	149.04167
2396.464	140.04167
2398.932	135.70833
2401.398	136.375
2403.863	134.70833
2406.325	138.04167
2408.787	144.70833
2411.246	132.70833
2413.704	135.04167
2416.16	133.375
2418.615	135.70833
2421.068	143.04167
2423.519	131.70833
2425.969	131.04167
2428.417	146.04167
2430.863	155.375
2433.308	144.375
2435.751	134.375
2438.193	137.375
2440.633	141.375
2443.071	143.70833
2445.508	134.70833
2447.943	129.70833
2450.376	127.375
2452.808	140.04167
2455.238	124.70833
2457.667	157.70833
2460.093	124.70833
2462.519	120.375
2464.942	122.375
2467.365	133.04167
2469.785	138.375
2472.204	128.70833
2474.621	121.375
2477.037	143.70833
2479.451	116.70833
2481.863	114.70833
2484.274	124.04167
2486.683	127.375
2489.091	143.04167
2491.497	129.70833
2493.901	133.04167
2496.304	123.375
2498.705	132.375
2501.105	125.375
2503.503	147.04167
2505.899	125.70833
2508.294	143.375
2510.687	118.375
2513.079	124.70833
2515.469	117.04167
2517.858	118.70833
2520.245	132.04167
2522.63	118.04167
2525.014	125.70833
2527.396	110.70833
2529.776	117.04167
2532.156	122.04167
2534.533	114.04167
2536.909	115.70833
2539.283	99.375
2541.656	114.375
2544.027	137.04167
2546.397	121.04167
2548.765	120.04167
2551.131	118.70833
2553.496	122.375
2555.86	123.70833
2558.221	128.04167
2560.582	117.04167
2562.94	107.04167
2565.298	120.375
2567.653	132.375
2570.007	107.375
2572.36	121.375
2574.711	108.70833
2577.06	132.04167
2579.408	119.04167
2581.754	112.70833
2584.099	111.70833
2586.442	114.04167
2588.784	124.04167
2591.124	113.70833
2593.463	110.04167
2595.8	118.04167
2598.135	102.375
2600.469	101.70833
2602.802	125.70833
2605.133	117.375
2607.462	106.70833
2609.79	100.375
2612.116	120.70833
2614.441	114.375
2616.764	115.04167
2619.086	115.04167
2621.406	104.375
2623.725	122.04167
2626.042	111.375
2628.358	100.70833
2630.672	114.04167
2632.985	123.04167
2635.296	108.04167
2637.606	114.70833
2639.914	109.04167
2642.22	111.70833
2644.525	114.04167
2646.829	112.04167
2649.131	129.04167
2651.432	117.04167
2653.731	109.04167
2656.028	120.70833
2658.324	113.375
2660.619	103.375
2662.912	121.375
2665.204	99.375
2667.494	115.04167
2669.782	103.70833
2672.07	119.04167
2674.355	118.70833
2676.639	114.375
2678.922	103.70833
2681.203	113.04167
2683.483	106.04167
2685.761	100.70833
2688.038	119.70833
2690.313	121.04167
2692.587	112.04167
2694.859	104.70833
2697.13	110.375
2699.399	111.375
2701.667	118.04167
2703.933	116.70833
2706.198	122.70833
2708.461	122.04167
2710.723	121.04167
2712.984	114.375
2715.243	120.70833
2717.5	115.70833
2719.757	118.375
2722.011	110.375
2724.264	122.70833
2726.516	127.70833
2728.766	111.375
2731.015	113.04167
2733.262	119.04167
2735.508	116.70833
2737.753	119.70833
2739.996	101.70833
2742.237	105.70833
2744.477	120.04167
2746.716	127.70833
2748.953	122.375
2751.189	127.375
2753.423	122.375
2755.656	110.70833
2757.887	109.04167
2760.117	108.70833
2762.346	107.04167
2764.573	96.375
2766.798	102.70833
2769.022	104.04167
2771.245	99.70833
2773.467	108.04167
2775.686	102.70833
2777.905	113.70833
2780.122	105.70833
2782.337	113.70833
2784.552	103.70833
2786.764	108.04167
2788.976	103.70833
2791.186	109.04167
2793.394	100.70833
2795.601	122.04167
2797.807	121.70833
2800.011	112.70833
2802.214	118.375
2804.415	115.375
2806.615	115.375
2808.814	115.375
2811.011	124.04167
2813.206	117.375
2815.401	133.70833
2817.594	127.04167
2819.785	136.70833
2821.975	119.04167
2824.164	118.04167
2826.351	125.04167
2828.537	135.04167
2830.722	132.04167
2832.905	132.375
2835.086	134.04167
2837.267	154.70833
2839.445	146.70833
2841.623	149.70833
2843.799	144.375
2845.974	150.04167
2848.147	155.375
2850.319	167.04167
2852.489	176.70833
2854.659	177.04167
2856.826	170.04167
2858.993	192.375
2861.158	172.375
2863.321	173.70833
2865.483	187.04167
2867.644	180.375
2869.804	188.04167
2871.962	178.375
2874.118	181.04167
2876.274	187.70833
2878.428	178.375
2880.58	192.375
2882.731	177.375
2884.881	188.04167
2887.03	190.70833
2889.177	183.04167
2891.322	188.375
2893.467	177.70833
2895.61	173.375
2897.751	191.70833
2899.892	182.04167
2902.03	188.375
2904.168	180.375
2906.304	184.04167
2908.439	198.70833
2910.572	182.375
2912.704	187.70833
2914.835	192.70833
2916.965	190.04167
2919.093	204.375
2921.219	179.375
2923.345	203.70833
2925.469	189.375
2927.591	183.375
2929.712	168.375
2931.832	178.375
2933.951	177.70833
2936.068	170.04167
2938.184	173.375
2940.299	167.04167
2942.412	161.375
2944.524	144.04167
2946.634	155.70833
2948.744	133.70833
2950.851	171.04167
2952.958	138.04167
2955.063	145.70833
2957.167	135.70833
2959.269	126.375
2961.371	153.375
2963.471	125.70833
2965.569	145.04167
2967.666	117.375
2969.762	115.70833
2971.857	115.70833
2973.95	104.70833
2976.042	119.375
2978.133	111.04167
2980.222	114.04167
2982.31	105.375
2984.396	84.70833
2986.482	92.70833
2988.566	99.70833
2990.648	101.04167
2992.73	97.04167
2994.81	87.375
2996.889	102.375
2998.966	93.70833
3001.042	109.70833
3003.117	90.04167
3005.191	97.375
3007.263	106.04167
3009.334	92.04167
3011.403	99.375
3013.472	87.70833
3015.539	110.375
3017.604	114.04167
3019.669	81.70833
3021.732	90.04167
3023.794	88.70833
3025.854	83.70833
3027.914	81.04167
3029.971	80.04167
3032.028	86.375
3034.083	92.70833
3036.137	89.70833
3038.19	76.375
3040.242	72.70833
3042.292	71.70833
3044.341	77.70833
3046.388	89.70833
3048.435	72.70833
3050.48	91.04167
3052.524	82.04167
3054.566	62.70833
3056.607	76.375
3058.647	70.70833
3060.686	60.375
3062.723	60.375
3064.759	62.375
3066.794	0.70833
3068.828	0.04167
3070.86	4.70833
