-0.839	121.79167
3.438	135.45833
7.711	62.125
11.981	40.45833
16.247	31.45833
20.509	40.125
24.768	34.45833
29.024	41.45833
33.276	33.125
37.524	40.45833
41.769	28.45833
46.01	23.125
50.247	42.79167
54.481	51.79167
58.712	52.79167
62.939	37.45833
67.162	50.79167
71.382	43.79167
75.599	36.45833
79.812	45.125
84.021	63.79167
88.227	42.45833
92.429	47.79167
96.628	36.79167
100.823	50.45833
105.015	51.45833
109.204	41.125
113.388	58.125
117.57	40.79167
121.748	58.79167
125.922	48.45833
130.093	68.125
134.261	64.79167
138.425	52.125
142.585	79.79167
146.742	61.45833
150.896	77.125
155.046	71.45833
159.193	110.45833
163.336	155.45833
167.476	270.125
171.613	488.45833
175.746	776.45833
179.875	1125.125
184.002	1475.79167
188.124	1733.45833
192.244	1816.125
196.36	1808.79167
200.472	1797.79167
204.581	1781.79167
208.687	1737.125
212.79	1701.79167
216.889	1738.125
220.984	1747.125
225.077	1774.125
229.165	1755.79167
233.251	1757.125
237.333	1767.125
241.412	1749.79167
245.487	1730.79167
249.559	1710.45833
253.628	1705.45833
257.694	1699.125
261.756	1695.79167
265.814	1655.45833
269.87	1617.125
273.922	1582.125
277.97	1579.125
282.016	1571.125
286.058	1559.79167
290.097	1597.45833
294.132	1610.79167
298.164	1606.79167
302.193	1529.79167
306.219	1475.125
310.241	1383.125
314.26	1316.45833
318.276	1246.79167
322.288	1251.125
326.297	1195.45833
330.303	1176.45833
334.305	1174.125
338.305	1155.125
342.301	1155.79167
346.294	1156.79167
350.283	1138.79167
354.269	1129.45833
358.252	1141.79167
362.232	1132.125
366.209	1129.79167
370.182	1121.79167
374.152	1130.125
378.119	1126.79167
382.083	1121.125
386.043	1155.79167
390	1128.45833
393.954	1144.79167
397.905	1145.45833
401.852	1154.45833
405.797	1140.79167
409.738	1126.79167
413.676	1150.45833
417.61	1157.45833
421.542	1148.125
425.47	1125.79167
429.396	1111.45833
433.318	1105.45833
437.236	1114.79167
441.152	1148.79167
445.065	1106.45833
448.974	1118.79167
452.88	1119.125
456.783	1112.125
460.683	1096.125
464.58	1105.125
468.473	1126.79167
472.364	1129.79167
476.251	1101.45833
480.135	1113.45833
484.016	1129.45833
487.894	1131.79167
491.769	1147.125
495.641	1131.45833
499.509	1145.79167
503.375	1119.45833
507.237	1129.79167
511.096	1124.125
514.952	1119.79167
518.805	1128.45833
522.655	1130.125
526.502	1118.45833
530.346	1107.125
534.187	1131.45833
538.024	1132.125
541.859	1120.125
545.69	1148.79167
549.519	1136.125
553.344	1129.79167
557.166	1112.79167
560.985	1101.79167
564.802	1113.125
568.615	1101.79167
572.425	1081.79167
576.232	1084.125
580.036	1076.125
583.836	1093.45833
587.634	1095.125
591.429	1084.45833
595.221	1113.125
599.01	1106.45833
602.796	1107.45833
606.578	1097.79167
610.358	1108.79167
614.135	1101.45833
617.909	1113.45833
621.679	1097.79167
625.447	1087.125
629.212	1090.125
632.973	1091.79167
636.732	1080.79167
640.488	1083.125
644.241	1077.125
647.991	1067.125
651.737	1085.79167
655.481	1057.45833
659.222	1070.45833
662.96	1055.45833
666.695	1077.45833
670.427	1080.125
674.156	1094.45833
677.882	1090.45833
681.605	1081.79167
685.325	1063.79167
689.043	1095.79167
692.757	1069.125
696.468	1073.79167
700.177	1060.79167
703.882	1045.45833
707.585	1043.125
711.284	1037.125
714.981	1030.79167
718.675	1044.79167
722.366	1048.45833
726.054	1043.45833
729.739	1040.125
733.421	1043.125
737.1	1026.79167
740.777	1036.45833
744.45	1029.45833
748.121	1046.45833
751.789	1068.125
755.453	1070.79167
759.115	1037.45833
762.774	1041.79167
766.431	1057.45833
770.084	1053.79167
773.734	1052.79167
777.382	1075.45833
781.027	1079.79167
784.669	1058.79167
788.308	1056.79167
791.944	1076.79167
795.577	1082.45833
799.208	1090.79167
802.835	1074.125
806.46	1087.125
810.082	1079.79167
813.701	1083.125
817.317	1089.45833
820.931	1100.45833
824.542	1093.45833
828.149	1096.45833
831.754	1067.45833
835.357	1055.45833
838.956	1069.125
842.553	1060.79167
846.146	1053.79167
849.737	1026.125
853.326	1042.45833
856.911	1018.79167
860.493	1048.79167
864.073	1048.45833
867.65	1068.125
871.225	1091.79167
874.796	1064.125
878.365	1048.79167
881.931	1067.125
885.494	1073.79167
889.054	1065.79167
892.612	1074.125
896.166	1052.125
899.719	1020.125
903.268	1014.79167
906.814	1021.45833
910.358	1003.79167
913.899	1013.125
917.438	993.45833
920.973	977.45833
924.506	997.125
928.036	1008.45833
931.564	1015.79167
935.088	1034.45833
938.61	1033.125
942.129	1020.79167
945.646	1037.125
949.16	1045.79167
952.671	1038.45833
956.179	1062.45833
959.685	1055.79167
963.188	1055.79167
966.688	1046.79167
970.185	1022.45833
973.68	994.79167
977.173	979.45833
980.662	981.125
984.149	981.125
987.633	962.125
991.114	989.79167
994.593	991.125
998.069	1007.79167
1001.542	1016.125
1005.013	1018.125
1008.481	963.79167
1011.947	965.125
1015.409	938.79167
1018.869	951.125
1022.327	944.45833
1025.782	929.125
1029.234	920.79167
1032.683	908.45833
1036.13	885.125
1039.574	866.45833
1043.016	859.45833
1046.455	843.79167
1049.891	847.45833
1053.325	848.45833
1056.756	840.125
1060.184	834.125
1063.61	831.45833
1067.033	846.125
1070.454	836.45833
1073.872	864.125
1077.287	826.79167
1080.7	840.45833
1084.11	836.79167
1087.517	831.45833
1090.922	825.45833
1094.325	814.79167
1097.724	801.79167
1101.122	799.125
1104.516	808.125
1107.908	783.45833
1111.298	805.79167
1114.684	810.79167
1118.069	799.45833
1121.45	815.125
1124.83	805.79167
1128.206	819.79167
1131.58	825.79167
1134.951	840.45833
1138.32	853.45833
1141.687	896.45833
1145.05	883.79167
1148.412	884.45833
1151.77	892.125
1155.126	872.79167
1158.48	867.79167
1161.831	874.125
1165.18	874.125
1168.525	890.45833
1171.869	896.79167
1175.21	896.79167
1178.548	900.125
1181.884	903.79167
1185.217	906.125
1188.548	938.45833
1191.877	925.45833
1195.202	981.79167
1198.526	995.45833
1201.846	986.79167
1205.165	988.125
1208.48	1007.45833
1211.794	995.45833
1215.104	996.125
1218.413	981.125
1221.719	981.125
1225.022	967.125
1228.323	952.125
1231.621	957.125
1234.917	960.125
1238.21	975.125
1241.501	939.125
1244.79	944.79167
1248.076	923.45833
1251.359	944.125
1254.64	983.79167
1257.919	963.45833
1261.195	970.45833
1264.468	977.125
1267.74	994.79167
1271.008	998.125
1274.275	1006.79167
1277.538	987.125
1280.8	990.125
1284.059	989.79167
1287.315	979.79167
1290.569	984.79167
1293.821	999.45833
1297.07	988.45833
1300.317	992.125
1303.562	1005.125
1306.803	992.125
1310.043	972.45833
1313.28	979.45833
1316.515	963.45833
1319.747	972.79167
1322.977	964.45833
1326.204	949.125
1329.429	953.45833
1332.652	951.125
1335.872	951.79167
1339.09	932.125
1342.306	932.125
1345.519	931.79167
1348.729	912.45833
1351.938	931.79167
1355.144	913.125
1358.347	907.125
1361.548	905.45833
1364.747	917.45833
1367.944	883.45833
1371.138	896.79167
1374.329	897.125
1377.518	897.79167
1380.705	906.45833
1383.89	910.125
1387.072	863.79167
1390.252	853.45833
1393.429	838.45833
1396.605	813.79167
1399.777	781.125
1402.948	784.79167
1406.116	769.125
1409.282	777.125
1412.445	772.125
1415.606	789.45833
1418.765	770.45833
1421.921	799.45833
1425.075	804.79167
1428.227	820.45833
1431.376	839.79167
1434.524	864.45833
1437.668	880.125
1440.811	883.79167
1443.951	880.125
1447.089	890.125
1450.224	886.125
1453.357	878.125
1456.488	876.45833
1459.617	866.45833
1462.743	851.45833
1465.867	835.79167
1468.989	839.125
1472.108	822.45833
1475.225	814.125
1478.34	801.79167
1481.453	793.125
1484.563	793.45833
1487.671	806.79167
1490.776	815.45833
1493.88	816.79167
1496.981	821.45833
1500.08	847.45833
1503.176	821.125
1506.271	830.45833
1509.363	866.45833
1512.452	853.45833
1515.54	851.125
1518.625	875.79167
1521.708	903.125
1524.789	919.79167
1527.867	942.79167
1530.944	973.45833
1534.018	995.79167
1537.089	1042.125
1540.159	1051.45833
1543.226	1057.125
1546.291	1037.79167
1549.354	1019.79167
1552.415	1001.45833
1555.473	983.79167
1558.529	965.79167
1561.583	949.79167
1564.634	949.79167
1567.684	951.125
1570.731	934.125
1573.776	946.45833
1576.819	969.125
1579.859	966.79167
1582.898	974.45833
1585.934	980.45833
1588.968	991.45833
1591.999	972.45833
1595.029	973.125
1598.056	987.45833
1601.081	1000.125
1604.104	996.125
1607.125	977.125
1610.144	962.125
1613.16	932.79167
1616.174	920.125
1619.186	912.45833
1622.196	880.125
1625.203	857.45833
1628.209	872.79167
1631.212	849.79167
1634.213	862.45833
1637.212	854.125
1640.209	847.125
1643.203	826.125
1646.196	811.79167
1649.186	794.125
1652.174	780.125
1655.16	744.125
1658.144	742.45833
1661.125	706.45833
1664.105	681.125
1667.082	661.79167
1670.057	622.45833
1673.03	585.125
1676.001	569.79167
1678.97	542.79167
1681.937	521.125
1684.901	493.79167
1687.863	492.125
1690.824	466.79167
1693.782	476.45833
1696.738	440.45833
1699.692	444.79167
1702.643	431.45833
1705.593	434.45833
1708.54	418.45833
1711.486	437.45833
1714.429	408.125
1717.37	417.79167
1720.309	404.79167
1723.246	409.79167
1726.181	397.45833
1729.113	404.45833
1732.044	404.45833
1734.972	406.125
1737.899	408.125
1740.823	418.79167
1743.745	428.45833
1746.665	385.45833
1749.583	381.125
1752.499	375.125
1755.413	363.45833
1758.325	360.45833
1761.235	366.79167
1764.142	345.79167
1767.048	354.45833
1769.951	360.125
1772.852	356.125
1775.752	360.79167
1778.649	365.45833
1781.544	369.45833
1784.437	344.125
1787.328	353.45833
1790.217	348.79167
1793.104	336.79167
1795.989	334.79167
1798.872	332.125
1801.753	346.45833
1804.631	335.79167
1807.508	344.79167
1810.383	339.125
1813.255	335.45833
1816.126	339.45833
1818.994	329.45833
1821.861	327.45833
1824.725	335.45833
1827.587	334.79167
1830.448	333.79167
1833.306	323.45833
1836.162	333.79167
1839.017	324.45833
1841.869	328.45833
1844.719	321.45833
1847.567	312.79167
1850.414	300.45833
1853.258	294.125
1856.1	317.79167
1858.94	322.79167
1861.778	316.125
1864.614	301.125
1867.448	316.45833
1870.28	291.125
1873.111	319.79167
1875.939	302.45833
1878.765	321.79167
1881.589	298.79167
1884.411	311.45833
1887.231	312.79167
1890.049	302.125
1892.865	314.45833
1895.68	298.45833
1898.492	307.125
1901.302	294.79167
1904.11	300.125
1906.916	296.45833
1909.721	289.125
1912.523	307.79167
1915.323	287.125
1918.122	285.45833
1920.918	294.45833
1923.712	288.45833
1926.505	297.79167
1929.295	272.45833
1932.084	295.125
1934.87	291.45833
1937.655	282.45833
1940.438	268.125
1943.218	284.125
1945.997	286.125
1948.774	289.125
1951.549	294.79167
1954.322	275.45833
1957.093	280.45833
1959.862	282.79167
1962.629	282.79167
1965.394	280.125
1968.157	260.45833
1970.918	276.45833
1973.678	269.45833
1976.435	280.79167
1979.19	270.125
1981.944	264.79167
1984.696	265.79167
1987.445	266.45833
1990.193	270.125
1992.939	279.79167
1995.683	270.45833
1998.425	251.45833
2001.165	281.79167
2003.903	252.45833
2006.639	261.45833
2009.374	267.45833
2012.106	262.45833
2014.837	241.125
2017.566	268.45833
2020.292	257.125
2023.017	255.45833
2025.74	251.45833
2028.461	249.79167
2031.18	258.125
2033.898	248.45833
2036.613	249.79167
2039.327	253.45833
2042.038	239.45833
2044.748	249.125
2047.456	247.79167
2050.162	233.125
2052.866	248.125
2055.568	254.79167
2058.268	245.45833
2060.967	252.45833
2063.663	238.125
2066.358	240.45833
2069.051	234.125
2071.742	243.125
2074.431	251.125
2077.118	235.79167
2079.804	221.125
2082.487	229.125
2085.169	251.45833
2087.849	253.79167
2090.527	232.45833
2093.203	249.45833
2095.877	238.79167
2098.55	243.79167
2101.22	251.45833
2103.889	255.45833
2106.556	241.125
2109.221	258.79167
2111.884	243.79167
2114.546	273.45833
2117.205	276.45833
2119.863	305.79167
2122.519	291.125
2125.173	317.45833
2127.825	349.45833
2130.475	342.79167
2133.124	324.45833
2135.771	314.79167
2138.416	318.45833
2141.059	297.45833
2143.7	289.125
2146.339	278.79167
2148.977	252.125
2151.613	262.125
2154.247	260.79167
2156.879	245.45833
2159.51	236.125
2162.138	242.125
2164.765	230.125
2167.39	220.125
2170.013	246.125
2172.634	237.125
2175.254	224.79167
2177.872	256.79167
2180.488	222.79167
2183.102	218.79167
2185.714	215.45833
2188.325	213.125
2190.934	211.79167
2193.541	221.125
2196.146	207.79167
2198.75	196.125
2201.351	199.125
2203.951	192.125
2206.549	213.125
2209.146	203.79167
2211.74	199.79167
2214.333	207.125
2216.924	189.79167
2219.514	203.45833
2222.101	194.125
2224.687	218.125
2227.271	187.79167
2229.853	190.125
2232.433	173.45833
2235.012	201.125
2237.589	194.79167
2240.164	208.125
2242.738	187.79167
2245.309	179.125
2247.879	204.125
2250.448	198.125
2253.014	183.45833
2255.579	180.45833
2258.142	188.79167
2260.703	178.79167
2263.262	177.79167
2265.82	177.125
2268.376	196.125
2270.93	179.79167
2273.483	173.45833
2276.033	182.79167
2278.583	170.45833
2281.13	170.45833
2283.675	167.79167
2286.219	175.45833
2288.761	185.45833
2291.302	176.125
2293.841	185.45833
2296.377	164.45833
2298.913	175.125
2301.446	186.79167
2303.978	176.45833
2306.508	172.125
2309.037	178.45833
2311.563	176.79167
2314.088	180.79167
2316.612	162.79167
2319.133	172.125
2321.653	176.125
2324.171	172.79167
2326.688	180.45833
2329.202	173.79167
2331.715	173.125
2334.227	165.125
2336.736	167.79167
2339.244	161.79167
2341.751	153.45833
2344.255	168.45833
2346.758	164.125
2349.259	158.45833
2351.759	169.79167
2354.257	156.45833
2356.753	150.79167
2359.247	149.79167
2361.74	159.125
2364.231	159.125
2366.721	172.79167
2369.209	154.45833
2371.695	160.125
2374.179	150.125
2376.662	143.45833
2379.143	168.79167
2381.622	156.45833
2384.1	163.125
2386.576	150.79167
2389.051	169.125
2391.524	163.45833
2393.995	156.79167
2396.464	154.45833
2398.932	147.125
2401.398	157.45833
2403.863	148.79167
2406.325	150.45833
2408.787	154.45833
2411.246	152.125
2413.704	151.79167
2416.16	147.125
2418.615	147.79167
2421.068	155.125
2423.519	151.125
2425.969	145.45833
2428.417	163.125
2430.863	172.79167
2433.308	158.45833
2435.751	148.79167
2438.193	147.45833
2440.633	147.45833
2443.071	156.79167
2445.508	141.79167
2447.943	145.79167
2450.376	143.79167
2452.808	150.45833
2455.238	138.79167
2457.667	166.45833
2460.093	139.125
2462.519	127.125
2464.942	137.79167
2467.365	147.125
2469.785	149.45833
2472.204	136.79167
2474.621	136.45833
2477.037	153.45833
2479.451	131.45833
2481.863	129.45833
2484.274	133.45833
2486.683	134.45833
2489.091	146.79167
2491.497	142.45833
2493.901	139.45833
2496.304	138.125
2498.705	147.79167
2501.105	142.125
2503.503	159.45833
2505.899	126.79167
2508.294	151.79167
2510.687	128.79167
2513.079	135.125
2515.469	132.125
2517.858	129.79167
2520.245	151.79167
2522.63	137.45833
2525.014	131.79167
2527.396	121.125
2529.776	127.45833
2532.156	137.45833
2534.533	125.45833
2536.909	122.45833
2539.283	114.45833
2541.656	128.79167
2544.027	136.125
2546.397	136.125
2548.765	123.45833
2551.131	128.125
2553.496	133.45833
2555.86	132.125
2558.221	134.45833
2560.582	121.45833
2562.94	119.125
2565.298	129.125
2567.653	139.45833
2570.007	118.79167
2572.36	130.79167
2574.711	116.45833
2577.06	141.45833
2579.408	125.79167
2581.754	121.79167
2584.099	120.45833
2586.442	127.45833
2588.784	132.45833
2591.124	124.45833
2593.463	126.79167
2595.8	128.125
2598.135	111.125
2600.469	117.125
2602.802	132.125
2605.133	133.45833
2607.462	113.79167
2609.79	106.45833
2612.116	125.45833
2614.441	120.45833
2616.764	125.79167
2619.086	125.79167
2621.406	117.125
2623.725	127.125
2626.042	119.45833
2628.358	112.125
2630.672	121.125
2632.985	128.45833
2635.296	119.125
2637.606	121.45833
2639.914	113.45833
2642.22	119.45833
2644.525	121.79167
2646.829	122.125
2649.131	133.125
2651.432	131.125
2653.731	116.45833
2656.028	129.125
2658.324	126.125
2660.619	108.45833
2662.912	126.79167
2665.204	110.125
2667.494	129.45833
2669.782	114.125
2672.07	130.79167
2674.355	128.45833
2676.639	124.125
2678.922	116.45833
2681.203	129.45833
2683.483	115.125
2685.761	104.79167
2688.038	123.79167
2690.313	133.79167
2692.587	123.45833
2694.859	115.79167
2697.13	118.45833
2699.399	123.79167
2701.667	132.125
2703.933	122.45833
2706.198	134.125
2708.461	128.79167
2710.723	128.45833
2712.984	125.125
2715.243	125.79167
2717.5	123.45833
2719.757	126.45833
2722.011	122.45833
2724.264	131.125
2726.516	137.125
2728.766	113.125
2731.015	119.125
2733.262	119.79167
2735.508	120.45833
2737.753	126.45833
2739.996	110.125
2742.237	113.45833
2744.477	124.125
2746.716	133.125
2748.953	130.125
2751.189	129.45833
2753.423	126.125
2755.656	114.45833
2757.887	112.45833
2760.117	117.45833
2762.346	112.125
2764.573	101.125
2766.798	111.45833
2769.022	116.45833
2771.245	107.125
2773.467	112.125
2775.686	110.79167
2777.905	119.79167
2780.122	115.125
2782.337	120.79167
2784.552	112.125
2786.764	112.45833
2788.976	113.125
2791.186	118.79167
2793.394	115.79167
2795.601	128.45833
2797.807	127.125
2800.011	120.79167
2802.214	126.125
2804.415	117.125
2806.615	123.125
2808.814	122.45833
2811.011	125.125
2813.206	124.79167
2815.401	130.125
2817.594	132.45833
2819.785	136.45833
2821.975	123.45833
2824.164	129.45833
2826.351	125.125
2828.537	144.79167
2830.722	138.45833
2832.905	135.79167
2835.086	141.45833
2837.267	157.79167
2839.445	148.79167
2841.623	150.45833
2843.799	154.45833
2845.974	160.79167
2848.147	158.79167
2850.319	172.125
2852.489	184.79167
2854.659	180.79167
2856.826	180.125
2858.993	193.45833
2861.158	177.45833
2863.321	179.45833
2865.483	193.125
2867.644	191.45833
2869.804	188.79167
2871.962	188.45833
2874.118	187.125
2876.274	195.125
2878.428	193.79167
2880.58	190.79167
2882.731	179.79167
2884.881	187.125
2887.03	188.79167
2889.177	187.125
2891.322	190.79167
2893.467	179.79167
2895.61	184.79167
2897.751	201.45833
2899.892	190.45833
2902.03	194.79167
2904.168	187.125
2906.304	191.79167
2908.439	209.45833
2910.572	191.79167
2912.704	194.125
2914.835	202.125
2916.965	198.125
2919.093	208.125
2921.219	183.125
2923.345	208.125
2925.469	192.125
2927.591	189.125
2929.712	181.79167
2931.832	193.45833
2933.951	181.79167
2936.068	178.45833
2938.184	178.125
2940.299	171.125
2942.412	165.125
2944.524	151.79167
2946.634	162.45833
2948.744	141.45833
2950.851	177.125
2952.958	138.125
2955.063	152.79167
2957.167	145.79167
2959.269	127.125
2961.371	157.79167
2963.471	129.125
2965.569	151.45833
2967.666	121.125
2969.762	127.79167
2971.857	118.79167
2973.95	119.45833
2976.042	124.79167
2978.133	114.79167
2980.222	116.125
2982.31	109.79167
2984.396	100.45833
2986.482	100.45833
2988.566	107.45833
2990.648	102.125
2992.73	104.125
2994.81	97.79167
2996.889	108.79167
2998.966	99.125
3001.042	110.45833
3003.117	96.125
3005.191	106.125
3007.263	106.45833
3009.334	100.79167
3011.403	102.125
3013.472	95.79167
3015.539	114.45833
3017.604	115.125
3019.669	87.79167
3021.732	95.45833
3023.794	93.125
3025.854	89.125
3027.914	82.45833
3029.971	82.125
3032.028	89.125
3034.083	100.79167
3036.137	92.125
3038.19	79.79167
3040.242	74.79167
3042.292	78.45833
3044.341	83.45833
3046.388	100.45833
3048.435	77.79167
3050.48	99.125
3052.524	83.79167
3054.566	65.45833
3056.607	83.45833
3058.647	74.45833
3060.686	72.45833
3062.723	62.79167
3064.759	67.79167
3066.794	-0.54167
3068.828	1.125
3070.86	2.79167
