-0.839	123.20833
3.438	129.54167
7.711	61.54167
11.981	42.875
16.247	30.54167
20.509	39.875
24.768	34.20833
29.024	39.875
33.276	29.20833
37.524	39.875
41.769	30.20833
46.01	27.20833
50.247	43.54167
54.481	51.20833
58.712	53.20833
62.939	36.20833
67.162	56.875
71.382	43.20833
75.599	36.54167
79.812	42.875
84.021	64.20833
88.227	40.54167
92.429	49.20833
96.628	34.20833
100.823	47.875
105.015	50.20833
109.204	46.20833
113.388	56.54167
117.57	40.20833
121.748	58.875
125.922	42.54167
130.093	60.54167
134.261	61.20833
138.425	50.875
142.585	81.875
146.742	59.54167
150.896	78.54167
155.046	65.20833
159.193	104.54167
163.336	138.20833
167.476	245.20833
171.613	426.54167
175.746	690.54167
179.875	998.20833
184.002	1292.54167
188.124	1519.54167
192.244	1588.875
196.36	1578.54167
200.472	1561.875
204.581	1542.54167
208.687	1507.54167
212.79	1492.20833
216.889	1515.20833
220.984	1529.54167
225.077	1524.875
229.165	1524.875
233.251	1537.20833
237.333	1532.875
241.412	1502.54167
245.487	1502.20833
249.559	1471.20833
253.628	1468.875
257.694	1459.54167
261.756	1469.54167
265.814	1437.875
269.87	1380.875
273.922	1333.20833
277.97	1346.54167
282.016	1330.54167
286.058	1321.54167
290.097	1336.875
294.132	1353.20833
298.164	1351.20833
302.193	1298.54167
306.219	1226.875
310.241	1153.54167
314.26	1075.20833
318.276	1030.54167
322.288	1009.54167
326.297	966.875
330.303	932.54167
334.305	933.20833
338.305	928.875
342.301	910.875
346.294	910.20833
350.283	912.54167
354.269	883.20833
358.252	895.54167
362.232	905.54167
366.209	902.20833
370.182	886.54167
374.152	882.20833
378.119	892.20833
382.083	885.875
386.043	891.54167
390	872.875
393.954	893.875
397.905	885.20833
401.852	898.875
405.797	892.54167
409.738	881.54167
413.676	892.875
417.61	912.875
421.542	889.54167
425.47	869.20833
429.396	871.875
433.318	852.20833
437.236	864.54167
441.152	889.875
445.065	843.20833
448.974	858.20833
452.88	841.20833
456.783	832.20833
460.683	844.875
464.58	849.875
468.473	851.54167
472.364	854.20833
476.251	844.20833
480.135	848.875
484.016	866.20833
487.894	865.54167
491.769	871.875
495.641	862.875
499.509	868.54167
503.375	863.20833
507.237	870.54167
511.096	860.875
514.952	849.54167
518.805	858.54167
522.655	847.875
526.502	847.20833
530.346	856.875
534.187	863.20833
538.024	864.54167
541.859	858.54167
545.69	882.20833
549.519	878.20833
553.344	862.54167
557.166	846.875
560.985	839.54167
564.802	844.875
568.615	825.20833
572.425	821.20833
576.232	820.54167
580.036	818.54167
583.836	821.20833
587.634	831.875
591.429	830.54167
595.221	858.54167
599.01	855.875
602.796	838.20833
606.578	839.20833
610.358	847.875
614.135	837.875
617.909	837.54167
621.679	825.20833
625.447	837.20833
629.212	827.875
632.973	830.54167
636.732	825.54167
640.488	829.875
644.241	811.54167
647.991	814.54167
651.737	840.20833
655.481	796.875
659.222	805.20833
662.96	802.54167
666.695	810.875
670.427	809.875
674.156	818.54167
677.882	826.54167
681.605	823.54167
685.325	814.54167
689.043	844.20833
692.757	814.20833
696.468	812.875
700.177	816.20833
703.882	806.875
707.585	796.20833
711.284	802.54167
714.981	794.54167
718.675	792.54167
722.366	806.875
726.054	788.54167
729.739	798.20833
733.421	800.875
737.1	796.20833
740.777	809.54167
744.45	789.20833
748.121	792.875
751.789	830.20833
755.453	814.875
759.115	813.54167
762.774	801.20833
766.431	820.20833
770.084	827.54167
773.734	805.20833
777.382	837.20833
781.027	833.54167
784.669	826.875
788.308	835.20833
791.944	854.20833
795.577	844.20833
799.208	853.54167
802.835	844.20833
806.46	856.20833
810.082	854.54167
813.701	844.54167
817.317	852.875
820.931	853.20833
824.542	871.20833
828.149	849.54167
831.754	840.20833
835.357	838.875
838.956	857.20833
842.553	853.20833
846.146	834.875
849.737	821.875
853.326	823.54167
856.911	810.875
860.493	842.20833
864.073	833.20833
867.65	853.20833
871.225	852.54167
874.796	845.54167
878.365	842.875
881.931	852.20833
885.494	862.20833
889.054	855.54167
892.612	851.875
896.166	837.875
899.719	831.54167
903.268	810.54167
906.814	827.20833
910.358	817.54167
913.899	796.20833
917.438	800.20833
920.973	774.875
924.506	790.875
928.036	809.875
931.564	816.875
935.088	835.875
938.61	809.875
942.129	818.20833
945.646	840.54167
949.16	840.20833
952.671	846.54167
956.179	859.54167
959.685	850.54167
963.188	855.875
966.688	841.54167
970.185	808.54167
973.68	803.20833
977.173	796.54167
980.662	782.875
984.149	813.875
987.633	772.875
991.114	796.875
994.593	807.875
998.069	810.20833
1001.542	844.54167
1005.013	832.875
1008.481	766.875
1011.947	777.54167
1015.409	761.54167
1018.869	774.20833
1022.327	766.20833
1025.782	738.875
1029.234	736.875
1032.683	744.875
1036.13	717.54167
1039.574	708.54167
1043.016	684.20833
1046.455	676.20833
1049.891	672.20833
1053.325	689.20833
1056.756	667.54167
1060.184	689.54167
1063.61	660.20833
1067.033	668.875
1070.454	670.20833
1073.872	697.20833
1077.287	679.875
1080.7	674.20833
1084.11	671.875
1087.517	671.875
1090.922	670.54167
1094.325	656.54167
1097.724	650.54167
1101.122	646.875
1104.516	653.20833
1107.908	640.54167
1111.298	651.875
1114.684	666.875
1118.069	658.54167
1121.45	679.54167
1124.83	654.54167
1128.206	665.20833
1131.58	677.20833
1134.951	685.54167
1138.32	705.875
1141.687	720.54167
1145.05	740.875
1148.412	729.20833
1151.77	729.875
1155.126	720.54167
1158.48	722.54167
1161.831	716.20833
1165.18	732.20833
1168.525	750.20833
1171.869	743.875
1175.21	745.875
1178.548	755.54167
1181.884	766.54167
1185.217	746.20833
1188.548	768.54167
1191.877	790.54167
1195.202	836.20833
1198.526	834.20833
1201.846	830.20833
1205.165	839.20833
1208.48	838.875
1211.794	843.20833
1215.104	836.20833
1218.413	825.54167
1221.719	822.20833
1225.022	822.20833
1228.323	799.875
1231.621	823.875
1234.917	802.20833
1238.21	827.875
1241.501	807.20833
1244.79	786.20833
1248.076	774.20833
1251.359	804.54167
1254.64	846.20833
1257.919	805.875
1261.195	823.875
1264.468	834.875
1267.74	849.875
1271.008	851.54167
1274.275	840.20833
1277.538	841.20833
1280.8	839.20833
1284.059	827.54167
1287.315	843.875
1290.569	831.875
1293.821	848.875
1297.07	843.54167
1300.317	846.20833
1303.562	866.875
1306.803	856.875
1310.043	835.54167
1313.28	826.875
1316.515	838.875
1319.747	850.875
1322.977	825.54167
1326.204	814.54167
1329.429	803.875
1332.652	814.20833
1335.872	806.20833
1339.09	796.875
1342.306	807.875
1345.519	799.54167
1348.729	778.875
1351.938	787.54167
1355.144	764.875
1358.347	772.54167
1361.548	775.875
1364.747	771.54167
1367.944	747.20833
1371.138	761.875
1374.329	752.54167
1377.518	763.875
1380.705	772.20833
1383.89	764.20833
1387.072	731.875
1390.252	725.54167
1393.429	707.875
1396.605	688.875
1399.777	670.54167
1402.948	662.54167
1406.116	656.54167
1409.282	661.54167
1412.445	659.20833
1415.606	664.20833
1418.765	662.54167
1421.921	683.875
1425.075	677.20833
1428.227	686.54167
1431.376	721.20833
1434.524	747.875
1437.668	767.20833
1440.811	758.54167
1443.951	782.20833
1447.089	774.875
1450.224	773.875
1453.357	766.20833
1456.488	758.54167
1459.617	750.20833
1462.743	745.20833
1465.867	729.875
1468.989	721.20833
1472.108	706.54167
1475.225	695.20833
1478.34	682.875
1481.453	679.20833
1484.563	667.875
1487.671	688.875
1490.776	694.20833
1493.88	693.875
1496.981	705.20833
1500.08	718.20833
1503.176	709.875
1506.271	732.20833
1509.363	740.54167
1512.452	734.54167
1515.54	752.20833
1518.625	748.20833
1521.708	772.54167
1524.789	794.54167
1527.867	814.20833
1530.944	863.54167
1534.018	883.20833
1537.089	937.54167
1540.159	938.54167
1543.226	954.20833
1546.291	915.20833
1549.354	904.20833
1552.415	893.20833
1555.473	869.875
1558.529	848.875
1561.583	842.875
1564.634	834.875
1567.684	837.54167
1570.731	839.875
1573.776	842.875
1576.819	833.875
1579.859	835.54167
1582.898	857.20833
1585.934	872.54167
1588.968	874.20833
1591.999	851.54167
1595.029	861.20833
1598.056	870.54167
1601.081	885.54167
1604.104	875.20833
1607.125	855.875
1610.144	845.54167
1613.16	815.54167
1616.174	804.20833
1619.186	785.54167
1622.196	784.54167
1625.203	751.20833
1628.209	752.20833
1631.212	741.54167
1634.213	739.20833
1637.212	732.54167
1640.209	725.54167
1643.203	708.875
1646.196	695.875
1649.186	664.54167
1652.174	663.875
1655.16	643.54167
1658.144	645.54167
1661.125	607.875
1664.105	592.20833
1667.082	579.54167
1670.057	553.20833
1673.03	524.20833
1676.001	490.54167
1678.97	461.875
1681.937	450.54167
1684.901	422.875
1687.863	418.54167
1690.824	396.54167
1693.782	405.20833
1696.738	376.875
1699.692	380.875
1702.643	357.875
1705.593	362.875
1708.54	355.20833
1711.486	365.54167
1714.429	348.20833
1717.37	357.875
1720.309	345.20833
1723.246	354.54167
1726.181	323.875
1729.113	338.875
1732.044	343.20833
1734.972	328.875
1737.899	346.875
1740.823	335.54167
1743.745	364.54167
1746.665	329.20833
1749.583	316.20833
1752.499	310.875
1755.413	313.875
1758.325	305.20833
1761.235	313.20833
1764.142	296.875
1767.048	293.20833
1769.951	295.20833
1772.852	292.875
1775.752	302.875
1778.649	308.20833
1781.544	315.20833
1784.437	285.54167
1787.328	294.875
1790.217	291.20833
1793.104	276.20833
1795.989	277.54167
1798.872	269.20833
1801.753	284.875
1804.631	279.875
1807.508	294.875
1810.383	279.54167
1813.255	281.20833
1816.126	275.54167
1818.994	272.875
1821.861	267.54167
1824.725	276.875
1827.587	277.20833
1830.448	274.875
1833.306	263.20833
1836.162	279.54167
1839.017	268.20833
1841.869	269.875
1844.719	274.20833
1847.567	251.20833
1850.414	248.20833
1853.258	248.54167
1856.1	264.20833
1858.94	266.875
1861.778	263.54167
1864.614	252.875
1867.448	262.875
1870.28	241.54167
1873.111	267.54167
1875.939	254.875
1878.765	266.875
1881.589	248.20833
1884.411	260.54167
1887.231	263.875
1890.049	260.20833
1892.865	263.54167
1895.68	245.54167
1898.492	256.875
1901.302	257.54167
1904.11	250.20833
1906.916	246.20833
1909.721	247.20833
1912.523	257.54167
1915.323	242.20833
1918.122	236.20833
1920.918	255.875
1923.712	241.875
1926.505	249.54167
1929.295	231.20833
1932.084	248.875
1934.87	243.875
1937.655	241.54167
1940.438	226.20833
1943.218	244.20833
1945.997	241.875
1948.774	249.875
1951.549	248.54167
1954.322	232.20833
1957.093	241.20833
1959.862	233.20833
1962.629	229.20833
1965.394	234.875
1968.157	224.875
1970.918	241.20833
1973.678	228.54167
1976.435	239.54167
1979.19	225.54167
1981.944	224.875
1984.696	221.875
1987.445	222.875
1990.193	227.20833
1992.939	237.20833
1995.683	227.20833
1998.425	207.875
2001.165	248.54167
2003.903	213.20833
2006.639	218.20833
2009.374	230.875
2012.106	223.20833
2014.837	203.54167
2017.566	225.20833
2020.292	218.875
2023.017	216.54167
2025.74	212.875
2028.461	208.875
2031.18	221.54167
2033.898	206.875
2036.613	212.54167
2039.327	220.54167
2042.038	210.875
2044.748	209.875
2047.456	219.20833
2050.162	200.54167
2052.866	209.20833
2055.568	220.20833
2058.268	208.875
2060.967	215.875
2063.663	196.20833
2066.358	200.54167
2069.051	198.20833
2071.742	203.54167
2074.431	209.875
2077.118	200.54167
2079.804	197.875
2082.487	199.20833
2085.169	215.20833
2087.849	227.54167
2090.527	192.875
2093.203	208.875
2095.877	206.875
2098.55	210.54167
2101.22	209.54167
2103.889	216.54167
2106.556	204.54167
2109.221	224.875
2111.884	215.54167
2114.546	233.20833
2117.205	238.875
2119.863	269.875
2122.519	251.54167
2125.173	283.875
2127.825	309.54167
2130.475	310.20833
2133.124	289.20833
2135.771	283.875
2138.416	294.20833
2141.059	260.54167
2143.7	260.875
2146.339	244.875
2148.977	209.20833
2151.613	233.875
2154.247	219.875
2156.879	212.20833
2159.51	205.875
2162.138	205.54167
2164.765	200.54167
2167.39	186.20833
2170.013	211.54167
2172.634	211.20833
2175.254	197.54167
2177.872	229.20833
2180.488	187.54167
2183.102	191.54167
2185.714	183.20833
2188.325	181.20833
2190.934	187.54167
2193.541	195.54167
2196.146	183.54167
2198.75	168.875
2201.351	178.54167
2203.951	162.875
2206.549	184.875
2209.146	178.875
2211.74	174.54167
2214.333	184.54167
2216.924	162.54167
2219.514	171.875
2222.101	171.54167
2224.687	184.20833
2227.271	163.875
2229.853	166.20833
2232.433	151.54167
2235.012	176.20833
2237.589	164.875
2240.164	183.20833
2242.738	166.54167
2245.309	161.875
2247.879	180.54167
2250.448	173.20833
2253.014	160.875
2255.579	147.20833
2258.142	158.54167
2260.703	160.875
2263.262	154.875
2265.82	153.54167
2268.376	167.20833
2270.93	154.20833
2273.483	147.20833
2276.033	160.20833
2278.583	150.54167
2281.13	151.54167
2283.675	145.20833
2286.219	149.875
2288.761	154.54167
2291.302	155.875
2293.841	170.20833
2296.377	144.20833
2298.913	154.54167
2301.446	164.54167
2303.978	153.875
2306.508	149.875
2309.037	156.875
2311.563	149.54167
2314.088	147.20833
2316.612	139.20833
2319.133	156.20833
2321.653	155.875
2324.171	148.54167
2326.688	157.875
2329.202	148.54167
2331.715	150.54167
2334.227	150.875
2336.736	143.54167
2339.244	138.875
2341.751	136.875
2344.255	146.20833
2346.758	146.20833
2349.259	137.20833
2351.759	144.875
2354.257	137.875
2356.753	134.54167
2359.247	131.54167
2361.74	144.20833
2364.231	141.54167
2366.721	147.875
2369.209	139.875
2371.695	144.875
2374.179	133.875
2376.662	123.20833
2379.143	148.54167
2381.622	138.20833
2384.1	136.875
2386.576	133.875
2389.051	150.20833
2391.524	150.20833
2393.995	142.54167
2396.464	135.54167
2398.932	134.20833
2401.398	136.875
2403.863	125.20833
2406.325	130.20833
2408.787	133.875
2411.246	133.54167
2413.704	131.875
2416.16	132.20833
2418.615	125.54167
2421.068	134.54167
2423.519	133.54167
2425.969	123.875
2428.417	142.875
2430.863	149.875
2433.308	141.875
2435.751	141.54167
2438.193	133.54167
2440.633	132.54167
2443.071	140.54167
2445.508	129.875
2447.943	127.54167
2450.376	126.54167
2452.808	133.20833
2455.238	117.20833
2457.667	150.54167
2460.093	118.20833
2462.519	112.54167
2464.942	118.54167
2467.365	130.20833
2469.785	129.54167
2472.204	122.20833
2474.621	118.20833
2477.037	139.875
2479.451	113.875
2481.863	115.20833
2484.274	118.875
2486.683	120.54167
2489.091	134.875
2491.497	131.20833
2493.901	125.875
2496.304	120.20833
2498.705	128.54167
2501.105	123.875
2503.503	145.54167
2505.899	113.20833
2508.294	138.54167
2510.687	117.54167
2513.079	117.54167
2515.469	112.875
2517.858	117.875
2520.245	131.875
2522.63	119.875
2525.014	116.20833
2527.396	115.54167
2529.776	116.875
2532.156	130.20833
2534.533	105.54167
2536.909	107.875
2539.283	99.875
2541.656	110.20833
2544.027	127.875
2546.397	120.875
2548.765	113.54167
2551.131	117.20833
2553.496	120.20833
2555.86	119.875
2558.221	125.20833
2560.582	106.875
2562.94	102.875
2565.298	116.20833
2567.653	126.54167
2570.007	101.875
2572.36	116.875
2574.711	106.54167
2577.06	120.54167
2579.408	111.875
2581.754	110.875
2584.099	109.875
2586.442	111.54167
2588.784	118.875
2591.124	112.54167
2593.463	114.54167
2595.8	114.54167
2598.135	99.54167
2600.469	105.54167
2602.802	115.54167
2605.133	121.875
2607.462	101.20833
2609.79	97.20833
2612.116	117.54167
2614.441	110.875
2616.764	114.20833
2619.086	109.54167
2621.406	101.875
2623.725	113.875
2626.042	106.875
2628.358	103.54167
2630.672	112.875
2632.985	118.54167
2635.296	111.20833
2637.606	106.54167
2639.914	100.54167
2642.22	105.875
2644.525	112.20833
2646.829	107.875
2649.131	114.20833
2651.432	116.20833
2653.731	106.20833
2656.028	123.875
2658.324	112.54167
2660.619	98.54167
2662.912	118.20833
2665.204	99.875
2667.494	110.54167
2669.782	104.875
2672.07	117.54167
2674.355	117.875
2676.639	112.20833
2678.922	101.875
2681.203	108.20833
2683.483	100.875
2685.761	97.20833
2688.038	117.54167
2690.313	121.54167
2692.587	106.54167
2694.859	101.875
2697.13	103.875
2699.399	109.54167
2701.667	116.54167
2703.933	112.54167
2706.198	123.20833
2708.461	120.20833
2710.723	119.20833
2712.984	111.875
2715.243	116.20833
2717.5	108.54167
2719.757	116.20833
2722.011	104.875
2724.264	123.20833
2726.516	123.20833
2728.766	108.20833
2731.015	115.54167
2733.262	109.875
2735.508	107.20833
2737.753	113.20833
2739.996	98.875
2742.237	104.20833
2744.477	118.54167
2746.716	126.54167
2748.953	117.20833
2751.189	121.875
2753.423	115.54167
2755.656	107.875
2757.887	100.875
2760.117	105.54167
2762.346	103.20833
2764.573	93.20833
2766.798	101.875
2769.022	105.20833
2771.245	95.54167
2773.467	105.54167
2775.686	100.875
2777.905	112.875
2780.122	104.875
2782.337	111.54167
2784.552	104.20833
2786.764	108.54167
2788.976	97.20833
2791.186	104.20833
2793.394	101.54167
2795.601	113.20833
2797.807	113.54167
2800.011	112.20833
2802.214	120.875
2804.415	114.875
2806.615	150.54167
2808.814	158.20833
2811.011	122.54167
2813.206	114.54167
2815.401	129.54167
2817.594	122.54167
2819.785	123.20833
2821.975	117.20833
2824.164	121.875
2826.351	118.54167
2828.537	136.20833
2830.722	130.875
2832.905	126.20833
2835.086	125.875
2837.267	155.54167
2839.445	145.875
2841.623	146.875
2843.799	142.54167
2845.974	147.20833
2848.147	153.875
2850.319	164.875
2852.489	170.875
2854.659	163.875
2856.826	169.875
2858.993	190.20833
2861.158	165.20833
2863.321	173.20833
2865.483	182.875
2867.644	182.20833
2869.804	180.20833
2871.962	177.875
2874.118	176.54167
2876.274	184.20833
2878.428	172.54167
2880.58	181.875
2882.731	171.54167
2884.881	177.54167
2887.03	182.54167
2889.177	176.875
2891.322	185.875
2893.467	173.54167
2895.61	181.20833
2897.751	188.875
2899.892	177.54167
2902.03	183.875
2904.168	182.875
2906.304	182.875
2908.439	196.875
2910.572	173.875
2912.704	180.875
2914.835	186.875
2916.965	189.54167
2919.093	202.875
2921.219	175.20833
2923.345	209.875
2925.469	181.54167
2927.591	175.54167
2929.712	164.54167
2931.832	180.875
2933.951	172.20833
2936.068	169.54167
2938.184	165.20833
2940.299	162.875
2942.412	156.875
2944.524	144.875
2946.634	156.54167
2948.744	130.875
2950.851	167.20833
2952.958	132.875
2955.063	141.54167
2957.167	135.54167
2959.269	124.20833
2961.371	152.20833
2963.471	123.875
2965.569	137.54167
2967.666	109.875
2969.762	109.875
2971.857	112.54167
2973.95	110.54167
2976.042	119.54167
2978.133	108.54167
2980.222	111.54167
2982.31	100.20833
2984.396	85.54167
2986.482	93.20833
2988.566	100.54167
2990.648	98.875
2992.73	101.54167
2994.81	82.20833
2996.889	100.54167
2998.966	92.20833
3001.042	102.54167
3003.117	89.54167
3005.191	92.20833
3007.263	99.875
3009.334	91.54167
3011.403	93.20833
3013.472	88.54167
3015.539	101.20833
3017.604	110.54167
3019.669	84.54167
3021.732	91.20833
3023.794	91.875
3025.854	77.20833
3027.914	78.54167
3029.971	80.20833
3032.028	85.875
3034.083	92.54167
3036.137	87.20833
3038.19	77.875
3040.242	70.54167
3042.292	69.875
3044.341	76.875
3046.388	94.875
3048.435	70.875
3050.48	91.875
3052.524	77.54167
3054.566	61.875
3056.607	76.20833
3058.647	73.875
3060.686	65.875
3062.723	56.875
3064.759	57.20833
3066.794	2.20833
3068.828	-0.79167
3070.86	3.54167
