-0.839	121.41667
3.438	131.41667
7.711	56.41667
11.981	42.41667
16.247	32.08333
20.509	35.08333
24.768	37.41667
29.024	42.75
33.276	30.08333
37.524	39.41667
41.769	31.75
46.01	25.08333
50.247	45.41667
54.481	47.41667
58.712	51.75
62.939	31.41667
67.162	52.75
71.382	42.75
75.599	35.75
79.812	43.08333
84.021	58.41667
88.227	42.08333
92.429	49.08333
96.628	36.75
100.823	53.08333
105.015	51.41667
109.204	45.08333
113.388	56.41667
117.57	41.75
121.748	61.08333
125.922	43.75
130.093	63.08333
134.261	61.41667
138.425	52.75
142.585	78.08333
146.742	63.75
150.896	73.41667
155.046	66.08333
159.193	99.75
163.336	142.08333
167.476	246.41667
171.613	425.41667
175.746	688.75
179.875	982.41667
184.002	1275.41667
188.124	1499.41667
192.244	1562.75
196.36	1555.08333
200.472	1541.41667
204.581	1517.41667
208.687	1491.08333
212.79	1485.75
216.889	1473.41667
220.984	1491.08333
225.077	1514.41667
229.165	1497.08333
233.251	1500.75
237.333	1497.75
241.412	1480.08333
245.487	1471.75
249.559	1447.75
253.628	1440.41667
257.694	1422.41667
261.756	1442.41667
265.814	1406.75
269.87	1352.41667
273.922	1314.75
277.97	1310.08333
282.016	1333.75
286.058	1281.41667
290.097	1320.75
294.132	1350.08333
298.164	1329.08333
302.193	1274.41667
306.219	1193.08333
310.241	1119.08333
314.26	1067.41667
318.276	1005.08333
322.288	992.08333
326.297	949.08333
330.303	921.08333
334.305	910.75
338.305	910.75
342.301	906.75
346.294	907.08333
350.283	891.08333
354.269	886.75
358.252	871.08333
362.232	872.08333
366.209	883.08333
370.182	870.41667
374.152	866.41667
378.119	872.75
382.083	872.75
386.043	879.41667
390	857.41667
393.954	872.41667
397.905	873.75
401.852	884.75
405.797	853.08333
409.738	866.41667
413.676	883.75
417.61	872.75
421.542	861.41667
425.47	843.41667
429.396	855.41667
433.318	824.41667
437.236	840.75
441.152	868.75
445.065	827.41667
448.974	837.08333
452.88	825.75
456.783	813.08333
460.683	829.08333
464.58	821.75
468.473	825.75
472.364	837.08333
476.251	825.41667
480.135	846.08333
484.016	850.41667
487.894	846.41667
491.769	847.41667
495.641	843.75
499.509	858.41667
503.375	847.08333
507.237	826.75
511.096	852.41667
514.952	839.75
518.805	834.41667
522.655	827.08333
526.502	836.08333
530.346	848.41667
534.187	835.75
538.024	852.41667
541.859	834.41667
545.69	867.41667
549.519	850.75
553.344	834.75
557.166	836.41667
560.985	821.75
564.802	828.41667
568.615	817.08333
572.425	812.75
576.232	798.41667
580.036	805.08333
583.836	804.08333
587.634	812.75
591.429	801.08333
595.221	830.75
599.01	819.75
602.796	827.41667
606.578	826.75
610.358	825.41667
614.135	808.41667
617.909	822.41667
621.679	828.41667
625.447	802.41667
629.212	808.75
632.973	818.75
636.732	810.75
640.488	811.75
644.241	793.75
647.991	793.75
651.737	812.08333
655.481	788.41667
659.222	800.75
662.96	783.75
666.695	801.75
670.427	805.75
674.156	802.75
677.882	811.75
681.605	806.75
685.325	784.08333
689.043	816.08333
692.757	809.08333
696.468	815.08333
700.177	804.75
703.882	786.08333
707.585	772.08333
711.284	783.41667
714.981	777.08333
718.675	780.08333
722.366	798.08333
726.054	768.75
729.739	782.08333
733.421	778.75
737.1	771.75
740.777	789.75
744.45	784.41667
748.121	784.08333
751.789	814.75
755.453	794.08333
759.115	806.41667
762.774	793.41667
766.431	807.41667
770.084	796.41667
773.734	800.41667
777.382	818.08333
781.027	821.08333
784.669	808.41667
788.308	810.08333
791.944	832.41667
795.577	836.75
799.208	822.41667
802.835	824.08333
806.46	838.41667
810.082	844.41667
813.701	834.08333
817.317	830.41667
820.931	842.08333
824.542	835.41667
828.149	831.08333
831.754	814.08333
835.357	819.75
838.956	844.41667
842.553	828.08333
846.146	816.41667
849.737	792.41667
853.326	817.08333
856.911	799.08333
860.493	820.75
864.073	820.75
867.65	836.08333
871.225	850.08333
874.796	832.75
878.365	825.75
881.931	842.75
885.494	846.75
889.054	834.75
892.612	840.41667
896.166	815.08333
899.719	811.41667
903.268	789.41667
906.814	806.08333
910.358	792.41667
913.899	777.75
917.438	791.41667
920.973	749.41667
924.506	783.75
928.036	795.08333
931.564	799.08333
935.088	812.41667
938.61	805.08333
942.129	807.41667
945.646	824.08333
949.16	823.75
952.671	836.08333
956.179	840.75
959.685	843.41667
963.188	831.41667
966.688	813.75
970.185	781.41667
973.68	774.08333
977.173	777.41667
980.662	770.75
984.149	775.08333
987.633	749.41667
991.114	765.08333
994.593	797.08333
998.069	790.08333
1001.542	825.41667
1005.013	804.75
1008.481	748.75
1011.947	745.08333
1015.409	743.08333
1018.869	755.08333
1022.327	747.41667
1025.782	728.41667
1029.234	726.75
1032.683	724.41667
1036.13	704.41667
1039.574	693.08333
1043.016	677.41667
1046.455	675.75
1049.891	643.08333
1053.325	672.41667
1056.756	653.08333
1060.184	666.08333
1063.61	650.08333
1067.033	661.08333
1070.454	661.75
1073.872	683.08333
1077.287	666.08333
1080.7	650.08333
1084.11	663.41667
1087.517	665.75
1090.922	655.08333
1094.325	637.41667
1097.724	636.75
1101.122	641.75
1104.516	647.41667
1107.908	630.08333
1111.298	641.41667
1114.684	648.75
1118.069	639.75
1121.45	668.08333
1124.83	653.41667
1128.206	652.75
1131.58	659.08333
1134.951	688.08333
1138.32	677.75
1141.687	724.41667
1145.05	731.75
1148.412	723.75
1151.77	720.41667
1155.126	719.08333
1158.48	697.08333
1161.831	716.08333
1165.18	708.75
1168.525	724.41667
1171.869	734.41667
1175.21	725.08333
1178.548	731.75
1181.884	749.08333
1185.217	725.75
1188.548	762.41667
1191.877	771.41667
1195.202	812.75
1198.526	823.75
1201.846	813.75
1205.165	812.08333
1208.48	807.08333
1211.794	831.75
1215.104	832.75
1218.413	802.08333
1221.719	812.08333
1225.022	796.08333
1228.323	792.75
1231.621	794.75
1234.917	789.75
1238.21	808.08333
1241.501	779.41667
1244.79	787.75
1248.076	771.75
1251.359	777.08333
1254.64	823.08333
1257.919	804.08333
1261.195	806.75
1264.468	826.41667
1267.74	812.08333
1271.008	821.41667
1274.275	825.41667
1277.538	817.75
1280.8	829.08333
1284.059	816.75
1287.315	841.41667
1290.569	817.08333
1293.821	839.41667
1297.07	842.08333
1300.317	846.41667
1303.562	842.08333
1306.803	842.41667
1310.043	828.75
1313.28	821.41667
1316.515	820.75
1319.747	829.08333
1322.977	813.41667
1326.204	791.41667
1329.429	793.41667
1332.652	799.08333
1335.872	794.75
1339.09	771.08333
1342.306	781.41667
1345.519	781.08333
1348.729	778.08333
1351.938	775.08333
1355.144	761.75
1358.347	761.41667
1361.548	770.75
1364.747	763.75
1367.944	737.75
1371.138	762.08333
1374.329	742.75
1377.518	736.41667
1380.705	744.41667
1383.89	762.75
1387.072	731.08333
1390.252	721.75
1393.429	689.75
1396.605	684.75
1399.777	651.75
1402.948	651.08333
1406.116	652.08333
1409.282	645.75
1412.445	647.41667
1415.606	659.41667
1418.765	645.75
1421.921	679.75
1425.075	674.41667
1428.227	679.41667
1431.376	715.08333
1434.524	726.08333
1437.668	752.75
1440.811	755.75
1443.951	749.41667
1447.089	756.08333
1450.224	751.41667
1453.357	745.08333
1456.488	752.41667
1459.617	742.41667
1462.743	726.41667
1465.867	705.08333
1468.989	722.08333
1472.108	691.41667
1475.225	683.08333
1478.34	665.75
1481.453	668.41667
1484.563	657.41667
1487.671	671.41667
1490.776	687.08333
1493.88	693.75
1496.981	702.08333
1500.08	705.08333
1503.176	701.75
1506.271	716.75
1509.363	721.08333
1512.452	727.41667
1515.54	734.41667
1518.625	733.41667
1521.708	761.75
1524.789	794.08333
1527.867	805.75
1530.944	832.41667
1534.018	856.75
1537.089	918.75
1540.159	932.41667
1543.226	921.75
1546.291	899.75
1549.354	894.41667
1552.415	873.08333
1555.473	853.41667
1558.529	845.75
1561.583	835.41667
1564.634	814.75
1567.684	827.08333
1570.731	821.41667
1573.776	825.08333
1576.819	829.08333
1579.859	845.08333
1582.898	834.41667
1585.934	854.75
1588.968	859.08333
1591.999	846.08333
1595.029	835.41667
1598.056	849.75
1601.081	877.08333
1604.104	863.75
1607.125	848.75
1610.144	830.41667
1613.16	814.08333
1616.174	794.75
1619.186	777.08333
1622.196	750.41667
1625.203	741.41667
1628.209	750.75
1631.212	737.41667
1634.213	731.75
1637.212	723.75
1640.209	717.08333
1643.203	690.08333
1646.196	674.75
1649.186	663.75
1652.174	654.41667
1655.16	623.75
1658.144	637.41667
1661.125	608.75
1664.105	583.75
1667.082	572.41667
1670.057	529.08333
1673.03	506.75
1676.001	482.41667
1678.97	459.08333
1681.937	442.75
1684.901	407.75
1687.863	416.08333
1690.824	388.41667
1693.782	393.41667
1696.738	359.41667
1699.692	370.08333
1702.643	353.08333
1705.593	355.41667
1708.54	356.41667
1711.486	359.08333
1714.429	338.41667
1717.37	352.41667
1720.309	337.08333
1723.246	345.08333
1726.181	326.75
1729.113	332.75
1732.044	326.08333
1734.972	323.41667
1737.899	344.08333
1740.823	338.08333
1743.745	360.08333
1746.665	310.75
1749.583	310.75
1752.499	306.08333
1755.413	305.41667
1758.325	296.41667
1761.235	306.41667
1764.142	298.41667
1767.048	287.41667
1769.951	292.41667
1772.852	293.41667
1775.752	293.41667
1778.649	295.41667
1781.544	306.41667
1784.437	278.75
1787.328	287.75
1790.217	285.08333
1793.104	267.75
1795.989	276.08333
1798.872	268.08333
1801.753	283.08333
1804.631	280.08333
1807.508	279.08333
1810.383	272.08333
1813.255	271.08333
1816.126	268.41667
1818.994	265.41667
1821.861	267.08333
1824.725	270.75
1827.587	279.08333
1830.448	275.08333
1833.306	253.75
1836.162	271.08333
1839.017	265.08333
1841.869	260.08333
1844.719	267.75
1847.567	245.75
1850.414	245.41667
1853.258	239.08333
1856.1	259.41667
1858.94	265.08333
1861.778	254.08333
1864.614	247.75
1867.448	251.41667
1870.28	242.41667
1873.111	268.41667
1875.939	256.41667
1878.765	275.75
1881.589	252.75
1884.411	254.08333
1887.231	261.41667
1890.049	246.41667
1892.865	262.75
1895.68	242.41667
1898.492	254.75
1901.302	254.41667
1904.11	241.41667
1906.916	253.08333
1909.721	233.41667
1912.523	253.08333
1915.323	240.41667
1918.122	233.75
1920.918	245.41667
1923.712	237.08333
1926.505	239.08333
1929.295	228.75
1932.084	245.41667
1934.87	238.08333
1937.655	232.41667
1940.438	226.41667
1943.218	238.08333
1945.997	234.75
1948.774	236.08333
1951.549	236.08333
1954.322	226.41667
1957.093	230.75
1959.862	227.08333
1962.629	229.75
1965.394	228.41667
1968.157	212.41667
1970.918	236.08333
1973.678	218.75
1976.435	231.08333
1979.19	219.41667
1981.944	210.41667
1984.696	216.75
1987.445	217.75
1990.193	224.08333
1992.939	232.75
1995.683	224.41667
1998.425	202.75
2001.165	244.08333
2003.903	206.08333
2006.639	215.41667
2009.374	217.75
2012.106	225.75
2014.837	196.75
2017.566	221.75
2020.292	211.41667
2023.017	209.75
2025.74	211.75
2028.461	204.08333
2031.18	210.75
2033.898	199.08333
2036.613	211.41667
2039.327	209.08333
2042.038	200.75
2044.748	206.41667
2047.456	218.75
2050.162	197.41667
2052.866	201.08333
2055.568	216.08333
2058.268	206.08333
2060.967	212.08333
2063.663	194.41667
2066.358	204.75
2069.051	197.08333
2071.742	199.08333
2074.431	206.08333
2077.118	204.41667
2079.804	193.75
2082.487	195.08333
2085.169	210.75
2087.849	221.41667
2090.527	196.41667
2093.203	202.75
2095.877	200.08333
2098.55	199.08333
2101.22	208.08333
2103.889	213.08333
2106.556	203.08333
2109.221	214.75
2111.884	203.41667
2114.546	231.41667
2117.205	237.75
2119.863	270.41667
2122.519	265.41667
2125.173	277.41667
2127.825	303.41667
2130.475	316.75
2133.124	283.41667
2135.771	276.08333
2138.416	286.75
2141.059	258.08333
2143.7	258.75
2146.339	239.08333
2148.977	211.75
2151.613	221.41667
2154.247	223.41667
2156.879	216.75
2159.51	201.75
2162.138	209.75
2164.765	198.41667
2167.39	188.41667
2170.013	210.08333
2172.634	204.41667
2175.254	196.41667
2177.872	226.41667
2180.488	186.08333
2183.102	188.08333
2185.714	190.08333
2188.325	181.75
2190.934	183.41667
2193.541	193.41667
2196.146	180.41667
2198.75	172.75
2201.351	173.08333
2203.951	165.08333
2206.549	181.75
2209.146	177.08333
2211.74	169.08333
2214.333	186.41667
2216.924	160.75
2219.514	174.08333
2222.101	166.41667
2224.687	182.41667
2227.271	159.08333
2229.853	169.75
2232.433	151.75
2235.012	172.75
2237.589	164.75
2240.164	179.08333
2242.738	163.08333
2245.309	161.08333
2247.879	173.08333
2250.448	175.41667
2253.014	148.75
2255.579	149.08333
2258.142	154.41667
2260.703	153.75
2263.262	156.75
2265.82	153.75
2268.376	159.08333
2270.93	149.41667
2273.483	144.41667
2276.033	160.75
2278.583	148.08333
2281.13	152.41667
2283.675	145.08333
2286.219	147.75
2288.761	157.41667
2291.302	157.41667
2293.841	160.41667
2296.377	142.41667
2298.913	156.75
2301.446	164.75
2303.978	151.41667
2306.508	149.08333
2309.037	156.75
2311.563	147.08333
2314.088	152.08333
2316.612	137.75
2319.133	153.08333
2321.653	149.41667
2324.171	142.75
2326.688	156.41667
2329.202	144.75
2331.715	152.41667
2334.227	150.75
2336.736	143.75
2339.244	139.75
2341.751	134.08333
2344.255	147.08333
2346.758	142.08333
2349.259	131.41667
2351.759	144.75
2354.257	132.75
2356.753	128.75
2359.247	131.75
2361.74	137.75
2364.231	142.41667
2366.721	146.41667
2369.209	132.08333
2371.695	140.41667
2374.179	132.75
2376.662	123.75
2379.143	148.08333
2381.622	133.41667
2384.1	141.08333
2386.576	130.75
2389.051	145.41667
2391.524	143.41667
2393.995	140.41667
2396.464	135.41667
2398.932	129.41667
2401.398	132.08333
2403.863	129.08333
2406.325	122.75
2408.787	132.41667
2411.246	132.08333
2413.704	129.75
2416.16	124.75
2418.615	127.08333
2421.068	133.08333
2423.519	130.41667
2425.969	120.75
2428.417	140.75
2430.863	149.41667
2433.308	137.75
2435.751	133.08333
2438.193	135.08333
2440.633	132.41667
2443.071	135.08333
2445.508	124.41667
2447.943	124.75
2450.376	121.41667
2452.808	134.41667
2455.238	120.75
2457.667	146.75
2460.093	118.41667
2462.519	115.75
2464.942	121.08333
2467.365	126.41667
2469.785	128.75
2472.204	121.41667
2474.621	123.08333
2477.037	140.08333
2479.451	109.08333
2481.863	113.75
2484.274	119.08333
2486.683	120.75
2489.091	135.41667
2491.497	127.75
2493.901	125.75
2496.304	116.75
2498.705	127.75
2501.105	126.41667
2503.503	140.41667
2505.899	112.75
2508.294	137.08333
2510.687	116.41667
2513.079	121.08333
2515.469	106.75
2517.858	118.75
2520.245	134.75
2522.63	117.41667
2525.014	115.75
2527.396	115.75
2529.776	111.75
2532.156	123.41667
2534.533	105.75
2536.909	114.75
2539.283	101.08333
2541.656	108.75
2544.027	128.08333
2546.397	117.08333
2548.765	112.41667
2551.131	114.41667
2553.496	116.41667
2555.86	118.75
2558.221	121.75
2560.582	118.08333
2562.94	101.75
2565.298	117.75
2567.653	124.08333
2570.007	100.08333
2572.36	120.41667
2574.711	105.75
2577.06	126.41667
2579.408	111.75
2581.754	106.75
2584.099	115.08333
2586.442	111.08333
2588.784	116.75
2591.124	113.08333
2593.463	109.08333
2595.8	113.75
2598.135	101.75
2600.469	101.75
2602.802	119.75
2605.133	121.41667
2607.462	100.75
2609.79	102.08333
2612.116	113.08333
2614.441	107.08333
2616.764	110.75
2619.086	104.75
2621.406	105.75
2623.725	116.08333
2626.042	105.41667
2628.358	105.75
2630.672	109.08333
2632.985	114.08333
2635.296	113.08333
2637.606	106.41667
2639.914	103.41667
2642.22	102.75
2644.525	110.41667
2646.829	109.41667
2649.131	120.75
2651.432	115.08333
2653.731	104.75
2656.028	112.75
2658.324	114.41667
2660.619	96.41667
2662.912	117.41667
2665.204	93.41667
2667.494	112.08333
2669.782	101.41667
2672.07	118.08333
2674.355	117.75
2676.639	114.75
2678.922	105.41667
2681.203	113.08333
2683.483	102.41667
2685.761	95.08333
2688.038	114.08333
2690.313	112.08333
2692.587	107.41667
2694.859	107.75
2697.13	103.08333
2699.399	108.41667
2701.667	112.75
2703.933	111.41667
2706.198	119.08333
2708.461	116.08333
2710.723	116.08333
2712.984	110.75
2715.243	121.08333
2717.5	108.75
2719.757	116.75
2722.011	109.41667
2724.264	116.08333
2726.516	120.08333
2728.766	106.08333
2731.015	112.41667
2733.262	112.75
2735.508	106.75
2737.753	119.41667
2739.996	101.41667
2742.237	102.08333
2744.477	116.08333
2746.716	121.75
2748.953	115.75
2751.189	117.75
2753.423	117.41667
2755.656	104.41667
2757.887	101.08333
2760.117	108.41667
2762.346	101.41667
2764.573	93.75
2766.798	99.75
2769.022	104.41667
2771.245	102.08333
2773.467	101.41667
2775.686	101.75
2777.905	110.75
2780.122	106.08333
2782.337	111.08333
2784.552	106.41667
2786.764	105.41667
2788.976	101.08333
2791.186	108.08333
2793.394	101.75
2795.601	110.41667
2797.807	118.41667
2800.011	111.41667
2802.214	118.08333
2804.415	112.08333
2806.615	113.75
2808.814	117.08333
2811.011	117.75
2813.206	116.75
2815.401	129.08333
2817.594	124.08333
2819.785	131.41667
2821.975	113.75
2824.164	123.41667
2826.351	122.41667
2828.537	131.41667
2830.722	126.08333
2832.905	129.08333
2835.086	128.08333
2837.267	148.75
2839.445	145.08333
2841.623	141.75
2843.799	143.41667
2845.974	148.75
2848.147	153.08333
2850.319	161.75
2852.489	169.08333
2854.659	166.75
2856.826	167.41667
2858.993	188.75
2861.158	169.75
2863.321	170.08333
2865.483	179.08333
2867.644	180.75
2869.804	177.41667
2871.962	169.41667
2874.118	180.41667
2876.274	179.41667
2878.428	178.08333
2880.58	182.75
2882.731	167.75
2884.881	176.08333
2887.03	183.08333
2889.177	170.08333
2891.322	189.08333
2893.467	177.41667
2895.61	171.41667
2897.751	186.75
2899.892	178.75
2902.03	181.41667
2904.168	177.08333
2906.304	177.41667
2908.439	198.41667
2910.572	171.75
2912.704	177.08333
2914.835	186.75
2916.965	185.41667
2919.093	200.08333
2921.219	169.75
2923.345	200.08333
2925.469	178.41667
2927.591	172.41667
2929.712	162.41667
2931.832	175.08333
2933.951	171.75
2936.068	168.41667
2938.184	166.08333
2940.299	162.75
2942.412	160.75
2944.524	144.08333
2946.634	159.41667
2948.744	128.08333
2950.851	165.75
2952.958	130.08333
2955.063	140.75
2957.167	129.08333
2959.269	121.75
2961.371	150.75
2963.471	129.08333
2965.569	135.41667
2967.666	116.41667
2969.762	116.75
2971.857	113.08333
2973.95	107.75
2976.042	118.08333
2978.133	112.08333
2980.222	106.41667
2982.31	94.41667
2984.396	86.41667
2986.482	91.75
2988.566	100.08333
2990.648	94.75
2992.73	93.75
2994.81	83.41667
2996.889	99.41667
2998.966	92.75
3001.042	105.75
3003.117	90.41667
3005.191	95.41667
3007.263	98.41667
3009.334	90.08333
3011.403	91.75
3013.472	83.75
3015.539	108.75
3017.604	110.75
3019.669	76.41667
3021.732	86.41667
3023.794	94.08333
3025.854	82.08333
3027.914	75.75
3029.971	82.75
3032.028	82.75
3034.083	91.08333
3036.137	91.08333
3038.19	75.75
3040.242	71.75
3042.292	71.08333
3044.341	77.08333
3046.388	93.08333
3048.435	70.41667
3050.48	88.41667
3052.524	77.41667
3054.566	62.08333
3056.607	77.41667
3058.647	73.75
3060.686	61.41667
3062.723	57.41667
3064.759	58.75
3066.794	-0.91667
3068.828	0.08333
3070.86	3.75
