-0.839	131.41667
3.438	142.08333
7.711	65.41667
11.981	43.08333
16.247	34.41667
20.509	36.08333
24.768	35.75
29.024	45.08333
33.276	31.08333
37.524	43.08333
41.769	26.75
46.01	27.41667
50.247	43.41667
54.481	51.08333
58.712	51.08333
62.939	36.75
67.162	55.75
71.382	45.08333
75.599	38.75
79.812	41.75
84.021	63.08333
88.227	40.41667
92.429	54.41667
96.628	37.41667
100.823	53.75
105.015	50.75
109.204	45.41667
113.388	60.08333
117.57	42.75
121.748	59.75
125.922	50.41667
130.093	63.08333
134.261	62.41667
138.425	53.75
142.585	86.08333
146.742	65.75
150.896	77.41667
155.046	76.41667
159.193	114.75
163.336	165.41667
167.476	279.75
171.613	501.08333
175.746	813.41667
179.875	1195.75
184.002	1536.41667
188.124	1821.75
192.244	1902.08333
196.36	1895.75
200.472	1898.41667
204.581	1864.08333
208.687	1807.41667
212.79	1803.41667
216.889	1809.75
220.984	1838.75
225.077	1841.75
229.165	1851.75
233.251	1854.41667
237.333	1859.08333
241.412	1845.75
245.487	1853.41667
249.559	1801.75
253.628	1807.41667
257.694	1786.08333
261.756	1792.08333
265.814	1761.08333
269.87	1705.08333
273.922	1688.41667
277.97	1652.08333
282.016	1646.08333
286.058	1644.41667
290.097	1672.75
294.132	1687.41667
298.164	1673.75
302.193	1625.08333
306.219	1534.41667
310.241	1445.08333
314.26	1351.41667
318.276	1291.08333
322.288	1242.41667
326.297	1222.08333
330.303	1177.41667
334.305	1170.08333
338.305	1165.41667
342.301	1149.75
346.294	1143.75
350.283	1127.08333
354.269	1131.75
358.252	1112.75
362.232	1133.08333
366.209	1131.75
370.182	1124.08333
374.152	1112.75
378.119	1115.08333
382.083	1104.75
386.043	1119.41667
390	1117.41667
393.954	1117.75
397.905	1123.08333
401.852	1126.75
405.797	1114.41667
409.738	1117.75
413.676	1132.41667
417.61	1135.75
421.542	1101.08333
425.47	1094.41667
429.396	1103.41667
433.318	1087.75
437.236	1080.75
441.152	1120.08333
445.065	1071.08333
448.974	1087.75
452.88	1073.08333
456.783	1070.41667
460.683	1073.75
464.58	1071.08333
468.473	1084.41667
472.364	1083.08333
476.251	1073.75
480.135	1094.41667
484.016	1107.75
487.894	1099.08333
491.769	1106.75
495.641	1092.75
499.509	1126.75
503.375	1110.08333
507.237	1092.41667
511.096	1103.41667
514.952	1099.41667
518.805	1112.08333
522.655	1084.75
526.502	1092.75
530.346	1098.41667
534.187	1107.41667
538.024	1096.75
541.859	1096.41667
545.69	1121.41667
549.519	1100.41667
553.344	1097.08333
557.166	1065.75
560.985	1076.08333
564.802	1082.08333
568.615	1065.08333
572.425	1050.75
576.232	1039.75
580.036	1047.75
583.836	1047.75
587.634	1060.08333
591.429	1042.75
595.221	1081.75
599.01	1069.08333
602.796	1075.41667
606.578	1055.08333
610.358	1082.08333
614.135	1071.75
617.909	1071.75
621.679	1060.41667
625.447	1047.75
629.212	1065.41667
632.973	1064.75
636.732	1069.41667
640.488	1057.75
644.241	1041.41667
647.991	1046.41667
651.737	1064.08333
655.481	1017.41667
659.222	1040.08333
662.96	1038.08333
666.695	1045.75
670.427	1048.08333
674.156	1051.41667
677.882	1034.41667
681.605	1044.41667
685.325	1040.41667
689.043	1042.08333
692.757	1037.08333
696.468	1036.75
700.177	1044.41667
703.882	1020.41667
707.585	1014.08333
711.284	1017.08333
714.981	1009.41667
718.675	1004.08333
722.366	1020.75
726.054	988.08333
729.739	984.08333
733.421	1003.75
737.1	1006.41667
740.777	1022.08333
744.45	1008.75
748.121	1019.41667
751.789	1044.75
755.453	1018.08333
759.115	1030.08333
762.774	1018.08333
766.431	1039.41667
770.084	1029.75
773.734	1024.08333
777.382	1052.41667
781.027	1061.75
784.669	1048.41667
788.308	1055.41667
791.944	1059.08333
795.577	1069.41667
799.208	1062.75
802.835	1062.75
806.46	1070.75
810.082	1072.08333
813.701	1061.75
817.317	1081.08333
820.931	1081.41667
824.542	1083.08333
828.149	1037.75
831.754	1048.08333
835.357	1054.08333
838.956	1061.75
842.553	1056.08333
846.146	1039.08333
849.737	1020.41667
853.326	1034.41667
856.911	1016.75
860.493	1032.41667
864.073	1038.41667
867.65	1051.08333
871.225	1065.75
874.796	1059.75
878.365	1038.41667
881.931	1062.75
885.494	1070.41667
889.054	1050.08333
892.612	1053.41667
896.166	1038.41667
899.719	1030.41667
903.268	1012.08333
906.814	1019.75
910.358	1014.08333
913.899	995.41667
917.438	994.08333
920.973	980.75
924.506	1002.75
928.036	1014.08333
931.564	1025.75
935.088	1037.75
938.61	1021.75
942.129	1013.08333
945.646	1039.08333
949.16	1047.08333
952.671	1052.41667
956.179	1070.41667
959.685	1069.41667
963.188	1076.41667
966.688	1058.41667
970.185	1023.41667
973.68	1007.75
977.173	1000.41667
980.662	993.75
984.149	986.41667
987.633	964.75
991.114	988.75
994.593	1002.41667
998.069	1014.75
1001.542	1022.75
1005.013	1023.08333
1008.481	962.75
1011.947	974.75
1015.409	953.08333
1018.869	963.08333
1022.327	963.75
1025.782	940.08333
1029.234	936.75
1032.683	937.75
1036.13	913.41667
1039.574	879.08333
1043.016	871.75
1046.455	851.08333
1049.891	835.75
1053.325	848.75
1056.756	836.41667
1060.184	840.41667
1063.61	846.08333
1067.033	862.41667
1070.454	844.41667
1073.872	862.08333
1077.287	840.08333
1080.7	844.75
1084.11	844.41667
1087.517	835.41667
1090.922	833.41667
1094.325	827.41667
1097.724	814.08333
1101.122	798.75
1104.516	813.08333
1107.908	805.75
1111.298	824.75
1114.684	818.75
1118.069	812.41667
1121.45	854.41667
1124.83	822.41667
1128.206	832.41667
1131.58	863.75
1134.951	861.41667
1138.32	876.08333
1141.687	902.41667
1145.05	923.08333
1148.412	923.75
1151.77	906.41667
1155.126	899.41667
1158.48	883.75
1161.831	899.75
1165.18	897.41667
1168.525	923.08333
1171.869	925.08333
1175.21	928.08333
1178.548	933.75
1181.884	947.75
1185.217	951.75
1188.548	968.75
1191.877	990.75
1195.202	1026.41667
1198.526	1034.75
1201.846	1025.75
1205.165	1031.08333
1208.48	1040.75
1211.794	1035.75
1215.104	1015.41667
1218.413	1030.41667
1221.719	1022.75
1225.022	1004.75
1228.323	993.08333
1231.621	990.08333
1234.917	980.41667
1238.21	1002.41667
1241.501	981.41667
1244.79	971.08333
1248.076	954.41667
1251.359	984.08333
1254.64	1026.08333
1257.919	993.75
1261.195	1012.41667
1264.468	1026.41667
1267.74	1025.75
1271.008	1028.08333
1274.275	1030.41667
1277.538	1018.75
1280.8	1015.08333
1284.059	1022.41667
1287.315	1047.75
1290.569	1030.41667
1293.821	1038.41667
1297.07	1036.08333
1300.317	1048.75
1303.562	1054.08333
1306.803	1032.08333
1310.043	1036.08333
1313.28	1028.41667
1316.515	1029.75
1319.747	1018.08333
1322.977	1002.41667
1326.204	990.75
1329.429	996.75
1332.652	992.41667
1335.872	981.41667
1339.09	979.41667
1342.306	976.75
1345.519	970.41667
1348.729	966.41667
1351.938	959.41667
1355.144	946.41667
1358.347	942.75
1361.548	944.75
1364.747	945.08333
1367.944	925.75
1371.138	930.75
1374.329	922.08333
1377.518	934.75
1380.705	925.75
1383.89	927.08333
1387.072	908.41667
1390.252	876.75
1393.429	860.08333
1396.605	832.08333
1399.777	806.08333
1402.948	804.41667
1406.116	783.08333
1409.282	799.41667
1412.445	798.75
1415.606	810.75
1418.765	803.75
1421.921	826.41667
1425.075	826.08333
1428.227	850.41667
1431.376	871.08333
1434.524	896.41667
1437.668	923.08333
1440.811	919.41667
1443.951	931.75
1447.089	944.75
1450.224	926.41667
1453.357	936.75
1456.488	922.41667
1459.617	908.75
1462.743	896.41667
1465.867	879.41667
1468.989	875.08333
1472.108	856.08333
1475.225	852.08333
1478.34	828.08333
1481.453	839.75
1484.563	824.08333
1487.671	842.41667
1490.776	844.08333
1493.88	843.08333
1496.981	868.75
1500.08	864.41667
1503.176	869.41667
1506.271	881.75
1509.363	893.08333
1512.452	887.75
1515.54	901.75
1518.625	911.08333
1521.708	931.41667
1524.789	967.41667
1527.867	980.75
1530.944	1037.75
1534.018	1050.75
1537.089	1114.41667
1540.159	1108.75
1543.226	1129.08333
1546.291	1097.08333
1549.354	1071.41667
1552.415	1066.41667
1555.473	1029.75
1558.529	1014.75
1561.583	1009.08333
1564.634	992.75
1567.684	996.41667
1570.731	1002.41667
1573.776	1023.75
1576.819	1017.75
1579.859	1019.41667
1582.898	1026.08333
1585.934	1043.41667
1588.968	1053.08333
1591.999	1035.08333
1595.029	1039.41667
1598.056	1047.75
1601.081	1070.75
1604.104	1059.08333
1607.125	1043.41667
1610.144	1025.41667
1613.16	994.75
1616.174	979.41667
1619.186	958.08333
1622.196	943.41667
1625.203	916.08333
1628.209	901.41667
1631.212	906.41667
1634.213	904.41667
1637.212	922.75
1640.209	910.41667
1643.203	870.75
1646.196	860.08333
1649.186	810.75
1652.174	814.08333
1655.16	776.75
1658.144	771.41667
1661.125	743.41667
1664.105	718.75
1667.082	691.75
1670.057	649.75
1673.03	629.08333
1676.001	599.08333
1678.97	562.08333
1681.937	543.41667
1684.901	508.75
1687.863	509.75
1690.824	492.08333
1693.782	487.75
1696.738	461.41667
1699.692	457.75
1702.643	441.41667
1705.593	443.41667
1708.54	434.08333
1711.486	448.41667
1714.429	427.41667
1717.37	435.75
1720.309	413.41667
1723.246	430.41667
1726.181	406.08333
1729.113	416.75
1732.044	410.41667
1734.972	403.75
1737.899	420.41667
1740.823	414.08333
1743.745	433.41667
1746.665	391.75
1749.583	389.41667
1752.499	385.08333
1755.413	387.75
1758.325	368.75
1761.235	382.41667
1764.142	366.75
1767.048	368.08333
1769.951	358.75
1772.852	371.08333
1775.752	369.08333
1778.649	368.08333
1781.544	378.41667
1784.437	352.08333
1787.328	371.08333
1790.217	355.41667
1793.104	338.75
1795.989	339.08333
1798.872	337.08333
1801.753	350.75
1804.631	344.41667
1807.508	346.75
1810.383	347.08333
1813.255	346.08333
1816.126	340.41667
1818.994	337.75
1821.861	337.41667
1824.725	339.75
1827.587	344.41667
1830.448	335.41667
1833.306	323.75
1836.162	336.75
1839.017	339.75
1841.869	327.08333
1844.719	328.75
1847.567	315.41667
1850.414	313.41667
1853.258	311.75
1856.1	332.75
1858.94	328.41667
1861.778	317.08333
1864.614	306.41667
1867.448	325.41667
1870.28	302.75
1873.111	332.41667
1875.939	315.41667
1878.765	334.08333
1881.589	312.08333
1884.411	310.41667
1887.231	317.08333
1890.049	318.08333
1892.865	323.75
1895.68	309.41667
1898.492	309.08333
1901.302	312.75
1904.11	304.41667
1906.916	306.75
1909.721	299.75
1912.523	312.75
1915.323	297.75
1918.122	289.08333
1920.918	308.08333
1923.712	286.41667
1926.505	305.75
1929.295	279.08333
1932.084	297.75
1934.87	300.08333
1937.655	297.75
1940.438	283.75
1943.218	285.08333
1945.997	301.41667
1948.774	304.75
1951.549	303.08333
1954.322	288.41667
1957.093	293.41667
1959.862	288.75
1962.629	282.75
1965.394	284.08333
1968.157	269.75
1970.918	282.75
1973.678	272.75
1976.435	290.75
1979.19	278.08333
1981.944	265.41667
1984.696	272.08333
1987.445	273.08333
1990.193	268.75
1992.939	289.08333
1995.683	278.08333
1998.425	254.08333
2001.165	289.08333
2003.903	259.08333
2006.639	269.75
2009.374	272.08333
2012.106	269.41667
2014.837	253.08333
2017.566	266.75
2020.292	263.41667
2023.017	263.08333
2025.74	258.41667
2028.461	248.08333
2031.18	267.08333
2033.898	251.41667
2036.613	260.08333
2039.327	262.75
2042.038	254.08333
2044.748	261.75
2047.456	264.75
2050.162	248.08333
2052.866	253.41667
2055.568	266.08333
2058.268	250.75
2060.967	261.75
2063.663	245.75
2066.358	247.75
2069.051	250.41667
2071.742	244.75
2074.431	258.08333
2077.118	248.75
2079.804	240.41667
2082.487	246.08333
2085.169	259.41667
2087.849	272.41667
2090.527	245.41667
2093.203	240.08333
2095.877	250.41667
2098.55	243.08333
2101.22	251.08333
2103.889	256.41667
2106.556	246.75
2109.221	263.08333
2111.884	243.41667
2114.546	272.41667
2117.205	273.75
2119.863	312.08333
2122.519	304.08333
2125.173	312.08333
2127.825	339.41667
2130.475	345.08333
2133.124	332.08333
2135.771	309.75
2138.416	324.41667
2141.059	298.75
2143.7	299.41667
2146.339	267.75
2148.977	245.41667
2151.613	269.75
2154.247	258.75
2156.879	242.08333
2159.51	241.41667
2162.138	243.41667
2164.765	238.08333
2167.39	228.41667
2170.013	246.75
2172.634	245.08333
2175.254	229.08333
2177.872	267.75
2180.488	224.08333
2183.102	225.75
2185.714	228.75
2188.325	225.41667
2190.934	232.75
2193.541	225.08333
2196.146	225.08333
2198.75	214.75
2201.351	213.08333
2203.951	195.41667
2206.549	219.41667
2209.146	210.08333
2211.74	206.41667
2214.333	215.41667
2216.924	204.41667
2219.514	209.41667
2222.101	201.75
2224.687	219.08333
2227.271	193.08333
2229.853	202.41667
2232.433	181.75
2235.012	212.41667
2237.589	201.75
2240.164	214.41667
2242.738	197.41667
2245.309	192.41667
2247.879	212.41667
2250.448	205.41667
2253.014	200.75
2255.579	183.75
2258.142	192.08333
2260.703	190.08333
2263.262	193.41667
2265.82	182.08333
2268.376	200.41667
2270.93	193.08333
2273.483	175.41667
2276.033	187.08333
2278.583	181.41667
2281.13	180.75
2283.675	175.08333
2286.219	182.08333
2288.761	187.75
2291.302	187.08333
2293.841	195.08333
2296.377	173.08333
2298.913	182.41667
2301.446	192.41667
2303.978	178.08333
2306.508	181.41667
2309.037	177.75
2311.563	187.41667
2314.088	186.41667
2316.612	164.75
2319.133	185.08333
2321.653	181.08333
2324.171	171.75
2326.688	192.08333
2329.202	178.08333
2331.715	180.75
2334.227	178.08333
2336.736	173.08333
2339.244	176.08333
2341.751	162.08333
2344.255	175.41667
2346.758	181.08333
2349.259	167.08333
2351.759	175.08333
2354.257	167.08333
2356.753	159.41667
2359.247	167.75
2361.74	169.08333
2364.231	167.08333
2366.721	180.75
2369.209	160.41667
2371.695	167.08333
2374.179	160.08333
2376.662	157.08333
2379.143	177.08333
2381.622	170.75
2384.1	170.75
2386.576	157.08333
2389.051	175.08333
2391.524	176.75
2393.995	168.08333
2396.464	157.08333
2398.932	157.08333
2401.398	166.41667
2403.863	155.41667
2406.325	155.08333
2408.787	162.08333
2411.246	156.41667
2413.704	160.75
2416.16	154.41667
2418.615	158.41667
2421.068	162.08333
2423.519	154.41667
2425.969	151.08333
2428.417	166.75
2430.863	178.08333
2433.308	170.75
2435.751	162.08333
2438.193	157.75
2440.633	159.41667
2443.071	164.08333
2445.508	155.41667
2447.943	154.08333
2450.376	150.41667
2452.808	162.08333
2455.238	145.41667
2457.667	178.08333
2460.093	149.08333
2462.519	141.08333
2464.942	150.08333
2467.365	153.75
2469.785	156.41667
2472.204	142.41667
2474.621	147.08333
2477.037	169.08333
2479.451	143.41667
2481.863	140.08333
2484.274	148.75
2486.683	147.08333
2489.091	158.41667
2491.497	151.08333
2493.901	151.41667
2496.304	147.75
2498.705	157.75
2501.105	149.08333
2503.503	165.75
2505.899	137.08333
2508.294	164.08333
2510.687	138.75
2513.079	143.08333
2515.469	141.75
2517.858	140.75
2520.245	153.41667
2522.63	147.08333
2525.014	139.41667
2527.396	139.75
2529.776	140.41667
2532.156	146.08333
2534.533	136.41667
2536.909	134.75
2539.283	128.75
2541.656	132.08333
2544.027	146.41667
2546.397	145.08333
2548.765	135.75
2551.131	143.75
2553.496	146.75
2555.86	140.08333
2558.221	145.08333
2560.582	133.08333
2562.94	127.41667
2565.298	137.08333
2567.653	146.08333
2570.007	129.08333
2572.36	146.08333
2574.711	133.08333
2577.06	151.41667
2579.408	140.08333
2581.754	137.41667
2584.099	130.41667
2586.442	130.08333
2588.784	140.08333
2591.124	132.75
2593.463	134.08333
2595.8	143.08333
2598.135	124.75
2600.469	121.41667
2602.802	144.41667
2605.133	150.41667
2607.462	125.08333
2609.79	120.41667
2612.116	141.08333
2614.441	132.75
2616.764	134.75
2619.086	135.75
2621.406	127.75
2623.725	141.08333
2626.042	132.41667
2628.358	126.75
2630.672	130.75
2632.985	138.75
2635.296	141.41667
2637.606	132.75
2639.914	127.08333
2642.22	131.41667
2644.525	131.41667
2646.829	127.75
2649.131	141.08333
2651.432	136.08333
2653.731	124.75
2656.028	141.08333
2658.324	132.75
2660.619	122.08333
2662.912	139.75
2665.204	119.08333
2667.494	134.75
2669.782	125.41667
2672.07	143.08333
2674.355	142.75
2676.639	138.75
2678.922	129.08333
2681.203	136.08333
2683.483	127.08333
2685.761	118.41667
2688.038	142.41667
2690.313	145.41667
2692.587	127.41667
2694.859	127.08333
2697.13	130.41667
2699.399	132.08333
2701.667	142.75
2703.933	134.75
2706.198	143.08333
2708.461	142.41667
2710.723	141.75
2712.984	137.41667
2715.243	142.08333
2717.5	132.75
2719.757	141.75
2722.011	131.41667
2724.264	145.41667
2726.516	151.08333
2728.766	133.75
2731.015	136.41667
2733.262	140.08333
2735.508	131.75
2737.753	142.75
2739.996	122.41667
2742.237	128.75
2744.477	142.41667
2746.716	150.41667
2748.953	144.75
2751.189	145.08333
2753.423	138.75
2755.656	126.75
2757.887	130.08333
2760.117	132.75
2762.346	122.41667
2764.573	116.41667
2766.798	126.41667
2769.022	129.75
2771.245	123.41667
2773.467	125.08333
2775.686	122.08333
2777.905	136.75
2780.122	133.08333
2782.337	134.41667
2784.552	126.08333
2786.764	124.41667
2788.976	127.41667
2791.186	131.75
2793.394	127.75
2795.601	136.75
2797.807	138.75
2800.011	137.41667
2802.214	146.41667
2804.415	134.75
2806.615	137.75
2808.814	139.08333
2811.011	148.75
2813.206	144.41667
2815.401	155.08333
2817.594	145.08333
2819.785	155.08333
2821.975	139.41667
2824.164	144.41667
2826.351	148.75
2828.537	158.75
2830.722	158.75
2832.905	156.75
2835.086	157.75
2837.267	180.41667
2839.445	178.75
2841.623	174.75
2843.799	173.41667
2845.974	189.75
2848.147	182.41667
2850.319	196.08333
2852.489	209.08333
2854.659	204.08333
2856.826	209.75
2858.993	226.75
2861.158	202.08333
2863.321	212.41667
2865.483	226.08333
2867.644	220.41667
2869.804	219.08333
2871.962	216.75
2874.118	215.75
2876.274	222.75
2878.428	216.41667
2880.58	218.08333
2882.731	204.75
2884.881	207.75
2887.03	222.75
2889.177	222.08333
2891.322	227.41667
2893.467	212.75
2895.61	210.75
2897.751	232.08333
2899.892	212.75
2902.03	226.08333
2904.168	216.08333
2906.304	216.41667
2908.439	241.41667
2910.572	220.75
2912.704	226.41667
2914.835	232.75
2916.965	231.75
2919.093	241.41667
2921.219	218.08333
2923.345	238.08333
2925.469	221.75
2927.591	224.75
2929.712	206.75
2931.832	216.08333
2933.951	213.41667
2936.068	205.08333
2938.184	204.41667
2940.299	196.75
2942.412	195.08333
2944.524	179.75
2946.634	191.75
2948.744	161.75
2950.851	202.08333
2952.958	162.08333
2955.063	177.08333
2957.167	164.41667
2959.269	152.75
2961.371	182.41667
2963.471	152.41667
2965.569	171.08333
2967.666	139.75
2969.762	144.75
2971.857	143.41667
2973.95	135.08333
2976.042	149.75
2978.133	137.75
2980.222	137.75
2982.31	127.08333
2984.396	111.08333
2986.482	123.75
2988.566	126.41667
2990.648	120.08333
2992.73	123.41667
2994.81	113.08333
2996.889	129.75
2998.966	122.08333
3001.042	130.75
3003.117	118.41667
3005.191	124.08333
3007.263	128.08333
3009.334	118.75
3011.403	120.41667
3013.472	112.75
3015.539	130.75
3017.604	135.08333
3019.669	107.75
3021.732	108.08333
3023.794	112.75
3025.854	105.08333
3027.914	107.75
3029.971	105.41667
3032.028	111.41667
3034.083	115.08333
3036.137	108.08333
3038.19	100.08333
3040.242	94.08333
3042.292	91.75
3044.341	101.41667
3046.388	113.08333
3048.435	93.41667
3050.48	108.41667
3052.524	98.08333
3054.566	88.41667
3056.607	96.08333
3058.647	93.08333
3060.686	77.08333
3062.723	76.75
3064.759	80.08333
3066.794	1.75
3068.828	-0.58333
3070.86	2.08333
