-0.839	126.5
3.438	147.83333
7.711	61.83333
11.981	43.16667
16.247	28.83333
20.509	39.5
24.768	34.16667
29.024	42.5
33.276	29.16667
37.524	39.5
41.769	28.16667
46.01	28.16667
50.247	41.83333
54.481	48.83333
58.712	56.83333
62.939	37.16667
67.162	53.16667
71.382	43.83333
75.599	35.83333
79.812	42.16667
84.021	69.16667
88.227	40.83333
92.429	51.5
96.628	38.5
100.823	55.16667
105.015	53.16667
109.204	42.83333
113.388	57.5
117.57	42.5
121.748	61.83333
125.922	47.16667
130.093	66.16667
134.261	68.16667
138.425	56.83333
142.585	83.83333
146.742	70.83333
150.896	83.83333
155.046	77.83333
159.193	113.16667
163.336	178.5
167.476	296.5
171.613	543.16667
175.746	875.5
179.875	1289.83333
184.002	1651.16667
188.124	1961.5
192.244	2057.5
196.36	2090.5
200.472	2090.16667
204.581	2055.16667
208.687	2017.83333
212.79	1998.5
216.889	2015.83333
220.984	2037.5
225.077	2051.16667
229.165	2037.16667
233.251	2055.5
237.333	2052.83333
241.412	2029.5
245.487	2013.5
249.559	1998.5
253.628	2003.83333
257.694	1972.5
261.756	1967.5
265.814	1953.5
269.87	1915.5
273.922	1878.83333
277.97	1875.16667
282.016	1870.5
286.058	1849.16667
290.097	1878.5
294.132	1896.83333
298.164	1886.83333
302.193	1855.16667
306.219	1742.5
310.241	1678.16667
314.26	1608.16667
318.276	1546.83333
322.288	1510.5
326.297	1475.16667
330.303	1457.83333
334.305	1450.83333
338.305	1436.83333
342.301	1436.83333
346.294	1433.16667
350.283	1438.16667
354.269	1418.5
358.252	1419.83333
362.232	1441.16667
366.209	1423.83333
370.182	1417.5
374.152	1407.83333
378.119	1434.5
382.083	1422.16667
386.043	1432.5
390	1415.83333
393.954	1438.16667
397.905	1433.16667
401.852	1457.16667
405.797	1438.83333
409.738	1441.16667
413.676	1454.5
417.61	1452.5
421.542	1439.16667
425.47	1443.83333
429.396	1443.16667
433.318	1402.83333
437.236	1417.16667
441.152	1453.83333
445.065	1408.83333
448.974	1412.83333
452.88	1399.5
456.783	1386.16667
460.683	1405.83333
464.58	1403.16667
468.473	1405.5
472.364	1414.16667
476.251	1412.5
480.135	1411.16667
484.016	1433.16667
487.894	1453.5
491.769	1451.16667
495.641	1441.16667
499.509	1448.16667
503.375	1453.16667
507.237	1433.16667
511.096	1435.5
514.952	1432.5
518.805	1422.16667
522.655	1426.5
526.502	1417.16667
530.346	1433.16667
534.187	1435.83333
538.024	1432.5
541.859	1420.83333
545.69	1443.5
549.519	1441.16667
553.344	1419.16667
557.166	1405.5
560.985	1403.83333
564.802	1399.16667
568.615	1393.83333
572.425	1373.16667
576.232	1387.83333
580.036	1371.16667
583.836	1382.16667
587.634	1389.5
591.429	1373.16667
595.221	1400.5
599.01	1414.16667
602.796	1398.16667
606.578	1412.83333
610.358	1409.83333
614.135	1412.83333
617.909	1407.5
621.679	1402.83333
625.447	1389.83333
629.212	1407.5
632.973	1394.83333
636.732	1360.5
640.488	1386.16667
644.241	1364.5
647.991	1372.5
651.737	1373.5
655.481	1346.16667
659.222	1358.5
662.96	1362.83333
666.695	1359.83333
670.427	1377.5
674.156	1371.83333
677.882	1369.5
681.605	1375.16667
685.325	1354.83333
689.043	1380.5
692.757	1365.83333
696.468	1354.5
700.177	1353.83333
703.882	1329.5
707.585	1312.83333
711.284	1322.5
714.981	1312.5
718.675	1299.83333
722.366	1328.16667
726.054	1309.5
729.739	1309.83333
733.421	1318.16667
737.1	1302.16667
740.777	1321.5
744.45	1308.16667
748.121	1312.83333
751.789	1345.5
755.453	1313.5
759.115	1338.16667
762.774	1310.83333
766.431	1315.83333
770.084	1327.5
773.734	1313.83333
777.382	1317.16667
781.027	1331.83333
784.669	1323.83333
788.308	1318.5
791.944	1320.83333
795.577	1337.83333
799.208	1348.16667
802.835	1340.83333
806.46	1349.16667
810.082	1336.83333
813.701	1350.83333
817.317	1352.5
820.931	1351.83333
824.542	1355.83333
828.149	1331.83333
831.754	1314.16667
835.357	1313.5
838.956	1330.16667
842.553	1319.5
846.146	1301.16667
849.737	1274.16667
853.326	1283.5
856.911	1256.5
860.493	1269.5
864.073	1267.16667
867.65	1299.83333
871.225	1310.5
874.796	1297.83333
878.365	1284.83333
881.931	1294.5
885.494	1301.16667
889.054	1282.5
892.612	1301.83333
896.166	1266.5
899.719	1247.83333
903.268	1235.16667
906.814	1245.83333
910.358	1218.83333
913.899	1221.16667
917.438	1211.5
920.973	1200.5
924.506	1198.5
928.036	1229.83333
931.564	1244.16667
935.088	1233.83333
938.61	1237.83333
942.129	1232.5
945.646	1261.16667
949.16	1265.83333
952.671	1262.83333
956.179	1266.5
959.685	1266.16667
963.188	1269.16667
966.688	1248.83333
970.185	1210.83333
973.68	1203.83333
977.173	1192.83333
980.662	1176.5
984.149	1221.83333
987.633	1193.83333
991.114	1176.83333
994.593	1198.83333
998.069	1205.83333
1001.542	1232.5
1005.013	1232.5
1008.481	1159.16667
1011.947	1157.83333
1015.409	1140.16667
1018.869	1139.5
1022.327	1144.83333
1025.782	1121.16667
1029.234	1108.16667
1032.683	1105.5
1036.13	1086.5
1039.574	1042.16667
1043.016	1040.5
1046.455	1026.16667
1049.891	1014.16667
1053.325	1031.5
1056.756	1006.5
1060.184	1009.83333
1063.61	1008.16667
1067.033	1030.83333
1070.454	1007.83333
1073.872	1038.16667
1077.287	1008.5
1080.7	1021.5
1084.11	1004.5
1087.517	1008.83333
1090.922	999.83333
1094.325	968.5
1097.724	975.83333
1101.122	963.16667
1104.516	966.83333
1107.908	955.5
1111.298	970.16667
1114.684	976.16667
1118.069	966.5
1121.45	990.16667
1124.83	964.16667
1128.206	984.16667
1131.58	1001.16667
1134.951	999.5
1138.32	1013.83333
1141.687	1047.83333
1145.05	1063.5
1148.412	1050.83333
1151.77	1040.16667
1155.126	1047.83333
1158.48	1024.16667
1161.831	1030.5
1165.18	1032.83333
1168.525	1043.83333
1171.869	1050.83333
1175.21	1061.5
1178.548	1053.5
1181.884	1063.16667
1185.217	1064.83333
1188.548	1088.83333
1191.877	1103.83333
1195.202	1143.83333
1198.526	1142.5
1201.846	1161.83333
1205.165	1164.16667
1208.48	1156.83333
1211.794	1163.5
1215.104	1159.16667
1218.413	1140.16667
1221.719	1145.5
1225.022	1132.83333
1228.323	1106.83333
1231.621	1118.83333
1234.917	1116.5
1238.21	1105.16667
1241.501	1103.83333
1244.79	1093.83333
1248.076	1071.83333
1251.359	1095.5
1254.64	1140.16667
1257.919	1109.5
1261.195	1146.83333
1264.468	1137.83333
1267.74	1145.16667
1271.008	1149.83333
1274.275	1156.83333
1277.538	1141.83333
1280.8	1142.5
1284.059	1128.16667
1287.315	1141.5
1290.569	1132.83333
1293.821	1149.5
1297.07	1150.83333
1300.317	1139.83333
1303.562	1147.5
1306.803	1127.83333
1310.043	1124.83333
1313.28	1127.5
1316.515	1106.83333
1319.747	1111.16667
1322.977	1094.5
1326.204	1101.16667
1329.429	1108.83333
1332.652	1098.5
1335.872	1099.5
1339.09	1078.83333
1342.306	1082.83333
1345.519	1080.16667
1348.729	1075.5
1351.938	1091.83333
1355.144	1070.16667
1358.347	1044.83333
1361.548	1062.16667
1364.747	1041.16667
1367.944	1029.16667
1371.138	1032.83333
1374.329	1014.5
1377.518	1024.5
1380.705	1033.5
1383.89	1030.83333
1387.072	1006.16667
1390.252	998.83333
1393.429	967.83333
1396.605	946.5
1399.777	910.16667
1402.948	912.16667
1406.116	899.83333
1409.282	890.5
1412.445	879.83333
1415.606	903.16667
1418.765	918.5
1421.921	906.83333
1425.075	914.83333
1428.227	929.16667
1431.376	957.83333
1434.524	991.5
1437.668	1015.16667
1440.811	1013.83333
1443.951	1021.16667
1447.089	1020.16667
1450.224	1017.5
1453.357	1007.16667
1456.488	1000.5
1459.617	1005.16667
1462.743	1000.83333
1465.867	955.16667
1468.989	967.16667
1472.108	934.16667
1475.225	935.83333
1478.34	914.16667
1481.453	896.16667
1484.563	904.5
1487.671	904.5
1490.776	920.83333
1493.88	931.83333
1496.981	942.83333
1500.08	954.16667
1503.176	948.83333
1506.271	965.16667
1509.363	971.83333
1512.452	969.5
1515.54	976.83333
1518.625	979.83333
1521.708	1020.5
1524.789	1033.83333
1527.867	1063.83333
1530.944	1083.83333
1534.018	1125.16667
1537.089	1167.16667
1540.159	1170.5
1543.226	1173.83333
1546.291	1157.5
1549.354	1133.5
1552.415	1112.5
1555.473	1100.83333
1558.529	1084.5
1561.583	1061.16667
1564.634	1066.83333
1567.684	1052.5
1570.731	1054.83333
1573.776	1066.83333
1576.819	1061.16667
1579.859	1069.5
1582.898	1085.16667
1585.934	1099.16667
1588.968	1101.5
1591.999	1076.16667
1595.029	1070.83333
1598.056	1095.5
1601.081	1113.83333
1604.104	1111.16667
1607.125	1084.83333
1610.144	1078.16667
1613.16	1044.5
1616.174	1019.16667
1619.186	1023.16667
1622.196	1008.16667
1625.203	966.16667
1628.209	971.5
1631.212	957.16667
1634.213	963.16667
1637.212	975.83333
1640.209	976.83333
1643.203	941.83333
1646.196	912.16667
1649.186	892.83333
1652.174	877.5
1655.16	856.5
1658.144	844.16667
1661.125	795.16667
1664.105	783.5
1667.082	767.16667
1670.057	720.5
1673.03	689.5
1676.001	653.16667
1678.97	627.16667
1681.937	598.83333
1684.901	577.16667
1687.863	580.5
1690.824	538.5
1693.782	558.16667
1696.738	526.5
1699.692	516.16667
1702.643	509.16667
1705.593	502.83333
1708.54	500.83333
1711.486	514.16667
1714.429	482.83333
1717.37	494.83333
1720.309	484.83333
1723.246	494.5
1726.181	468.5
1729.113	474.16667
1732.044	476.5
1734.972	470.5
1737.899	479.5
1740.823	480.83333
1743.745	494.5
1746.665	451.5
1749.583	455.83333
1752.499	443.16667
1755.413	442.16667
1758.325	430.16667
1761.235	446.16667
1764.142	426.16667
1767.048	420.5
1769.951	429.16667
1772.852	425.16667
1775.752	441.5
1778.649	427.16667
1781.544	443.83333
1784.437	408.5
1787.328	425.83333
1790.217	420.16667
1793.104	399.5
1795.989	403.83333
1798.872	389.83333
1801.753	411.5
1804.631	407.16667
1807.508	407.83333
1810.383	403.5
1813.255	395.5
1816.126	395.5
1818.994	401.83333
1821.861	390.83333
1824.725	392.83333
1827.587	399.16667
1830.448	393.5
1833.306	394.83333
1836.162	399.5
1839.017	385.16667
1841.869	388.5
1844.719	385.16667
1847.567	361.83333
1850.414	368.16667
1853.258	363.83333
1856.1	383.83333
1858.94	390.83333
1861.778	371.16667
1864.614	365.83333
1867.448	371.16667
1870.28	353.5
1873.111	385.16667
1875.939	359.83333
1878.765	377.16667
1881.589	357.83333
1884.411	365.83333
1887.231	377.16667
1890.049	368.5
1892.865	369.5
1895.68	352.83333
1898.492	360.5
1901.302	357.5
1904.11	356.16667
1906.916	348.83333
1909.721	347.5
1912.523	362.16667
1915.323	352.83333
1918.122	337.83333
1920.918	355.83333
1923.712	341.83333
1926.505	347.5
1929.295	328.83333
1932.084	349.16667
1934.87	342.5
1937.655	332.83333
1940.438	323.5
1943.218	330.5
1945.997	333.5
1948.774	344.5
1951.549	339.16667
1954.322	334.16667
1957.093	325.83333
1959.862	332.83333
1962.629	330.16667
1965.394	326.5
1968.157	313.83333
1970.918	332.83333
1973.678	318.5
1976.435	326.83333
1979.19	321.16667
1981.944	308.83333
1984.696	309.83333
1987.445	311.16667
1990.193	319.5
1992.939	327.16667
1995.683	313.16667
1998.425	297.83333
2001.165	333.5
2003.903	299.83333
2006.639	309.16667
2009.374	321.16667
2012.106	311.83333
2014.837	291.83333
2017.566	313.16667
2020.292	299.16667
2023.017	301.83333
2025.74	292.16667
2028.461	287.83333
2031.18	302.5
2033.898	296.16667
2036.613	301.83333
2039.327	293.16667
2042.038	290.5
2044.748	294.83333
2047.456	303.5
2050.162	280.5
2052.866	291.83333
2055.568	307.16667
2058.268	289.83333
2060.967	295.16667
2063.663	277.83333
2066.358	276.16667
2069.051	276.83333
2071.742	283.16667
2074.431	289.16667
2077.118	276.83333
2079.804	270.5
2082.487	279.5
2085.169	281.83333
2087.849	299.83333
2090.527	272.5
2093.203	284.16667
2095.877	284.5
2098.55	280.5
2101.22	294.16667
2103.889	286.5
2106.556	273.16667
2109.221	300.5
2111.884	289.16667
2114.546	310.16667
2117.205	309.5
2119.863	345.16667
2122.519	344.83333
2125.173	352.5
2127.825	387.83333
2130.475	388.5
2133.124	368.83333
2135.771	353.16667
2138.416	359.83333
2141.059	328.5
2143.7	328.16667
2146.339	308.16667
2148.977	281.16667
2151.613	301.16667
2154.247	287.5
2156.879	284.5
2159.51	270.5
2162.138	274.83333
2164.765	268.83333
2167.39	256.83333
2170.013	279.83333
2172.634	266.83333
2175.254	263.16667
2177.872	297.16667
2180.488	249.16667
2183.102	247.83333
2185.714	255.5
2188.325	245.5
2190.934	246.5
2193.541	252.83333
2196.146	243.16667
2198.75	233.83333
2201.351	236.5
2203.951	229.83333
2206.549	245.83333
2209.146	234.83333
2211.74	228.83333
2214.333	244.83333
2216.924	225.83333
2219.514	232.5
2222.101	234.83333
2224.687	241.5
2227.271	222.16667
2229.853	221.5
2232.433	204.16667
2235.012	231.5
2237.589	226.83333
2240.164	240.16667
2242.738	220.83333
2245.309	209.16667
2247.879	238.5
2250.448	217.83333
2253.014	214.83333
2255.579	203.5
2258.142	206.5
2260.703	207.5
2263.262	208.83333
2265.82	198.16667
2268.376	220.5
2270.93	205.83333
2273.483	203.83333
2276.033	209.5
2278.583	201.16667
2281.13	199.83333
2283.675	193.5
2286.219	198.5
2288.761	202.16667
2291.302	211.5
2293.841	209.16667
2296.377	193.5
2298.913	202.16667
2301.446	211.5
2303.978	200.5
2306.508	198.5
2309.037	203.5
2311.563	197.5
2314.088	203.83333
2316.612	184.5
2319.133	200.5
2321.653	196.83333
2324.171	189.16667
2326.688	200.5
2329.202	193.5
2331.715	197.5
2334.227	195.16667
2336.736	186.83333
2339.244	184.5
2341.751	173.83333
2344.255	200.83333
2346.758	193.83333
2349.259	179.83333
2351.759	193.16667
2354.257	180.83333
2356.753	178.16667
2359.247	181.5
2361.74	186.5
2364.231	179.16667
2366.721	195.16667
2369.209	176.5
2371.695	178.83333
2374.179	177.16667
2376.662	170.16667
2379.143	186.5
2381.622	173.5
2384.1	189.83333
2386.576	172.5
2389.051	187.16667
2391.524	183.5
2393.995	180.83333
2396.464	172.5
2398.932	170.83333
2401.398	172.16667
2403.863	171.5
2406.325	167.16667
2408.787	174.5
2411.246	172.5
2413.704	173.5
2416.16	164.5
2418.615	166.83333
2421.068	170.83333
2423.519	168.83333
2425.969	158.5
2428.417	174.16667
2430.863	186.5
2433.308	170.83333
2435.751	171.5
2438.193	165.5
2440.633	169.83333
2443.071	172.83333
2445.508	162.83333
2447.943	164.83333
2450.376	168.16667
2452.808	174.16667
2455.238	155.16667
2457.667	188.83333
2460.093	155.83333
2462.519	145.83333
2464.942	154.5
2467.365	160.83333
2469.785	167.5
2472.204	158.16667
2474.621	153.83333
2477.037	175.5
2479.451	149.5
2481.863	150.16667
2484.274	153.5
2486.683	159.83333
2489.091	166.83333
2491.497	160.16667
2493.901	160.83333
2496.304	154.5
2498.705	162.16667
2501.105	150.83333
2503.503	173.83333
2505.899	143.5
2508.294	172.16667
2510.687	147.83333
2513.079	152.83333
2515.469	144.16667
2517.858	141.5
2520.245	162.5
2522.63	152.83333
2525.014	141.5
2527.396	149.5
2529.776	144.16667
2532.156	149.5
2534.533	138.5
2536.909	140.5
2539.283	132.16667
2541.656	140.5
2544.027	159.5
2546.397	153.5
2548.765	143.16667
2551.131	146.83333
2553.496	147.16667
2555.86	146.16667
2558.221	152.5
2560.582	134.5
2562.94	134.5
2565.298	140.83333
2567.653	156.5
2570.007	132.16667
2572.36	152.16667
2574.711	133.5
2577.06	152.83333
2579.408	141.5
2581.754	138.5
2584.099	135.83333
2586.442	142.5
2588.784	147.5
2591.124	137.16667
2593.463	139.83333
2595.8	140.83333
2598.135	124.5
2600.469	129.5
2602.802	138.16667
2605.133	144.83333
2607.462	125.16667
2609.79	126.83333
2612.116	144.16667
2614.441	134.16667
2616.764	134.5
2619.086	135.83333
2621.406	128.16667
2623.725	144.16667
2626.042	138.16667
2628.358	127.16667
2630.672	135.83333
2632.985	144.83333
2635.296	138.5
2637.606	133.16667
2639.914	128.83333
2642.22	123.5
2644.525	140.16667
2646.829	132.83333
2649.131	144.5
2651.432	138.16667
2653.731	128.5
2656.028	142.5
2658.324	132.5
2660.619	120.83333
2662.912	143.5
2665.204	125.83333
2667.494	136.5
2669.782	123.83333
2672.07	141.5
2674.355	137.16667
2676.639	139.5
2678.922	127.5
2681.203	136.5
2683.483	125.16667
2685.761	119.83333
2688.038	138.83333
2690.313	143.16667
2692.587	129.16667
2694.859	130.83333
2697.13	132.16667
2699.399	135.83333
2701.667	131.83333
2703.933	130.83333
2706.198	147.16667
2708.461	136.5
2710.723	138.83333
2712.984	132.16667
2715.243	139.83333
2717.5	133.5
2719.757	145.5
2722.011	128.5
2724.264	140.5
2726.516	144.16667
2728.766	125.5
2731.015	137.16667
2733.262	134.16667
2735.508	130.83333
2737.753	137.16667
2739.996	122.16667
2742.237	122.5
2744.477	135.16667
2746.716	143.16667
2748.953	141.5
2751.189	138.16667
2753.423	130.16667
2755.656	126.5
2757.887	124.5
2760.117	124.5
2762.346	118.5
2764.573	111.83333
2766.798	123.16667
2769.022	125.16667
2771.245	122.83333
2773.467	121.5
2775.686	121.16667
2777.905	135.5
2780.122	122.83333
2782.337	131.5
2784.552	120.5
2786.764	126.83333
2788.976	119.83333
2791.186	127.5
2793.394	120.5
2795.601	134.5
2797.807	135.5
2800.011	127.16667
2802.214	138.83333
2804.415	128.5
2806.615	131.5
2808.814	129.5
2811.011	134.5
2813.206	136.5
2815.401	146.5
2817.594	142.16667
2819.785	147.16667
2821.975	134.83333
2824.164	136.83333
2826.351	135.83333
2828.537	155.83333
2830.722	147.5
2832.905	145.83333
2835.086	148.83333
2837.267	169.5
2839.445	161.83333
2841.623	162.5
2843.799	167.5
2845.974	174.83333
2848.147	175.5
2850.319	179.83333
2852.489	191.83333
2854.659	187.16667
2856.826	191.16667
2858.993	208.5
2861.158	187.5
2863.321	191.83333
2865.483	213.5
2867.644	204.83333
2869.804	204.16667
2871.962	193.5
2874.118	206.16667
2876.274	212.83333
2878.428	201.83333
2880.58	206.5
2882.731	195.83333
2884.881	195.5
2887.03	214.16667
2889.177	198.5
2891.322	209.83333
2893.467	202.5
2895.61	188.83333
2897.751	216.5
2899.892	202.16667
2902.03	202.83333
2904.168	200.5
2906.304	203.83333
2908.439	222.83333
2910.572	198.5
2912.704	209.16667
2914.835	212.16667
2916.965	214.83333
2919.093	229.5
2921.219	195.5
2923.345	228.5
2925.469	203.16667
2927.591	207.83333
2929.712	193.5
2931.832	200.83333
2933.951	199.16667
2936.068	189.16667
2938.184	189.5
2940.299	179.83333
2942.412	177.83333
2944.524	158.5
2946.634	175.5
2948.744	149.5
2950.851	184.83333
2952.958	154.83333
2955.063	158.5
2957.167	150.83333
2959.269	145.83333
2961.371	170.16667
2963.471	144.16667
2965.569	159.16667
2967.666	127.5
2969.762	131.16667
2971.857	128.16667
2973.95	122.16667
2976.042	134.16667
2978.133	121.83333
2980.222	128.5
2982.31	112.16667
2984.396	101.83333
2986.482	105.83333
2988.566	113.5
2990.648	113.5
2992.73	110.16667
2994.81	97.16667
2996.889	116.16667
2998.966	105.5
3001.042	122.5
3003.117	104.83333
3005.191	111.83333
3007.263	113.16667
3009.334	107.16667
3011.403	109.5
3013.472	102.16667
3015.539	113.5
3017.604	127.83333
3019.669	93.83333
3021.732	98.83333
3023.794	103.5
3025.854	90.5
3027.914	88.5
3029.971	93.83333
3032.028	94.5
3034.083	104.16667
3036.137	99.16667
3038.19	85.16667
3040.242	84.5
3042.292	80.5
3044.341	87.16667
3046.388	102.16667
3048.435	78.83333
3050.48	103.16667
3052.524	89.5
3054.566	73.5
3056.607	89.5
3058.647	82.5
3060.686	69.83333
3062.723	66.83333
3064.759	70.83333
3066.794	0.83333
3068.828	1.83333
3070.86	1.5
