-0.839	117.91667
3.438	132.58333
7.711	58.25
11.981	44.91667
16.247	31.25
20.509	35.58333
24.768	32.91667
29.024	40.58333
33.276	29.25
37.524	37.25
41.769	28.91667
46.01	26.91667
50.247	41.25
54.481	51.25
58.712	55.91667
62.939	37.91667
67.162	52.25
71.382	42.58333
75.599	37.25
79.812	42.91667
84.021	62.58333
88.227	38.25
92.429	50.25
96.628	34.25
100.823	52.25
105.015	48.91667
109.204	44.58333
113.388	58.25
117.57	43.25
121.748	56.58333
125.922	50.58333
130.093	59.91667
134.261	64.58333
138.425	50.58333
142.585	76.91667
146.742	62.58333
150.896	74.91667
155.046	71.58333
159.193	102.25
163.336	143.25
167.476	244.58333
171.613	435.58333
175.746	704.58333
179.875	1013.25
184.002	1285.25
188.124	1532.25
192.244	1587.25
196.36	1609.25
200.472	1580.91667
204.581	1550.25
208.687	1505.91667
212.79	1509.91667
216.889	1527.58333
220.984	1529.58333
225.077	1517.91667
229.165	1533.25
233.251	1523.25
237.333	1520.58333
241.412	1501.58333
245.487	1513.25
249.559	1483.25
253.628	1477.91667
257.694	1454.58333
261.756	1448.91667
265.814	1417.25
269.87	1394.58333
273.922	1355.91667
277.97	1348.25
282.016	1342.58333
286.058	1324.25
290.097	1378.58333
294.132	1372.25
298.164	1349.58333
302.193	1299.58333
306.219	1225.58333
310.241	1162.91667
314.26	1085.25
318.276	1044.25
322.288	1013.25
326.297	968.91667
330.303	952.58333
334.305	938.58333
338.305	940.91667
342.301	920.25
346.294	943.91667
350.283	918.25
354.269	907.58333
358.252	902.91667
362.232	893.58333
366.209	913.91667
370.182	897.91667
374.152	908.58333
378.119	897.25
382.083	879.58333
386.043	906.25
390	895.91667
393.954	894.25
397.905	896.25
401.852	913.91667
405.797	887.25
409.738	881.91667
413.676	918.25
417.61	922.58333
421.542	893.25
425.47	877.91667
429.396	861.91667
433.318	866.91667
437.236	874.25
441.152	903.91667
445.065	866.91667
448.974	869.58333
452.88	857.58333
456.783	859.25
460.683	847.58333
464.58	851.91667
468.473	860.58333
472.364	858.25
476.251	833.25
480.135	861.91667
484.016	873.58333
487.894	872.25
491.769	874.58333
495.641	878.25
499.509	877.91667
503.375	878.91667
507.237	862.25
511.096	862.91667
514.952	874.91667
518.805	870.25
522.655	859.25
526.502	861.58333
530.346	872.91667
534.187	869.91667
538.024	863.25
541.859	860.25
545.69	884.91667
549.519	864.58333
553.344	877.91667
557.166	859.58333
560.985	861.58333
564.802	859.58333
568.615	828.91667
572.425	814.91667
576.232	825.58333
580.036	826.25
583.836	837.58333
587.634	835.58333
591.429	824.25
595.221	865.25
599.01	848.25
602.796	849.58333
606.578	844.58333
610.358	848.91667
614.135	846.58333
617.909	853.25
621.679	837.91667
625.447	841.25
629.212	841.25
632.973	843.91667
636.732	837.25
640.488	833.25
644.241	815.58333
647.991	821.91667
651.737	845.91667
655.481	810.91667
659.222	818.58333
662.96	812.91667
666.695	821.25
670.427	826.25
674.156	839.25
677.882	832.25
681.605	840.91667
685.325	819.91667
689.043	836.25
692.757	823.91667
696.468	828.91667
700.177	819.25
703.882	795.91667
707.585	797.58333
711.284	811.58333
714.981	792.25
718.675	794.91667
722.366	809.58333
726.054	796.58333
729.739	810.91667
733.421	796.25
737.1	800.91667
740.777	832.25
744.45	795.25
748.121	795.25
751.789	839.58333
755.453	822.91667
759.115	831.91667
762.774	812.25
766.431	818.91667
770.084	834.25
773.734	818.25
777.382	848.25
781.027	853.58333
784.669	837.91667
788.308	831.25
791.944	851.25
795.577	854.25
799.208	855.58333
802.835	850.58333
806.46	857.91667
810.082	866.91667
813.701	866.91667
817.317	876.58333
820.931	858.58333
824.542	869.25
828.149	849.91667
831.754	847.91667
835.357	851.25
838.956	871.25
842.553	849.91667
846.146	845.91667
849.737	810.58333
853.326	826.58333
856.911	812.25
860.493	843.58333
864.073	843.58333
867.65	859.91667
871.225	864.25
874.796	850.91667
878.365	845.25
881.931	859.91667
885.494	869.91667
889.054	846.25
892.612	855.25
896.166	854.91667
899.719	837.91667
903.268	818.91667
906.814	814.25
910.358	813.91667
913.899	806.91667
917.438	798.58333
920.973	775.25
924.506	798.58333
928.036	816.25
931.564	805.91667
935.088	841.91667
938.61	815.25
942.129	833.91667
945.646	836.91667
949.16	829.25
952.671	857.25
956.179	869.25
959.685	848.25
963.188	858.58333
966.688	837.91667
970.185	813.91667
973.68	798.58333
977.173	797.91667
980.662	791.25
984.149	794.91667
987.633	769.58333
991.114	788.91667
994.593	818.58333
998.069	819.91667
1001.542	834.91667
1005.013	828.25
1008.481	779.25
1011.947	786.91667
1015.409	770.91667
1018.869	773.58333
1022.327	776.25
1025.782	751.25
1029.234	740.91667
1032.683	755.91667
1036.13	721.58333
1039.574	705.91667
1043.016	691.25
1046.455	680.58333
1049.891	672.58333
1053.325	691.25
1056.756	680.58333
1060.184	685.25
1063.61	662.25
1067.033	682.91667
1070.454	671.58333
1073.872	698.58333
1077.287	676.91667
1080.7	677.58333
1084.11	681.58333
1087.517	677.25
1090.922	667.58333
1094.325	660.58333
1097.724	665.58333
1101.122	694.25
1104.516	668.58333
1107.908	648.25
1111.298	646.58333
1114.684	653.58333
1118.069	652.91667
1121.45	690.58333
1124.83	660.25
1128.206	670.58333
1131.58	674.25
1134.951	687.91667
1138.32	701.25
1141.687	737.25
1145.05	733.25
1148.412	724.25
1151.77	737.25
1155.126	727.58333
1158.48	721.58333
1161.831	732.58333
1165.18	721.91667
1168.525	742.58333
1171.869	754.25
1175.21	742.25
1178.548	768.91667
1181.884	763.25
1185.217	754.91667
1188.548	781.58333
1191.877	790.25
1195.202	822.58333
1198.526	835.58333
1201.846	841.91667
1205.165	841.91667
1208.48	833.25
1211.794	843.91667
1215.104	846.91667
1218.413	832.58333
1221.719	829.25
1225.022	816.25
1228.323	812.25
1231.621	818.25
1234.917	810.25
1238.21	831.91667
1241.501	796.91667
1244.79	792.91667
1248.076	779.91667
1251.359	800.58333
1254.64	846.91667
1257.919	831.91667
1261.195	827.91667
1264.468	838.25
1267.74	845.25
1271.008	850.25
1274.275	848.58333
1277.538	846.91667
1280.8	847.25
1284.059	831.25
1287.315	847.91667
1290.569	846.25
1293.821	847.91667
1297.07	863.25
1300.317	852.91667
1303.562	859.25
1306.803	850.25
1310.043	862.58333
1313.28	842.91667
1316.515	840.58333
1319.747	833.58333
1322.977	835.58333
1326.204	823.25
1329.429	810.91667
1332.652	814.25
1335.872	808.91667
1339.09	797.25
1342.306	798.25
1345.519	792.25
1348.729	783.25
1351.938	788.91667
1355.144	773.91667
1358.347	780.58333
1361.548	777.58333
1364.747	792.58333
1367.944	754.25
1371.138	781.25
1374.329	768.25
1377.518	768.58333
1380.705	770.25
1383.89	770.25
1387.072	746.58333
1390.252	731.91667
1393.429	711.58333
1396.605	689.91667
1399.777	666.58333
1402.948	668.25
1406.116	655.25
1409.282	656.25
1412.445	662.25
1415.606	665.58333
1418.765	668.91667
1421.921	688.58333
1425.075	691.91667
1428.227	706.25
1431.376	725.25
1434.524	760.25
1437.668	762.91667
1440.811	767.25
1443.951	781.25
1447.089	782.58333
1450.224	776.91667
1453.357	779.25
1456.488	765.58333
1459.617	763.25
1462.743	755.91667
1465.867	723.25
1468.989	726.25
1472.108	706.25
1475.225	698.58333
1478.34	680.91667
1481.453	687.91667
1484.563	672.91667
1487.671	692.58333
1490.776	698.25
1493.88	700.25
1496.981	708.58333
1500.08	722.25
1503.176	721.25
1506.271	735.25
1509.363	734.25
1512.452	743.58333
1515.54	740.58333
1518.625	743.91667
1521.708	777.91667
1524.789	813.91667
1527.867	817.25
1530.944	856.25
1534.018	891.25
1537.089	931.91667
1540.159	925.58333
1543.226	942.25
1546.291	908.91667
1549.354	918.58333
1552.415	889.91667
1555.473	878.91667
1558.529	858.91667
1561.583	847.25
1564.634	834.91667
1567.684	819.91667
1570.731	836.25
1573.776	839.91667
1576.819	848.58333
1579.859	843.58333
1582.898	843.25
1585.934	863.91667
1588.968	870.91667
1591.999	851.58333
1595.029	862.91667
1598.056	873.25
1601.081	887.91667
1604.104	872.25
1607.125	864.25
1610.144	857.25
1613.16	826.58333
1616.174	794.91667
1619.186	797.91667
1622.196	781.25
1625.203	757.91667
1628.209	753.91667
1631.212	744.58333
1634.213	745.91667
1637.212	738.58333
1640.209	739.91667
1643.203	709.58333
1646.196	688.91667
1649.186	669.91667
1652.174	666.58333
1655.16	647.25
1658.144	646.58333
1661.125	613.58333
1664.105	595.25
1667.082	579.91667
1670.057	541.25
1673.03	520.91667
1676.001	493.25
1678.97	465.25
1681.937	444.91667
1684.901	424.91667
1687.863	420.58333
1690.824	394.91667
1693.782	413.58333
1696.738	374.58333
1699.692	370.25
1702.643	367.58333
1705.593	365.25
1708.54	360.91667
1711.486	370.58333
1714.429	349.58333
1717.37	359.58333
1720.309	332.91667
1723.246	348.58333
1726.181	345.91667
1729.113	338.91667
1732.044	336.91667
1734.972	330.58333
1737.899	351.91667
1740.823	348.91667
1743.745	366.58333
1746.665	329.58333
1749.583	313.58333
1752.499	316.91667
1755.413	313.91667
1758.325	307.91667
1761.235	316.58333
1764.142	298.25
1767.048	298.58333
1769.951	306.58333
1772.852	295.25
1775.752	306.58333
1778.649	306.25
1781.544	315.58333
1784.437	280.91667
1787.328	296.25
1790.217	295.91667
1793.104	275.25
1795.989	279.25
1798.872	267.25
1801.753	291.58333
1804.631	280.58333
1807.508	290.58333
1810.383	285.58333
1813.255	278.25
1816.126	274.91667
1818.994	275.91667
1821.861	273.58333
1824.725	278.25
1827.587	280.91667
1830.448	273.91667
1833.306	267.58333
1836.162	281.58333
1839.017	269.25
1841.869	266.58333
1844.719	263.58333
1847.567	261.25
1850.414	260.25
1853.258	253.58333
1856.1	268.58333
1858.94	272.58333
1861.778	260.58333
1864.614	256.58333
1867.448	270.25
1870.28	246.25
1873.111	273.58333
1875.939	264.25
1878.765	277.91667
1881.589	257.91667
1884.411	261.25
1887.231	256.25
1890.049	258.25
1892.865	263.25
1895.68	248.91667
1898.492	254.91667
1901.302	255.25
1904.11	247.58333
1906.916	254.58333
1909.721	249.25
1912.523	259.25
1915.323	242.91667
1918.122	236.58333
1920.918	257.58333
1923.712	242.25
1926.505	247.58333
1929.295	230.91667
1932.084	250.58333
1934.87	246.58333
1937.655	241.91667
1940.438	227.91667
1943.218	240.91667
1945.997	242.58333
1948.774	245.58333
1951.549	248.91667
1954.322	234.91667
1957.093	236.25
1959.862	236.58333
1962.629	235.91667
1965.394	227.91667
1968.157	229.58333
1970.918	233.58333
1973.678	223.58333
1976.435	237.25
1979.19	229.91667
1981.944	213.25
1984.696	223.58333
1987.445	218.25
1990.193	227.58333
1992.939	234.91667
1995.683	221.91667
1998.425	213.58333
2001.165	244.91667
2003.903	213.58333
2006.639	222.91667
2009.374	228.91667
2012.106	227.25
2014.837	203.58333
2017.566	230.91667
2020.292	216.25
2023.017	214.91667
2025.74	209.91667
2028.461	207.91667
2031.18	219.91667
2033.898	206.91667
2036.613	214.91667
2039.327	222.25
2042.038	202.58333
2044.748	216.91667
2047.456	222.25
2050.162	204.25
2052.866	205.91667
2055.568	215.58333
2058.268	204.58333
2060.967	221.91667
2063.663	200.58333
2066.358	205.58333
2069.051	197.91667
2071.742	209.25
2074.431	213.25
2077.118	199.91667
2079.804	199.25
2082.487	206.58333
2085.169	220.58333
2087.849	228.58333
2090.527	202.91667
2093.203	202.58333
2095.877	206.91667
2098.55	203.25
2101.22	210.91667
2103.889	214.25
2106.556	203.25
2109.221	221.91667
2111.884	216.25
2114.546	243.25
2117.205	237.58333
2119.863	274.25
2122.519	265.58333
2125.173	280.58333
2127.825	320.91667
2130.475	311.91667
2133.124	293.58333
2135.771	281.91667
2138.416	292.58333
2141.059	263.25
2143.7	266.25
2146.339	240.25
2148.977	217.91667
2151.613	222.91667
2154.247	227.58333
2156.879	219.58333
2159.51	205.25
2162.138	205.25
2164.765	203.58333
2167.39	192.91667
2170.013	216.58333
2172.634	206.91667
2175.254	198.58333
2177.872	232.25
2180.488	184.91667
2183.102	193.25
2185.714	198.91667
2188.325	181.91667
2190.934	190.58333
2193.541	195.25
2196.146	187.25
2198.75	174.58333
2201.351	181.25
2203.951	169.91667
2206.549	186.91667
2209.146	182.25
2211.74	169.25
2214.333	183.91667
2216.924	167.25
2219.514	178.25
2222.101	170.25
2224.687	186.25
2227.271	166.58333
2229.853	168.58333
2232.433	159.58333
2235.012	177.91667
2237.589	168.91667
2240.164	180.58333
2242.738	160.91667
2245.309	159.58333
2247.879	178.58333
2250.448	176.91667
2253.014	157.91667
2255.579	146.25
2258.142	160.58333
2260.703	156.91667
2263.262	152.58333
2265.82	146.25
2268.376	164.91667
2270.93	156.58333
2273.483	148.25
2276.033	168.58333
2278.583	155.58333
2281.13	151.91667
2283.675	143.25
2286.219	154.91667
2288.761	155.91667
2291.302	158.58333
2293.841	161.58333
2296.377	142.58333
2298.913	153.91667
2301.446	165.91667
2303.978	156.25
2306.508	151.25
2309.037	157.91667
2311.563	149.91667
2314.088	155.25
2316.612	139.58333
2319.133	154.91667
2321.653	147.91667
2324.171	147.91667
2326.688	158.58333
2329.202	151.91667
2331.715	151.58333
2334.227	149.25
2336.736	151.58333
2339.244	144.91667
2341.751	135.58333
2344.255	152.58333
2346.758	146.91667
2349.259	130.58333
2351.759	147.91667
2354.257	136.58333
2356.753	132.58333
2359.247	137.25
2361.74	139.25
2364.231	134.58333
2366.721	147.91667
2369.209	137.91667
2371.695	138.25
2374.179	130.58333
2376.662	126.58333
2379.143	144.91667
2381.622	142.25
2384.1	150.58333
2386.576	137.58333
2389.051	148.91667
2391.524	146.91667
2393.995	144.25
2396.464	139.58333
2398.932	131.25
2401.398	138.25
2403.863	131.25
2406.325	128.25
2408.787	135.58333
2411.246	136.91667
2413.704	130.58333
2416.16	132.58333
2418.615	126.91667
2421.068	134.25
2423.519	130.58333
2425.969	123.91667
2428.417	140.91667
2430.863	152.25
2433.308	139.25
2435.751	135.25
2438.193	135.91667
2440.633	132.58333
2443.071	143.25
2445.508	127.25
2447.943	129.58333
2450.376	125.91667
2452.808	134.91667
2455.238	119.58333
2457.667	154.25
2460.093	124.25
2462.519	109.58333
2464.942	118.91667
2467.365	128.58333
2469.785	129.58333
2472.204	121.58333
2474.621	120.58333
2477.037	140.58333
2479.451	115.58333
2481.863	116.25
2484.274	119.58333
2486.683	126.91667
2489.091	129.58333
2491.497	126.91667
2493.901	128.91667
2496.304	123.25
2498.705	129.91667
2501.105	125.91667
2503.503	140.91667
2505.899	116.58333
2508.294	138.58333
2510.687	117.58333
2513.079	122.91667
2515.469	111.91667
2517.858	121.58333
2520.245	130.91667
2522.63	122.91667
2525.014	115.91667
2527.396	112.91667
2529.776	116.58333
2532.156	123.91667
2534.533	112.58333
2536.909	105.91667
2539.283	100.58333
2541.656	114.25
2544.027	134.25
2546.397	124.58333
2548.765	113.91667
2551.131	119.25
2553.496	120.91667
2555.86	126.25
2558.221	118.91667
2560.582	113.58333
2562.94	105.91667
2565.298	117.25
2567.653	123.91667
2570.007	103.91667
2572.36	119.58333
2574.711	111.25
2577.06	128.91667
2579.408	114.58333
2581.754	119.25
2584.099	111.58333
2586.442	113.58333
2588.784	116.25
2591.124	110.91667
2593.463	109.91667
2595.8	115.25
2598.135	100.91667
2600.469	103.91667
2602.802	120.91667
2605.133	120.91667
2607.462	105.58333
2609.79	100.25
2612.116	118.58333
2614.441	113.58333
2616.764	114.25
2619.086	112.91667
2621.406	102.91667
2623.725	122.25
2626.042	111.25
2628.358	105.91667
2630.672	108.91667
2632.985	123.58333
2635.296	110.25
2637.606	109.25
2639.914	106.58333
2642.22	102.58333
2644.525	113.25
2646.829	113.25
2649.131	118.25
2651.432	112.25
2653.731	104.58333
2656.028	115.58333
2658.324	111.91667
2660.619	102.25
2662.912	115.91667
2665.204	100.58333
2667.494	112.25
2669.782	105.25
2672.07	117.91667
2674.355	120.58333
2676.639	111.25
2678.922	102.58333
2681.203	107.25
2683.483	103.25
2685.761	96.91667
2688.038	117.91667
2690.313	118.58333
2692.587	107.25
2694.859	99.91667
2697.13	109.25
2699.399	108.91667
2701.667	115.91667
2703.933	115.25
2706.198	120.58333
2708.461	122.91667
2710.723	118.91667
2712.984	110.91667
2715.243	123.58333
2717.5	109.91667
2719.757	121.58333
2722.011	109.91667
2724.264	119.91667
2726.516	130.91667
2728.766	105.25
2731.015	113.25
2733.262	112.25
2735.508	107.91667
2737.753	117.25
2739.996	100.58333
2742.237	101.91667
2744.477	120.91667
2746.716	125.25
2748.953	120.58333
2751.189	122.91667
2753.423	119.25
2755.656	106.25
2757.887	105.91667
2760.117	102.25
2762.346	99.25
2764.573	92.58333
2766.798	106.25
2769.022	104.91667
2771.245	97.91667
2773.467	105.91667
2775.686	103.91667
2777.905	110.91667
2780.122	104.91667
2782.337	114.91667
2784.552	101.25
2786.764	107.25
2788.976	104.58333
2791.186	110.25
2793.394	109.91667
2795.601	115.25
2797.807	114.58333
2800.011	112.25
2802.214	118.91667
2804.415	108.58333
2806.615	111.58333
2808.814	115.91667
2811.011	117.91667
2813.206	115.25
2815.401	131.58333
2817.594	129.25
2819.785	131.25
2821.975	117.58333
2824.164	117.91667
2826.351	118.58333
2828.537	143.91667
2830.722	131.25
2832.905	124.58333
2835.086	134.58333
2837.267	151.25
2839.445	143.58333
2841.623	138.91667
2843.799	142.25
2845.974	156.25
2848.147	157.58333
2850.319	163.25
2852.489	171.25
2854.659	175.25
2856.826	172.58333
2858.993	190.91667
2861.158	164.91667
2863.321	175.58333
2865.483	186.91667
2867.644	180.91667
2869.804	186.58333
2871.962	172.25
2874.118	177.58333
2876.274	184.91667
2878.428	175.91667
2880.58	182.91667
2882.731	171.25
2884.881	180.25
2887.03	187.25
2889.177	180.58333
2891.322	188.91667
2893.467	176.91667
2895.61	172.25
2897.751	188.58333
2899.892	179.58333
2902.03	180.91667
2904.168	182.58333
2906.304	176.91667
2908.439	202.58333
2910.572	175.25
2912.704	185.25
2914.835	184.91667
2916.965	188.25
2919.093	207.25
2921.219	168.58333
2923.345	205.58333
2925.469	186.25
2927.591	182.25
2929.712	169.58333
2931.832	180.58333
2933.951	169.25
2936.068	163.25
2938.184	163.58333
2940.299	162.91667
2942.412	162.25
2944.524	142.25
2946.634	156.58333
2948.744	133.58333
2950.851	165.25
2952.958	133.25
2955.063	147.91667
2957.167	136.91667
2959.269	126.58333
2961.371	155.91667
2963.471	119.58333
2965.569	142.91667
2967.666	114.91667
2969.762	119.58333
2971.857	109.91667
2973.95	106.58333
2976.042	119.58333
2978.133	110.58333
2980.222	105.58333
2982.31	99.91667
2984.396	86.25
2986.482	95.91667
2988.566	96.58333
2990.648	100.25
2992.73	94.91667
2994.81	88.91667
2996.889	99.91667
2998.966	93.58333
3001.042	105.91667
3003.117	89.91667
3005.191	97.25
3007.263	102.25
3009.334	91.58333
3011.403	94.91667
3013.472	91.91667
3015.539	104.91667
3017.604	114.25
3019.669	77.91667
3021.732	84.91667
3023.794	85.91667
3025.854	77.25
3027.914	80.25
3029.971	83.25
3032.028	83.91667
3034.083	88.25
3036.137	89.25
3038.19	78.25
3040.242	73.25
3042.292	69.25
3044.341	78.91667
3046.388	93.25
3048.435	71.25
3050.48	92.25
3052.524	76.58333
3054.566	62.25
3056.607	75.25
3058.647	76.91667
3060.686	68.25
3062.723	61.91667
3064.759	62.58333
3066.794	0.91667
3068.828	-0.08333
3070.86	3.91667
