-0.839	140.70833
3.438	157.375
7.711	64.375
11.981	45.375
16.247	32.70833
20.509	38.04167
24.768	38.04167
29.024	43.375
33.276	30.70833
37.524	43.375
41.769	30.375
46.01	26.375
50.247	45.04167
54.481	52.04167
58.712	55.04167
62.939	39.375
67.162	56.70833
71.382	45.04167
75.599	36.375
79.812	44.375
84.021	66.375
88.227	45.04167
92.429	51.70833
96.628	38.04167
100.823	51.04167
105.015	56.70833
109.204	47.70833
113.388	60.375
117.57	46.04167
121.748	61.70833
125.922	48.70833
130.093	66.70833
134.261	66.375
138.425	59.04167
142.585	86.70833
146.742	66.04167
150.896	82.04167
155.046	78.70833
159.193	124.375
163.336	172.375
167.476	296.375
171.613	530.70833
175.746	851.04167
179.875	1269.375
184.002	1626.04167
188.124	1935.04167
192.244	2033.04167
196.36	2065.70833
200.472	2045.375
204.581	2009.70833
208.687	1959.04167
212.79	1968.375
216.889	1989.04167
220.984	2001.04167
225.077	1997.70833
229.165	2000.70833
233.251	2012.70833
237.333	2001.70833
241.412	1973.70833
245.487	1990.04167
249.559	1972.70833
253.628	1971.70833
257.694	1970.375
261.756	1980.70833
265.814	1935.04167
269.87	1868.375
273.922	1852.375
277.97	1823.04167
282.016	1809.375
286.058	1807.70833
290.097	1828.04167
294.132	1846.04167
298.164	1836.375
302.193	1811.70833
306.219	1700.70833
310.241	1632.375
314.26	1545.70833
318.276	1490.04167
322.288	1457.375
326.297	1408.04167
330.303	1411.70833
334.305	1403.04167
338.305	1382.04167
342.301	1383.70833
346.294	1380.375
350.283	1374.70833
354.269	1372.375
358.252	1373.70833
362.232	1364.04167
366.209	1372.375
370.182	1356.04167
374.152	1368.375
378.119	1362.375
382.083	1348.04167
386.043	1386.04167
390	1379.70833
393.954	1409.375
397.905	1424.70833
401.852	1428.375
405.797	1393.04167
409.738	1463.70833
413.676	1547.375
417.61	1607.70833
421.542	1464.70833
425.47	1380.70833
429.396	1362.375
433.318	1349.70833
437.236	1352.70833
441.152	1388.70833
445.065	1322.375
448.974	1352.04167
452.88	1343.375
456.783	1323.375
460.683	1329.04167
464.58	1328.375
468.473	1341.04167
472.364	1351.70833
476.251	1318.70833
480.135	1351.04167
484.016	1342.04167
487.894	1380.375
491.769	1375.375
495.641	1372.04167
499.509	1379.70833
503.375	1374.04167
507.237	1357.70833
511.096	1378.375
514.952	1390.04167
518.805	1394.04167
522.655	1401.375
526.502	1370.375
530.346	1369.375
534.187	1370.04167
538.024	1365.375
541.859	1347.70833
545.69	1369.375
549.519	1354.04167
553.344	1358.70833
557.166	1327.70833
560.985	1330.70833
564.802	1339.04167
568.615	1327.375
572.425	1299.375
576.232	1296.04167
580.036	1312.04167
583.836	1313.70833
587.634	1313.04167
591.429	1307.70833
595.221	1324.70833
599.01	1335.70833
602.796	1334.70833
606.578	1340.04167
610.358	1332.375
614.135	1325.04167
617.909	1331.04167
621.679	1324.70833
625.447	1304.04167
629.212	1303.70833
632.973	1325.70833
636.732	1335.375
640.488	1332.375
644.241	1297.70833
647.991	1284.70833
651.737	1304.70833
655.481	1280.375
659.222	1279.70833
662.96	1286.375
666.695	1291.375
670.427	1300.375
674.156	1315.375
677.882	1299.04167
681.605	1297.375
685.325	1275.375
689.043	1310.04167
692.757	1305.70833
696.468	1275.70833
700.177	1276.04167
703.882	1256.04167
707.585	1245.70833
711.284	1246.04167
714.981	1239.70833
718.675	1240.375
722.366	1248.04167
726.054	1234.70833
729.739	1233.375
733.421	1235.04167
737.1	1230.70833
740.777	1243.04167
744.45	1242.375
748.121	1232.375
751.789	1268.04167
755.453	1241.04167
759.115	1255.375
762.774	1250.04167
766.431	1254.04167
770.084	1248.04167
773.734	1235.04167
777.382	1268.375
781.027	1256.04167
784.669	1265.04167
788.308	1247.70833
791.944	1276.04167
795.577	1270.375
799.208	1279.70833
802.835	1276.70833
806.46	1283.375
810.082	1287.375
813.701	1282.70833
817.317	1284.375
820.931	1281.70833
824.542	1293.04167
828.149	1275.04167
831.754	1250.04167
835.357	1252.04167
838.956	1269.375
842.553	1299.375
846.146	1279.375
849.737	1231.70833
853.326	1221.375
856.911	1206.70833
860.493	1237.70833
864.073	1258.375
867.65	1351.375
871.225	1323.70833
874.796	1241.04167
878.365	1220.04167
881.931	1235.04167
885.494	1230.70833
889.054	1229.04167
892.612	1237.04167
896.166	1205.70833
899.719	1204.70833
903.268	1186.04167
906.814	1183.375
910.358	1170.70833
913.899	1155.375
917.438	1167.04167
920.973	1125.70833
924.506	1140.375
928.036	1180.375
931.564	1180.70833
935.088	1204.375
938.61	1188.04167
942.129	1187.04167
945.646	1197.70833
949.16	1209.70833
952.671	1208.04167
956.179	1233.70833
959.685	1205.70833
963.188	1222.375
966.688	1199.375
970.185	1163.04167
973.68	1144.70833
977.173	1148.04167
980.662	1127.375
984.149	1144.375
987.633	1113.375
991.114	1132.375
994.593	1142.04167
998.069	1149.375
1001.542	1208.04167
1005.013	1196.70833
1008.481	1101.04167
1011.947	1108.70833
1015.409	1080.375
1018.869	1097.375
1022.327	1106.04167
1025.782	1078.04167
1029.234	1063.70833
1032.683	1062.375
1036.13	1035.70833
1039.574	1016.70833
1043.016	983.375
1046.455	977.375
1049.891	964.70833
1053.325	990.375
1056.756	970.70833
1060.184	976.04167
1063.61	958.375
1067.033	987.70833
1070.454	962.70833
1073.872	997.375
1077.287	967.375
1080.7	970.375
1084.11	966.375
1087.517	964.375
1090.922	947.04167
1094.325	935.375
1097.724	935.375
1101.122	925.375
1104.516	917.375
1107.908	921.04167
1111.298	927.375
1114.684	923.70833
1118.069	921.375
1121.45	957.04167
1124.83	935.04167
1128.206	946.375
1131.58	941.375
1134.951	967.04167
1138.32	992.375
1141.687	1012.70833
1145.05	1022.04167
1148.412	1006.04167
1151.77	1019.375
1155.126	1008.04167
1158.48	989.70833
1161.831	1004.70833
1165.18	1003.70833
1168.525	1000.375
1171.869	1016.70833
1175.21	1002.04167
1178.548	1031.70833
1181.884	1033.375
1185.217	1034.04167
1188.548	1070.04167
1191.877	1068.04167
1195.202	1111.375
1198.526	1121.375
1201.846	1121.375
1205.165	1123.04167
1208.48	1133.375
1211.794	1128.04167
1215.104	1122.375
1218.413	1109.70833
1221.719	1095.375
1225.022	1089.375
1228.323	1087.375
1231.621	1084.70833
1234.917	1075.375
1238.21	1107.70833
1241.501	1064.375
1244.79	1054.70833
1248.076	1040.375
1251.359	1070.04167
1254.64	1120.04167
1257.919	1077.70833
1261.195	1105.04167
1264.468	1116.70833
1267.74	1130.70833
1271.008	1121.375
1274.275	1125.375
1277.538	1108.375
1280.8	1121.04167
1284.059	1104.70833
1287.315	1129.04167
1290.569	1102.70833
1293.821	1117.70833
1297.07	1114.375
1300.317	1111.375
1303.562	1123.375
1306.803	1109.70833
1310.043	1098.70833
1313.28	1093.70833
1316.515	1093.375
1319.747	1106.375
1322.977	1094.375
1326.204	1081.04167
1329.429	1061.375
1332.652	1069.04167
1335.872	1068.04167
1339.09	1062.375
1342.306	1059.70833
1345.519	1056.375
1348.729	1035.70833
1351.938	1054.70833
1355.144	1029.375
1358.347	1005.375
1361.548	1025.04167
1364.747	1008.375
1367.944	984.04167
1371.138	988.70833
1374.329	992.04167
1377.518	1006.70833
1380.705	1001.375
1383.89	1004.04167
1387.072	979.04167
1390.252	964.70833
1393.429	945.70833
1396.605	915.04167
1399.777	896.375
1402.948	889.04167
1406.116	864.04167
1409.282	870.375
1412.445	868.04167
1415.606	885.375
1418.765	875.375
1421.921	873.375
1425.075	887.04167
1428.227	903.70833
1431.376	939.375
1434.524	962.375
1437.668	989.04167
1440.811	996.375
1443.951	990.04167
1447.089	1013.04167
1450.224	994.70833
1453.357	989.70833
1456.488	984.70833
1459.617	993.04167
1462.743	966.70833
1465.867	934.04167
1468.989	934.375
1472.108	920.04167
1475.225	907.375
1478.34	905.04167
1481.453	889.375
1484.563	890.70833
1487.671	897.375
1490.776	913.70833
1493.88	920.375
1496.981	925.04167
1500.08	917.375
1503.176	921.04167
1506.271	932.70833
1509.363	956.70833
1512.452	954.04167
1515.54	948.04167
1518.625	967.70833
1521.708	998.375
1524.789	1013.375
1527.867	1039.375
1530.944	1080.375
1534.018	1115.375
1537.089	1149.375
1540.159	1162.375
1543.226	1166.04167
1546.291	1130.375
1549.354	1112.04167
1552.415	1113.04167
1555.473	1082.375
1558.529	1063.70833
1561.583	1079.70833
1564.634	1033.04167
1567.684	1038.04167
1570.731	1046.70833
1573.776	1044.04167
1576.819	1067.70833
1579.859	1062.04167
1582.898	1084.04167
1585.934	1092.04167
1588.968	1086.04167
1591.999	1070.70833
1595.029	1066.70833
1598.056	1081.70833
1601.081	1111.375
1604.104	1104.375
1607.125	1085.375
1610.144	1061.04167
1613.16	1037.04167
1616.174	1006.04167
1619.186	1018.04167
1622.196	990.04167
1625.203	961.375
1628.209	967.70833
1631.212	951.04167
1634.213	958.70833
1637.212	966.375
1640.209	952.04167
1643.203	923.375
1646.196	905.70833
1649.186	874.375
1652.174	872.04167
1655.16	819.70833
1658.144	827.70833
1661.125	781.375
1664.105	756.375
1667.082	736.70833
1670.057	692.04167
1673.03	674.70833
1676.001	649.375
1678.97	602.04167
1681.937	585.375
1684.901	563.04167
1687.863	558.04167
1690.824	521.70833
1693.782	545.70833
1696.738	505.04167
1699.692	510.04167
1702.643	488.04167
1705.593	498.04167
1708.54	477.04167
1711.486	489.70833
1714.429	476.04167
1717.37	481.70833
1720.309	474.70833
1723.246	474.04167
1726.181	461.375
1729.113	461.04167
1732.044	456.70833
1734.972	462.70833
1737.899	467.375
1740.823	477.375
1743.745	483.04167
1746.665	448.70833
1749.583	438.375
1752.499	442.70833
1755.413	433.70833
1758.325	424.04167
1761.235	429.375
1764.142	420.70833
1767.048	416.375
1769.951	422.04167
1772.852	419.375
1775.752	469.04167
1778.649	509.70833
1781.544	460.70833
1784.437	409.70833
1787.328	414.375
1790.217	409.04167
1793.104	385.375
1795.989	390.375
1798.872	386.375
1801.753	405.375
1804.631	389.70833
1807.508	400.375
1810.383	388.04167
1813.255	392.04167
1816.126	384.375
1818.994	387.70833
1821.861	383.375
1824.725	384.375
1827.587	386.70833
1830.448	381.375
1833.306	370.375
1836.162	391.375
1839.017	365.70833
1841.869	371.375
1844.719	375.04167
1847.567	358.375
1850.414	352.375
1853.258	354.70833
1856.1	366.70833
1858.94	383.04167
1861.778	357.70833
1864.614	357.375
1867.448	353.70833
1870.28	343.04167
1873.111	370.04167
1875.939	349.375
1878.765	361.375
1881.589	354.04167
1884.411	357.04167
1887.231	361.70833
1890.049	360.70833
1892.865	361.375
1895.68	353.70833
1898.492	368.70833
1901.302	354.04167
1904.11	349.375
1906.916	348.04167
1909.721	335.375
1912.523	346.04167
1915.323	338.04167
1918.122	337.70833
1920.918	349.70833
1923.712	331.70833
1926.505	341.70833
1929.295	317.375
1932.084	336.04167
1934.87	338.70833
1937.655	332.04167
1940.438	316.04167
1943.218	326.70833
1945.997	320.04167
1948.774	339.04167
1951.549	336.375
1954.322	322.70833
1957.093	329.04167
1959.862	320.375
1962.629	324.70833
1965.394	315.70833
1968.157	316.70833
1970.918	322.04167
1973.678	314.04167
1976.435	322.375
1979.19	313.70833
1981.944	302.04167
1984.696	308.04167
1987.445	300.70833
1990.193	307.70833
1992.939	327.04167
1995.683	306.375
1998.425	289.375
2001.165	327.375
2003.903	289.375
2006.639	300.375
2009.374	309.375
2012.106	302.70833
2014.837	287.04167
2017.566	309.70833
2020.292	299.375
2023.017	286.04167
2025.74	286.70833
2028.461	291.04167
2031.18	290.70833
2033.898	282.70833
2036.613	291.04167
2039.327	297.04167
2042.038	276.70833
2044.748	291.375
2047.456	297.70833
2050.162	269.70833
2052.866	284.375
2055.568	290.04167
2058.268	282.375
2060.967	289.04167
2063.663	278.70833
2066.358	272.04167
2069.051	270.04167
2071.742	275.04167
2074.431	287.04167
2077.118	273.04167
2079.804	264.375
2082.487	267.04167
2085.169	285.70833
2087.849	295.70833
2090.527	277.375
2093.203	277.04167
2095.877	275.375
2098.55	281.70833
2101.22	285.375
2103.889	291.04167
2106.556	273.04167
2109.221	287.04167
2111.884	285.70833
2114.546	299.70833
2117.205	309.04167
2119.863	347.375
2122.519	330.70833
2125.173	349.375
2127.825	379.04167
2130.475	382.04167
2133.124	373.04167
2135.771	348.70833
2138.416	359.375
2141.059	325.375
2143.7	330.375
2146.339	305.04167
2148.977	276.04167
2151.613	300.04167
2154.247	290.70833
2156.879	286.04167
2159.51	263.70833
2162.138	271.70833
2164.765	263.04167
2167.39	247.04167
2170.013	274.375
2172.634	271.04167
2175.254	260.04167
2177.872	294.70833
2180.488	247.70833
2183.102	248.70833
2185.714	247.70833
2188.325	245.04167
2190.934	246.375
2193.541	263.04167
2196.146	253.04167
2198.75	239.375
2201.351	241.04167
2203.951	222.70833
2206.549	245.375
2209.146	239.375
2211.74	230.04167
2214.333	244.70833
2216.924	225.04167
2219.514	232.375
2222.101	235.70833
2224.687	242.04167
2227.271	218.375
2229.853	224.04167
2232.433	211.70833
2235.012	234.375
2237.589	223.04167
2240.164	238.70833
2242.738	220.375
2245.309	213.70833
2247.879	234.70833
2250.448	224.70833
2253.014	213.04167
2255.579	204.04167
2258.142	211.375
2260.703	212.04167
2263.262	208.04167
2265.82	211.70833
2268.376	218.375
2270.93	208.375
2273.483	206.04167
2276.033	215.375
2278.583	204.375
2281.13	206.70833
2283.675	196.04167
2286.219	206.375
2288.761	211.70833
2291.302	215.04167
2293.841	220.70833
2296.377	194.04167
2298.913	209.375
2301.446	217.04167
2303.978	209.375
2306.508	204.70833
2309.037	203.375
2311.563	206.04167
2314.088	199.04167
2316.612	194.375
2319.133	211.04167
2321.653	205.04167
2324.171	192.70833
2326.688	211.04167
2329.202	200.375
2331.715	201.70833
2334.227	198.375
2336.736	196.375
2339.244	200.375
2341.751	181.70833
2344.255	199.70833
2346.758	199.70833
2349.259	181.70833
2351.759	194.04167
2354.257	186.04167
2356.753	183.70833
2359.247	189.04167
2361.74	193.70833
2364.231	195.70833
2366.721	197.70833
2369.209	183.375
2371.695	189.375
2374.179	184.375
2376.662	175.70833
2379.143	199.375
2381.622	187.04167
2384.1	205.70833
2386.576	191.70833
2389.051	207.70833
2391.524	202.375
2393.995	197.04167
2396.464	186.375
2398.932	176.70833
2401.398	180.04167
2403.863	173.375
2406.325	179.04167
2408.787	185.70833
2411.246	183.04167
2413.704	185.70833
2416.16	179.375
2418.615	183.375
2421.068	181.70833
2423.519	177.375
2425.969	176.04167
2428.417	191.04167
2430.863	201.70833
2433.308	187.70833
2435.751	186.04167
2438.193	184.375
2440.633	189.375
2443.071	188.04167
2445.508	179.04167
2447.943	176.70833
2450.376	172.375
2452.808	182.70833
2455.238	169.04167
2457.667	200.375
2460.093	176.70833
2462.519	161.375
2464.942	166.04167
2467.365	177.375
2469.785	184.375
2472.204	170.04167
2474.621	172.70833
2477.037	196.70833
2479.451	166.04167
2481.863	170.375
2484.274	173.70833
2486.683	168.375
2489.091	186.04167
2491.497	175.375
2493.901	172.375
2496.304	168.70833
2498.705	177.375
2501.105	174.04167
2503.503	193.375
2505.899	160.375
2508.294	187.70833
2510.687	168.04167
2513.079	172.04167
2515.469	166.375
2517.858	166.04167
2520.245	178.375
2522.63	171.04167
2525.014	162.375
2527.396	159.70833
2529.776	165.70833
2532.156	174.70833
2534.533	157.375
2536.909	151.04167
2539.283	149.04167
2541.656	160.70833
2544.027	174.70833
2546.397	170.70833
2548.765	157.70833
2551.131	167.70833
2553.496	171.375
2555.86	170.70833
2558.221	169.70833
2560.582	161.375
2562.94	152.375
2565.298	173.04167
2567.653	173.375
2570.007	156.04167
2572.36	170.04167
2574.711	160.375
2577.06	171.04167
2579.408	163.04167
2581.754	163.70833
2584.099	161.375
2586.442	156.375
2588.784	165.70833
2591.124	164.375
2593.463	161.375
2595.8	162.70833
2598.135	149.375
2600.469	159.70833
2602.802	169.04167
2605.133	168.375
2607.462	155.375
2609.79	150.70833
2612.116	170.375
2614.441	159.375
2616.764	158.70833
2619.086	164.04167
2621.406	160.70833
2623.725	169.04167
2626.042	158.70833
2628.358	151.70833
2630.672	164.70833
2632.985	163.70833
2635.296	166.04167
2637.606	158.375
2639.914	160.375
2642.22	159.04167
2644.525	156.70833
2646.829	158.375
2649.131	178.70833
2651.432	167.70833
2653.731	153.375
2656.028	169.70833
2658.324	162.375
2660.619	150.375
2662.912	160.375
2665.204	151.04167
2667.494	172.70833
2669.782	155.04167
2672.07	172.375
2674.355	177.70833
2676.639	167.04167
2678.922	153.375
2681.203	167.04167
2683.483	154.04167
2685.761	145.375
2688.038	169.70833
2690.313	175.375
2692.587	162.375
2694.859	159.04167
2697.13	162.04167
2699.399	164.04167
2701.667	167.04167
2703.933	162.04167
2706.198	171.70833
2708.461	173.70833
2710.723	176.04167
2712.984	166.70833
2715.243	170.70833
2717.5	160.04167
2719.757	169.04167
2722.011	169.375
2724.264	175.70833
2726.516	181.375
2728.766	160.375
2731.015	167.04167
2733.262	159.70833
2735.508	161.04167
2737.753	170.70833
2739.996	154.70833
2742.237	161.04167
2744.477	170.375
2746.716	180.04167
2748.953	177.70833
2751.189	175.70833
2753.423	167.04167
2755.656	155.70833
2757.887	154.04167
2760.117	158.70833
2762.346	156.70833
2764.573	147.70833
2766.798	159.70833
2769.022	158.70833
2771.245	144.375
2773.467	161.375
2775.686	161.70833
2777.905	167.04167
2780.122	164.375
2782.337	164.70833
2784.552	156.70833
2786.764	158.375
2788.976	153.04167
2791.186	162.04167
2793.394	164.04167
2795.601	166.70833
2797.807	169.70833
2800.011	163.04167
2802.214	173.70833
2804.415	170.04167
2806.615	173.375
2808.814	170.70833
2811.011	176.70833
2813.206	178.375
2815.401	189.04167
2817.594	184.70833
2819.785	188.04167
2821.975	174.04167
2824.164	179.70833
2826.351	180.04167
2828.537	189.375
2830.722	195.70833
2832.905	180.375
2835.086	188.04167
2837.267	207.375
2839.445	204.70833
2841.623	201.375
2843.799	208.70833
2845.974	214.375
2848.147	221.70833
2850.319	224.375
2852.489	238.04167
2854.659	239.04167
2856.826	237.04167
2858.993	259.04167
2861.158	237.70833
2863.321	242.70833
2865.483	257.70833
2867.644	250.04167
2869.804	256.70833
2871.962	255.04167
2874.118	263.04167
2876.274	303.04167
2878.428	294.375
2880.58	279.04167
2882.731	256.375
2884.881	259.04167
2887.03	258.04167
2889.177	252.04167
2891.322	254.375
2893.467	243.375
2895.61	244.375
2897.751	263.375
2899.892	245.04167
2902.03	251.375
2904.168	247.70833
2906.304	245.375
2908.439	267.70833
2910.572	247.70833
2912.704	259.04167
2914.835	261.04167
2916.965	254.70833
2919.093	266.04167
2921.219	246.04167
2923.345	274.375
2925.469	250.70833
2927.591	250.70833
2929.712	235.04167
2931.832	248.04167
2933.951	243.375
2936.068	237.375
2938.184	238.70833
2940.299	229.375
2942.412	228.04167
2944.524	208.04167
2946.634	223.04167
2948.744	199.04167
2950.851	230.70833
2952.958	198.375
2955.063	204.70833
2957.167	192.04167
2959.269	187.04167
2961.371	215.375
2963.471	190.70833
2965.569	205.70833
2967.666	178.70833
2969.762	183.04167
2971.857	180.375
2973.95	174.375
2976.042	181.70833
2978.133	177.70833
2980.222	165.70833
2982.31	162.375
2984.396	148.70833
2986.482	156.04167
2988.566	161.375
2990.648	158.70833
2992.73	157.04167
2994.81	142.70833
2996.889	163.04167
2998.966	156.375
3001.042	166.375
3003.117	152.04167
3005.191	158.04167
3007.263	163.375
3009.334	154.70833
3011.403	158.375
3013.472	155.04167
3015.539	164.70833
3017.604	174.04167
3019.669	137.04167
3021.732	144.375
3023.794	146.375
3025.854	146.375
3027.914	139.70833
3029.971	139.375
3032.028	139.375
3034.083	149.70833
3036.137	142.04167
3038.19	126.375
3040.242	120.375
3042.292	122.70833
3044.341	134.375
3046.388	144.375
3048.435	123.375
3050.48	140.70833
3052.524	128.70833
3054.566	115.70833
3056.607	125.70833
3058.647	119.70833
3060.686	106.70833
3062.723	107.70833
3064.759	103.04167
3066.794	2.375
3068.828	0.04167
3070.86	3.70833
