-0.839	134
3.438	151.33333
7.711	66.66667
11.981	41.66667
16.247	30.33333
20.509	37.33333
24.768	36.33333
29.024	43.66667
33.276	31.66667
37.524	41.66667
41.769	33.66667
46.01	28.33333
50.247	41
54.481	49
58.712	53.66667
62.939	40
67.162	50.66667
71.382	46.66667
75.599	37
79.812	42.66667
84.021	63.33333
88.227	43.33333
92.429	51.33333
96.628	36.33333
100.823	54.66667
105.015	54
109.204	44.66667
113.388	59.33333
117.57	43.66667
121.748	65
125.922	48
130.093	67.66667
134.261	61
138.425	52
142.585	86.66667
146.742	64
150.896	76
155.046	71.33333
159.193	108.66667
163.336	153
167.476	269.33333
171.613	474.66667
175.746	764
179.875	1109
184.002	1422
188.124	1676
192.244	1761.33333
196.36	1742.66667
200.472	1755.33333
204.581	1728.33333
208.687	1643.66667
212.79	1639
216.889	1642.33333
220.984	1667.66667
225.077	1665.33333
229.165	1655.33333
233.251	1638.33333
237.333	1661
241.412	1644.66667
245.487	1629.66667
249.559	1619
253.628	1596.33333
257.694	1581.66667
261.756	1592
265.814	1553.66667
269.87	1503
273.922	1476
277.97	1454.33333
282.016	1453.33333
286.058	1440.33333
290.097	1445
294.132	1496.66667
298.164	1470.66667
302.193	1424
306.219	1331
310.241	1265.66667
314.26	1182.33333
318.276	1106.33333
322.288	1085.66667
326.297	1030.33333
330.303	1017
334.305	1011
338.305	989.33333
342.301	986.33333
346.294	984.33333
350.283	976.33333
354.269	976
358.252	958.33333
362.232	961.66667
366.209	952.66667
370.182	950
374.152	940
378.119	953.33333
382.083	943.66667
386.043	961.66667
390	951
393.954	941
397.905	961.33333
401.852	961.66667
405.797	954
409.738	940.66667
413.676	951
417.61	951.66667
421.542	946.33333
425.47	938.66667
429.396	916
433.318	911.66667
437.236	907.33333
441.152	936
445.065	898
448.974	917.33333
452.88	906.33333
456.783	897
460.683	898.33333
464.58	905.66667
468.473	899
472.364	902
476.251	915.33333
480.135	898
484.016	927.33333
487.894	923.66667
491.769	934.33333
495.641	935.33333
499.509	934.66667
503.375	933
507.237	927.66667
511.096	931
514.952	969.33333
518.805	1007.33333
522.655	1018
526.502	974
530.346	930
534.187	939.33333
538.024	918.66667
541.859	910.66667
545.69	943.33333
549.519	908.33333
553.344	921.33333
557.166	903
560.985	895.33333
564.802	895.66667
568.615	882.66667
572.425	861.33333
576.232	865
580.036	868.66667
583.836	875.66667
587.634	875
591.429	863
595.221	904.33333
599.01	900
602.796	887.66667
606.578	895
610.358	902.66667
614.135	896
617.909	895
621.679	894.66667
625.447	872
629.212	889.66667
632.973	870
636.732	876.33333
640.488	887
644.241	874.33333
647.991	865.33333
651.737	900.66667
655.481	849.33333
659.222	862.33333
662.96	870.66667
666.695	883
670.427	879.33333
674.156	878.66667
677.882	886.66667
681.605	879.66667
685.325	868.66667
689.043	884.66667
692.757	868
696.468	862.66667
700.177	859
703.882	846.33333
707.585	838
711.284	844
714.981	843.33333
718.675	845
722.366	862.66667
726.054	829.33333
729.739	840.66667
733.421	851.66667
737.1	833.66667
740.777	855
744.45	848
748.121	851.33333
751.789	872.33333
755.453	859.33333
759.115	862.66667
762.774	862.66667
766.431	871.66667
770.084	867
773.734	865.66667
777.382	893.66667
781.027	889.33333
784.669	889.66667
788.308	887.33333
791.944	905
795.577	914
799.208	916.33333
802.835	906.33333
806.46	918.66667
810.082	918.66667
813.701	903.66667
817.317	929
820.931	931
824.542	926.66667
828.149	917
831.754	887.66667
835.357	893.33333
838.956	914.66667
842.553	901.66667
846.146	887
849.737	871.33333
853.326	880.33333
856.911	873
860.493	908
864.073	899
867.65	912.33333
871.225	922
874.796	899.33333
878.365	893
881.931	917
885.494	927.66667
889.054	903
892.612	912.66667
896.166	888
899.719	886.33333
903.268	871.33333
906.814	877.66667
910.358	868.33333
913.899	858
917.438	854.33333
920.973	830.33333
924.506	857
928.036	874.66667
931.564	890.66667
935.088	912.66667
938.61	890.66667
942.129	881.66667
945.646	911.66667
949.16	919.66667
952.671	909.66667
956.179	951.33333
959.685	919.66667
963.188	942
966.688	923.33333
970.185	892.33333
973.68	869.66667
977.173	874.66667
980.662	838
984.149	854
987.633	849
991.114	849.33333
994.593	868
998.069	872
1001.542	899.33333
1005.013	888.33333
1008.481	846.66667
1011.947	826
1015.409	823.33333
1018.869	820
1022.327	824.33333
1025.782	814
1029.234	810
1032.683	802.66667
1036.13	786.66667
1039.574	763
1043.016	747.33333
1046.455	732.66667
1049.891	717
1053.325	734.33333
1056.756	729
1060.184	731.66667
1063.61	718
1067.033	743.33333
1070.454	724.33333
1073.872	755.33333
1077.287	728.66667
1080.7	731.33333
1084.11	722.33333
1087.517	732.33333
1090.922	723.66667
1094.325	703
1097.724	723.33333
1101.122	708.66667
1104.516	706
1107.908	699
1111.298	706.66667
1114.684	717.66667
1118.069	712.33333
1121.45	730.33333
1124.83	719
1128.206	737
1131.58	736
1134.951	751.66667
1138.32	752
1141.687	796.66667
1145.05	805.33333
1148.412	804.33333
1151.77	798
1155.126	798.66667
1158.48	788.33333
1161.831	788.66667
1165.18	794
1168.525	801.33333
1171.869	812.66667
1175.21	810
1178.548	832.66667
1181.884	837
1185.217	826
1188.548	854
1191.877	858.33333
1195.202	913.33333
1198.526	925.33333
1201.846	920.66667
1205.165	926
1208.48	932.33333
1211.794	936.66667
1215.104	933
1218.413	914
1221.719	918.66667
1225.022	895.33333
1228.323	882.66667
1231.621	902.66667
1234.917	886
1238.21	891.33333
1241.501	879
1244.79	866.33333
1248.076	865.33333
1251.359	875.66667
1254.64	921.33333
1257.919	900.33333
1261.195	910.66667
1264.468	918.66667
1267.74	936
1271.008	926.33333
1274.275	920.66667
1277.538	915.66667
1280.8	917.33333
1284.059	914.33333
1287.315	946.33333
1290.569	906.33333
1293.821	943.33333
1297.07	943.66667
1300.317	946
1303.562	946.66667
1306.803	944
1310.043	936.66667
1313.28	935.33333
1316.515	923
1319.747	933.33333
1322.977	920.33333
1326.204	904.66667
1329.429	898.66667
1332.652	900.66667
1335.872	902.33333
1339.09	888.33333
1342.306	887
1345.519	871.33333
1348.729	878.33333
1351.938	858.33333
1355.144	874.66667
1358.347	843.66667
1361.548	852.33333
1364.747	854
1367.944	834.66667
1371.138	835.33333
1374.329	840
1377.518	831
1380.705	829
1383.89	835
1387.072	809.33333
1390.252	788.33333
1393.429	775
1396.605	747.66667
1399.777	718.66667
1402.948	715.66667
1406.116	717
1409.282	710.66667
1412.445	730.66667
1415.606	726.33333
1418.765	720.66667
1421.921	734.33333
1425.075	741.66667
1428.227	759.33333
1431.376	795.66667
1434.524	815.33333
1437.668	831.33333
1440.811	841.33333
1443.951	853
1447.089	851
1450.224	850
1453.357	845
1456.488	843
1459.617	831.33333
1462.743	825
1465.867	791.33333
1468.989	805.66667
1472.108	791.66667
1475.225	778.66667
1478.34	766.66667
1481.453	757
1484.563	747
1487.671	752.66667
1490.776	775.33333
1493.88	779.66667
1496.981	790
1500.08	798.66667
1503.176	799
1506.271	813
1509.363	820.33333
1512.452	815.66667
1515.54	820.66667
1518.625	835.33333
1521.708	871.33333
1524.789	896.33333
1527.867	901.66667
1530.944	946.33333
1534.018	966.33333
1537.089	1016
1540.159	1022.66667
1543.226	1021.66667
1546.291	1009
1549.354	982.33333
1552.415	978
1555.473	956.66667
1558.529	949.33333
1561.583	920.33333
1564.634	917.66667
1567.684	917.66667
1570.731	920.33333
1573.776	931
1576.819	934
1579.859	935.33333
1582.898	954.33333
1585.934	979.66667
1588.968	981.66667
1591.999	950.33333
1595.029	963
1598.056	968
1601.081	995.33333
1604.104	994
1607.125	974.66667
1610.144	953.33333
1613.16	924.33333
1616.174	906
1619.186	891.33333
1622.196	871.66667
1625.203	846
1628.209	857.33333
1631.212	847.33333
1634.213	843.66667
1637.212	860
1640.209	851.33333
1643.203	830.33333
1646.196	805
1649.186	758.33333
1652.174	747
1655.16	733.33333
1658.144	713.33333
1661.125	677.33333
1664.105	653.66667
1667.082	636
1670.057	586.33333
1673.03	568.33333
1676.001	545.66667
1678.97	508.33333
1681.937	496
1684.901	454.66667
1687.863	452.66667
1690.824	423
1693.782	445.66667
1696.738	407.66667
1699.692	419.33333
1702.643	395.66667
1705.593	403.33333
1708.54	394.33333
1711.486	398
1714.429	375.33333
1717.37	387
1720.309	367.33333
1723.246	384
1726.181	361
1729.113	364.33333
1732.044	367
1734.972	359.66667
1737.899	385.66667
1740.823	377
1743.745	388.33333
1746.665	354
1749.583	340.33333
1752.499	342.66667
1755.413	344
1758.325	329.33333
1761.235	338.66667
1764.142	324.33333
1767.048	321
1769.951	322.33333
1772.852	319
1775.752	328.33333
1778.649	320
1781.544	333.66667
1784.437	307.33333
1787.328	322
1790.217	317.66667
1793.104	300
1795.989	299.33333
1798.872	295.66667
1801.753	315
1804.631	300.33333
1807.508	311
1810.383	308.66667
1813.255	307
1816.126	300.66667
1818.994	296.66667
1821.861	302
1824.725	307.66667
1827.587	298.66667
1830.448	306.66667
1833.306	288
1836.162	312.66667
1839.017	295.33333
1841.869	293.33333
1844.719	293
1847.567	274
1850.414	276.66667
1853.258	277
1856.1	294
1858.94	296.66667
1861.778	290.33333
1864.614	274.33333
1867.448	283.33333
1870.28	266
1873.111	295.66667
1875.939	278.66667
1878.765	297.66667
1881.589	274
1884.411	278.33333
1887.231	294.33333
1890.049	278.66667
1892.865	286.33333
1895.68	270.33333
1898.492	283.66667
1901.302	280
1904.11	268.33333
1906.916	271.66667
1909.721	267.66667
1912.523	269.66667
1915.323	268
1918.122	263.33333
1920.918	276
1923.712	256.33333
1926.505	270
1929.295	249.66667
1932.084	268.66667
1934.87	271.66667
1937.655	262.33333
1940.438	254.66667
1943.218	258.33333
1945.997	270.66667
1948.774	271.66667
1951.549	269
1954.322	257.33333
1957.093	262.33333
1959.862	257.33333
1962.629	262
1965.394	253.33333
1968.157	239.66667
1970.918	269
1973.678	247.66667
1976.435	254.33333
1979.19	253.66667
1981.944	238.66667
1984.696	250.66667
1987.445	241.33333
1990.193	247.66667
1992.939	261.33333
1995.683	254.66667
1998.425	228.66667
2001.165	266.33333
2003.903	226.33333
2006.639	245
2009.374	246.66667
2012.106	249.33333
2014.837	229.66667
2017.566	250.66667
2020.292	241.66667
2023.017	243.33333
2025.74	237
2028.461	228.33333
2031.18	241.66667
2033.898	231.33333
2036.613	236.66667
2039.327	240.66667
2042.038	234
2044.748	235.66667
2047.456	236.33333
2050.162	229.33333
2052.866	232.66667
2055.568	241.66667
2058.268	233
2060.967	242.66667
2063.663	217.33333
2066.358	227
2069.051	221.33333
2071.742	235.33333
2074.431	242
2077.118	229.66667
2079.804	215.66667
2082.487	231.33333
2085.169	237
2087.849	247.33333
2090.527	220.33333
2093.203	224.66667
2095.877	227.33333
2098.55	232.66667
2101.22	241.33333
2103.889	239.66667
2106.556	229.66667
2109.221	250.33333
2111.884	238.66667
2114.546	259
2117.205	255.33333
2119.863	290.66667
2122.519	281
2125.173	304.33333
2127.825	333.66667
2130.475	328
2133.124	313.66667
2135.771	295.66667
2138.416	300
2141.059	284.33333
2143.7	287
2146.339	259.66667
2148.977	232
2151.613	255.33333
2154.247	245
2156.879	238.66667
2159.51	229.66667
2162.138	230.33333
2164.765	225.66667
2167.39	211
2170.013	237.33333
2172.634	229
2175.254	223.33333
2177.872	259
2180.488	204
2183.102	217.33333
2185.714	216.66667
2188.325	205
2190.934	211.33333
2193.541	219.66667
2196.146	213.66667
2198.75	199
2201.351	203.66667
2203.951	192
2206.549	208
2209.146	200.33333
2211.74	202
2214.333	204.66667
2216.924	196
2219.514	203.66667
2222.101	200.66667
2224.687	211.33333
2227.271	191
2229.853	196.66667
2232.433	178.33333
2235.012	201.66667
2237.589	196.66667
2240.164	208
2242.738	191.66667
2245.309	186
2247.879	205.66667
2250.448	201
2253.014	181.66667
2255.579	175.33333
2258.142	189.33333
2260.703	187.66667
2263.262	182.33333
2265.82	182.33333
2268.376	192.33333
2270.93	179
2273.483	174.66667
2276.033	183.33333
2278.583	178.33333
2281.13	181.66667
2283.675	175.66667
2286.219	180.66667
2288.761	185.66667
2291.302	186.66667
2293.841	199.33333
2296.377	166
2298.913	182
2301.446	189.33333
2303.978	179.66667
2306.508	176.33333
2309.037	183.33333
2311.563	173
2314.088	180
2316.612	170.66667
2319.133	179
2321.653	179.66667
2324.171	171.66667
2326.688	190.66667
2329.202	180
2331.715	180.33333
2334.227	173.66667
2336.736	170.33333
2339.244	171
2341.751	166.66667
2344.255	180.33333
2346.758	173
2349.259	166.33333
2351.759	177
2354.257	167.33333
2356.753	156.66667
2359.247	167.66667
2361.74	167.66667
2364.231	170
2366.721	180.66667
2369.209	170.33333
2371.695	169.66667
2374.179	161.66667
2376.662	151.33333
2379.143	175.66667
2381.622	167.66667
2384.1	176
2386.576	166
2389.051	179.66667
2391.524	180.33333
2393.995	172.66667
2396.464	165.33333
2398.932	167
2401.398	171.66667
2403.863	162
2406.325	161
2408.787	175
2411.246	169.33333
2413.704	169.66667
2416.16	159.33333
2418.615	157.66667
2421.068	167.33333
2423.519	164
2425.969	158.66667
2428.417	176
2430.863	193
2433.308	177
2435.751	171
2438.193	167
2440.633	170.66667
2443.071	169.66667
2445.508	160.66667
2447.943	165
2450.376	161.66667
2452.808	170.66667
2455.238	155
2457.667	188
2460.093	159.33333
2462.519	150
2464.942	150
2467.365	162.66667
2469.785	165.33333
2472.204	159.33333
2474.621	158
2477.037	176
2479.451	149.33333
2481.863	154.66667
2484.274	157.66667
2486.683	159.33333
2489.091	170
2491.497	164
2493.901	162.66667
2496.304	156.33333
2498.705	168.33333
2501.105	163
2503.503	177.66667
2505.899	156
2508.294	184.66667
2510.687	155.33333
2513.079	163
2515.469	154.33333
2517.858	156.33333
2520.245	175.66667
2522.63	163
2525.014	158.66667
2527.396	157.66667
2529.776	155.33333
2532.156	161
2534.533	145.66667
2536.909	152.33333
2539.283	143
2541.656	154
2544.027	170.66667
2546.397	157.66667
2548.765	155.33333
2551.131	154.33333
2553.496	163.66667
2555.86	164.33333
2558.221	155.33333
2560.582	154
2562.94	151.33333
2565.298	159
2567.653	172.33333
2570.007	144
2572.36	165
2574.711	149.33333
2577.06	172
2579.408	161.66667
2581.754	154.66667
2584.099	159.33333
2586.442	152.33333
2588.784	166.33333
2591.124	152.66667
2593.463	160
2595.8	161
2598.135	146.66667
2600.469	156.33333
2602.802	163
2605.133	166.33333
2607.462	152.33333
2609.79	147.66667
2612.116	168.66667
2614.441	155.33333
2616.764	160.66667
2619.086	159.66667
2621.406	151.33333
2623.725	173
2626.042	155.33333
2628.358	151.33333
2630.672	159.33333
2632.985	168
2635.296	164.66667
2637.606	156.66667
2639.914	156
2642.22	151.66667
2644.525	157
2646.829	162
2649.131	170.66667
2651.432	169.33333
2653.731	155.33333
2656.028	175.66667
2658.324	165.33333
2660.619	152
2662.912	168.33333
2665.204	153.66667
2667.494	167.33333
2669.782	155.66667
2672.07	172
2674.355	176.33333
2676.639	167.66667
2678.922	153
2681.203	171.66667
2683.483	160
2685.761	146.33333
2688.038	174.33333
2690.313	177
2692.587	172
2694.859	162.33333
2697.13	167.66667
2699.399	166.33333
2701.667	172.66667
2703.933	174.66667
2706.198	175
2708.461	176
2710.723	176
2712.984	172
2715.243	182.33333
2717.5	167.33333
2719.757	180
2722.011	174
2724.264	173.66667
2726.516	184.33333
2728.766	163
2731.015	175.33333
2733.262	163.66667
2735.508	171
2737.753	180.66667
2739.996	162.33333
2742.237	167.33333
2744.477	181.33333
2746.716	186.66667
2748.953	182.66667
2751.189	185
2753.423	180
2755.656	165.66667
2757.887	164.66667
2760.117	171.33333
2762.346	169
2764.573	159.33333
2766.798	166.66667
2769.022	168
2771.245	162.33333
2773.467	171.33333
2775.686	165
2777.905	179
2780.122	165.66667
2782.337	175
2784.552	170
2786.764	167
2788.976	159
2791.186	171
2793.394	170.66667
2795.601	185.33333
2797.807	186
2800.011	181.33333
2802.214	184.66667
2804.415	184.66667
2806.615	184.33333
2808.814	188.33333
2811.011	181.33333
2813.206	183.66667
2815.401	197.66667
2817.594	197.33333
2819.785	196
2821.975	186.33333
2824.164	189.33333
2826.351	189.66667
2828.537	206.33333
2830.722	201.66667
2832.905	195
2835.086	204.33333
2837.267	219.66667
2839.445	217.33333
2841.623	218.66667
2843.799	217.33333
2845.974	222.33333
2848.147	227.33333
2850.319	238
2852.489	245
2854.659	251.66667
2856.826	249
2858.993	264.66667
2861.158	249
2863.321	252.33333
2865.483	267
2867.644	264.66667
2869.804	255.33333
2871.962	262
2874.118	262
2876.274	265.66667
2878.428	258.66667
2880.58	271.33333
2882.731	256.66667
2884.881	265.33333
2887.03	269.33333
2889.177	260.33333
2891.322	271
2893.467	260
2895.61	259
2897.751	273.33333
2899.892	259
2902.03	274.33333
2904.168	270
2906.304	266.33333
2908.439	286.66667
2910.572	266
2912.704	277
2914.835	273.66667
2916.965	273.33333
2919.093	289.33333
2921.219	262.66667
2923.345	296.33333
2925.469	265
2927.591	269.66667
2929.712	258
2931.832	272.66667
2933.951	263.33333
2936.068	251.33333
2938.184	248.33333
2940.299	251
2942.412	254.66667
2944.524	228.33333
2946.634	237
2948.744	217
2950.851	252.33333
2952.958	217
2955.063	234
2957.167	228.66667
2959.269	212
2961.371	241.33333
2963.471	211
2965.569	229
2967.666	204.33333
2969.762	206
2971.857	198.66667
2973.95	189.33333
2976.042	199.33333
2978.133	194.33333
2980.222	194.33333
2982.31	182
2984.396	167.33333
2986.482	172.33333
2988.566	180
2990.648	184.33333
2992.73	183.33333
2994.81	166.33333
2996.889	178.66667
2998.966	179
3001.042	184.33333
3003.117	169.66667
3005.191	176.66667
3007.263	182.33333
3009.334	177
3011.403	176.66667
3013.472	170
3015.539	182.66667
3017.604	187.33333
3019.669	158.33333
3021.732	165.33333
3023.794	170
3025.854	153.33333
3027.914	157.33333
3029.971	159
3032.028	155.66667
3034.083	170.66667
3036.137	161.66667
3038.19	148
3040.242	150.33333
3042.292	148.66667
3044.341	153
3046.388	164.66667
3048.435	142.66667
3050.48	165
3052.524	148.66667
3054.566	135.33333
3056.607	157
3058.647	145.33333
3060.686	129.33333
3062.723	126
3064.759	124
3066.794	1
3068.828	0.33333
3070.86	2.33333
