-0.839	126.08333
3.438	140.41667
7.711	63.41667
11.981	40.75
16.247	31.41667
20.509	35.75
24.768	34.75
29.024	39.41667
33.276	31.08333
37.524	36.41667
41.769	27.41667
46.01	25.08333
50.247	41.75
54.481	51.41667
58.712	54.08333
62.939	38.08333
67.162	50.41667
71.382	46.41667
75.599	35.75
79.812	42.75
84.021	60.08333
88.227	42.08333
92.429	51.08333
96.628	38.41667
100.823	54.41667
105.015	52.08333
109.204	40.08333
113.388	58.75
117.57	44.08333
121.748	57.75
125.922	43.75
130.093	65.08333
134.261	61.75
138.425	52.08333
142.585	82.08333
146.742	60.08333
150.896	76.08333
155.046	71.75
159.193	106.41667
163.336	160.75
167.476	270.75
171.613	481.75
175.746	781.41667
179.875	1115.75
184.002	1457.08333
188.124	1736.75
192.244	1807.75
196.36	1807.41667
200.472	1787.41667
204.581	1764.08333
208.687	1718.41667
212.79	1694.75
216.889	1723.75
220.984	1741.75
225.077	1753.75
229.165	1737.08333
233.251	1738.75
237.333	1763.41667
241.412	1710.41667
245.487	1729.08333
249.559	1701.41667
253.628	1687.08333
257.694	1676.41667
261.756	1679.41667
265.814	1649.41667
269.87	1589.75
273.922	1579.41667
277.97	1559.41667
282.016	1557.41667
286.058	1573.41667
290.097	1566.08333
294.132	1578.41667
298.164	1585.41667
302.193	1519.41667
306.219	1435.41667
310.241	1382.41667
314.26	1295.75
318.276	1240.41667
322.288	1213.41667
326.297	1187.75
330.303	1168.75
334.305	1156.08333
338.305	1156.08333
342.301	1142.41667
346.294	1145.08333
350.283	1130.75
354.269	1134.75
358.252	1115.41667
362.232	1119.41667
366.209	1127.08333
370.182	1109.41667
374.152	1113.08333
378.119	1111.75
382.083	1104.75
386.043	1137.08333
390	1096.75
393.954	1129.41667
397.905	1133.75
401.852	1133.41667
405.797	1124.41667
409.738	1112.41667
413.676	1134.08333
417.61	1141.41667
421.542	1131.75
425.47	1116.41667
429.396	1100.08333
433.318	1101.08333
437.236	1120.08333
441.152	1132.41667
445.065	1088.41667
448.974	1116.41667
452.88	1103.75
456.783	1086.41667
460.683	1089.75
464.58	1092.08333
468.473	1090.41667
472.364	1099.08333
476.251	1095.75
480.135	1106.08333
484.016	1109.08333
487.894	1115.41667
491.769	1112.75
495.641	1115.41667
499.509	1119.08333
503.375	1106.75
507.237	1116.08333
511.096	1118.08333
514.952	1118.08333
518.805	1114.08333
522.655	1113.41667
526.502	1093.75
530.346	1111.41667
534.187	1120.08333
538.024	1115.41667
541.859	1106.75
545.69	1131.41667
549.519	1110.75
553.344	1123.08333
557.166	1094.08333
560.985	1099.75
564.802	1096.41667
568.615	1080.08333
572.425	1062.75
576.232	1067.08333
580.036	1053.08333
583.836	1061.75
587.634	1070.75
591.429	1065.75
595.221	1095.41667
599.01	1090.75
602.796	1085.08333
606.578	1078.41667
610.358	1093.08333
614.135	1062.41667
617.909	1082.41667
621.679	1066.75
625.447	1071.41667
629.212	1072.41667
632.973	1079.41667
636.732	1070.08333
640.488	1083.41667
644.241	1048.08333
647.991	1058.08333
651.737	1086.41667
655.481	1047.75
659.222	1052.41667
662.96	1055.41667
666.695	1069.75
670.427	1075.08333
674.156	1076.08333
677.882	1062.75
681.605	1074.08333
685.325	1049.75
689.043	1086.08333
692.757	1048.75
696.468	1050.08333
700.177	1058.75
703.882	1033.41667
707.585	1024.41667
711.284	1037.08333
714.981	1014.75
718.675	1021.75
722.366	1036.08333
726.054	1028.41667
729.739	1023.75
733.421	1031.41667
737.1	1027.75
740.777	1020.75
744.45	1032.41667
748.121	1034.41667
751.789	1058.75
755.453	1040.41667
759.115	1046.41667
762.774	1033.41667
766.431	1036.08333
770.084	1050.75
773.734	1038.08333
777.382	1066.75
781.027	1048.08333
784.669	1044.41667
788.308	1050.75
791.944	1064.41667
795.577	1073.75
799.208	1065.08333
802.835	1060.75
806.46	1080.08333
810.082	1077.41667
813.701	1063.75
817.317	1080.75
820.931	1078.75
824.542	1096.75
828.149	1045.41667
831.754	1053.75
835.357	1050.75
838.956	1070.75
842.553	1066.08333
846.146	1038.75
849.737	1023.41667
853.326	1020.75
856.911	1009.08333
860.493	1034.08333
864.073	1030.08333
867.65	1040.75
871.225	1065.41667
874.796	1035.75
878.365	1029.08333
881.931	1062.75
885.494	1072.75
889.054	1026.41667
892.612	1057.08333
896.166	1021.41667
899.719	1022.75
903.268	998.08333
906.814	1008.75
910.358	1004.41667
913.899	984.41667
917.438	997.08333
920.973	962.75
924.506	983.41667
928.036	992.75
931.564	1006.08333
935.088	1025.75
938.61	1004.75
942.129	1010.08333
945.646	1027.75
949.16	1025.75
952.671	1030.75
956.179	1052.75
959.685	1022.08333
963.188	1052.75
966.688	1014.75
970.185	1000.08333
973.68	982.08333
977.173	986.41667
980.662	948.08333
984.149	979.41667
987.633	944.08333
991.114	975.41667
994.593	973.41667
998.069	1003.75
1001.542	1017.75
1005.013	1005.75
1008.481	943.08333
1011.947	940.75
1015.409	934.41667
1018.869	945.41667
1022.327	946.08333
1025.782	915.41667
1029.234	907.08333
1032.683	908.41667
1036.13	873.08333
1039.574	845.75
1043.016	846.41667
1046.455	839.41667
1049.891	826.08333
1053.325	836.41667
1056.756	815.08333
1060.184	827.41667
1063.61	822.08333
1067.033	825.41667
1070.454	829.75
1073.872	852.75
1077.287	826.75
1080.7	828.75
1084.11	834.08333
1087.517	820.08333
1090.922	819.08333
1094.325	808.08333
1097.724	798.08333
1101.122	795.41667
1104.516	798.75
1107.908	778.41667
1111.298	797.08333
1114.684	796.41667
1118.069	798.75
1121.45	816.41667
1124.83	776.75
1128.206	816.41667
1131.58	813.75
1134.951	833.75
1138.32	856.08333
1141.687	881.75
1145.05	883.08333
1148.412	876.08333
1151.77	878.41667
1155.126	878.75
1158.48	856.41667
1161.831	870.08333
1165.18	853.08333
1168.525	879.75
1171.869	892.75
1175.21	878.08333
1178.548	889.08333
1181.884	904.41667
1185.217	894.41667
1188.548	928.75
1191.877	920.41667
1195.202	969.75
1198.526	984.75
1201.846	980.75
1205.165	982.41667
1208.48	989.75
1211.794	984.41667
1215.104	976.75
1218.413	963.75
1221.719	967.41667
1225.022	970.75
1228.323	947.41667
1231.621	942.41667
1234.917	942.08333
1238.21	956.41667
1241.501	937.41667
1244.79	927.41667
1248.076	928.08333
1251.359	946.41667
1254.64	979.08333
1257.919	959.08333
1261.195	961.41667
1264.468	977.08333
1267.74	985.08333
1271.008	989.41667
1274.275	987.08333
1277.538	973.41667
1280.8	973.08333
1284.059	968.08333
1287.315	977.75
1290.569	979.08333
1293.821	977.75
1297.07	999.08333
1300.317	996.08333
1303.562	988.75
1306.803	971.08333
1310.043	966.75
1313.28	977.41667
1316.515	954.75
1319.747	968.41667
1322.977	963.08333
1326.204	940.08333
1329.429	947.41667
1332.652	951.41667
1335.872	940.08333
1339.09	920.41667
1342.306	931.75
1345.519	917.08333
1348.729	915.41667
1351.938	922.75
1355.144	904.75
1358.347	904.08333
1361.548	909.75
1364.747	895.75
1367.944	884.41667
1371.138	890.41667
1374.329	888.41667
1377.518	886.75
1380.705	896.08333
1383.89	895.41667
1387.072	858.08333
1390.252	848.41667
1393.429	822.08333
1396.605	811.41667
1399.777	771.08333
1402.948	771.75
1406.116	767.75
1409.282	763.75
1412.445	760.75
1415.606	781.41667
1418.765	764.08333
1421.921	794.08333
1425.075	798.08333
1428.227	809.41667
1431.376	834.75
1434.524	866.08333
1437.668	874.08333
1440.811	877.08333
1443.951	871.41667
1447.089	884.75
1450.224	887.41667
1453.357	869.75
1456.488	873.75
1459.617	869.41667
1462.743	860.08333
1465.867	820.75
1468.989	829.75
1472.108	820.08333
1475.225	811.75
1478.34	789.08333
1481.453	785.08333
1484.563	781.08333
1487.671	787.08333
1490.776	798.75
1493.88	807.41667
1496.981	829.41667
1500.08	832.41667
1503.176	826.41667
1506.271	833.08333
1509.363	854.41667
1512.452	843.08333
1515.54	858.41667
1518.625	858.75
1521.708	891.08333
1524.789	912.08333
1527.867	922.08333
1530.944	967.08333
1534.018	991.08333
1537.089	1036.41667
1540.159	1048.75
1543.226	1046.75
1546.291	1025.08333
1549.354	1008.75
1552.415	997.41667
1555.473	973.08333
1558.529	963.41667
1561.583	958.41667
1564.634	947.08333
1567.684	933.41667
1570.731	941.41667
1573.776	936.41667
1576.819	941.41667
1579.859	961.41667
1582.898	972.41667
1585.934	990.41667
1588.968	982.75
1591.999	964.41667
1595.029	976.08333
1598.056	985.41667
1601.081	998.41667
1604.104	986.41667
1607.125	962.41667
1610.144	958.08333
1613.16	928.08333
1616.174	918.08333
1619.186	907.41667
1622.196	884.08333
1625.203	861.08333
1628.209	853.75
1631.212	845.75
1634.213	863.75
1637.212	850.41667
1640.209	846.75
1643.203	814.08333
1646.196	794.75
1649.186	775.75
1652.174	786.75
1655.16	727.41667
1658.144	726.41667
1661.125	696.08333
1664.105	683.08333
1667.082	656.41667
1670.057	620.41667
1673.03	598.75
1676.001	574.41667
1678.97	528.75
1681.937	514.41667
1684.901	490.08333
1687.863	488.75
1690.824	458.75
1693.782	476.41667
1696.738	435.41667
1699.692	436.41667
1702.643	426.41667
1705.593	425.41667
1708.54	423.08333
1711.486	432.75
1714.429	408.08333
1717.37	416.75
1720.309	400.41667
1723.246	414.08333
1726.181	396.08333
1729.113	391.75
1732.044	402.08333
1734.972	389.75
1737.899	403.08333
1740.823	409.75
1743.745	419.08333
1746.665	386.08333
1749.583	374.41667
1752.499	370.75
1755.413	380.41667
1758.325	354.08333
1761.235	373.75
1764.142	344.08333
1767.048	360.75
1769.951	354.08333
1772.852	353.41667
1775.752	358.41667
1778.649	362.75
1781.544	374.75
1784.437	339.41667
1787.328	355.08333
1790.217	354.08333
1793.104	325.08333
1795.989	334.41667
1798.872	321.41667
1801.753	351.41667
1804.631	334.08333
1807.508	337.41667
1810.383	335.41667
1813.255	333.75
1816.126	330.41667
1818.994	325.41667
1821.861	323.75
1824.725	335.41667
1827.587	330.75
1830.448	327.08333
1833.306	321.75
1836.162	335.41667
1839.017	321.75
1841.869	326.75
1844.719	315.41667
1847.567	302.08333
1850.414	299.08333
1853.258	299.08333
1856.1	321.41667
1858.94	318.75
1861.778	311.08333
1864.614	302.08333
1867.448	307.75
1870.28	291.75
1873.111	321.41667
1875.939	307.41667
1878.765	318.75
1881.589	305.75
1884.411	304.41667
1887.231	309.75
1890.049	307.08333
1892.865	306.41667
1895.68	295.41667
1898.492	304.08333
1901.302	300.41667
1904.11	294.41667
1906.916	298.75
1909.721	287.41667
1912.523	291.75
1915.323	281.75
1918.122	281.75
1920.918	301.75
1923.712	281.75
1926.505	288.41667
1929.295	274.08333
1932.084	291.75
1934.87	287.08333
1937.655	278.75
1940.438	267.75
1943.218	282.75
1945.997	286.75
1948.774	285.41667
1951.549	286.08333
1954.322	277.75
1957.093	281.08333
1959.862	274.08333
1962.629	274.08333
1965.394	270.41667
1968.157	256.08333
1970.918	287.08333
1973.678	268.41667
1976.435	282.08333
1979.19	269.41667
1981.944	259.75
1984.696	263.75
1987.445	253.08333
1990.193	255.75
1992.939	273.41667
1995.683	270.08333
1998.425	245.75
2001.165	279.41667
2003.903	250.75
2006.639	257.41667
2009.374	261.08333
2012.106	257.41667
2014.837	240.08333
2017.566	266.75
2020.292	255.75
2023.017	257.75
2025.74	251.41667
2028.461	246.75
2031.18	253.41667
2033.898	239.75
2036.613	251.41667
2039.327	252.41667
2042.038	237.08333
2044.748	243.75
2047.456	251.08333
2050.162	238.41667
2052.866	237.75
2055.568	255.75
2058.268	241.75
2060.967	248.75
2063.663	232.75
2066.358	233.41667
2069.051	224.08333
2071.742	246.08333
2074.431	247.75
2077.118	239.08333
2079.804	228.75
2082.487	236.08333
2085.169	243.75
2087.849	260.08333
2090.527	234.08333
2093.203	236.08333
2095.877	240.75
2098.55	243.08333
2101.22	246.08333
2103.889	249.75
2106.556	241.75
2109.221	252.75
2111.884	245.41667
2114.546	275.75
2117.205	270.75
2119.863	298.08333
2122.519	297.08333
2125.173	319.75
2127.825	345.75
2130.475	344.75
2133.124	319.41667
2135.771	307.41667
2138.416	316.75
2141.059	289.75
2143.7	293.08333
2146.339	259.75
2148.977	245.08333
2151.613	255.75
2154.247	256.08333
2156.879	244.41667
2159.51	236.08333
2162.138	236.75
2164.765	230.08333
2167.39	218.08333
2170.013	244.08333
2172.634	239.08333
2175.254	223.08333
2177.872	260.41667
2180.488	209.75
2183.102	219.41667
2185.714	215.75
2188.325	206.75
2190.934	219.08333
2193.541	221.08333
2196.146	212.75
2198.75	203.75
2201.351	206.41667
2203.951	192.75
2206.549	210.75
2209.146	202.75
2211.74	193.41667
2214.333	204.75
2216.924	190.41667
2219.514	201.08333
2222.101	195.08333
2224.687	213.08333
2227.271	184.75
2229.853	188.75
2232.433	175.08333
2235.012	199.08333
2237.589	190.41667
2240.164	207.41667
2242.738	195.08333
2245.309	188.08333
2247.879	199.08333
2250.448	197.08333
2253.014	176.08333
2255.579	176.41667
2258.142	184.08333
2260.703	179.75
2263.262	182.75
2265.82	172.08333
2268.376	188.41667
2270.93	176.41667
2273.483	168.41667
2276.033	190.08333
2278.583	176.41667
2281.13	176.08333
2283.675	163.41667
2286.219	175.75
2288.761	180.08333
2291.302	181.75
2293.841	184.75
2296.377	162.08333
2298.913	178.08333
2301.446	180.75
2303.978	174.08333
2306.508	171.08333
2309.037	176.75
2311.563	174.08333
2314.088	173.08333
2316.612	156.08333
2319.133	170.41667
2321.653	170.41667
2324.171	165.08333
2326.688	176.41667
2329.202	165.75
2331.715	173.41667
2334.227	169.41667
2336.736	168.08333
2339.244	163.08333
2341.751	157.41667
2344.255	166.41667
2346.758	165.08333
2349.259	157.41667
2351.759	164.08333
2354.257	159.08333
2356.753	151.41667
2359.247	156.75
2361.74	164.75
2364.231	153.75
2366.721	164.75
2369.209	159.75
2371.695	160.75
2374.179	151.75
2376.662	146.41667
2379.143	166.75
2381.622	151.41667
2384.1	158.41667
2386.576	154.41667
2389.051	166.75
2391.524	166.41667
2393.995	163.41667
2396.464	150.08333
2398.932	148.08333
2401.398	155.75
2403.863	148.75
2406.325	151.08333
2408.787	154.75
2411.246	151.75
2413.704	149.75
2416.16	147.08333
2418.615	149.41667
2421.068	145.08333
2423.519	145.08333
2425.969	136.75
2428.417	156.08333
2430.863	169.08333
2433.308	158.75
2435.751	151.41667
2438.193	149.08333
2440.633	151.08333
2443.071	157.41667
2445.508	140.41667
2447.943	143.41667
2450.376	143.41667
2452.808	148.08333
2455.238	135.08333
2457.667	170.08333
2460.093	137.75
2462.519	127.75
2464.942	136.08333
2467.365	146.08333
2469.785	149.41667
2472.204	137.08333
2474.621	137.41667
2477.037	155.75
2479.451	134.75
2481.863	128.41667
2484.274	129.75
2486.683	134.75
2489.091	147.75
2491.497	144.75
2493.901	135.75
2496.304	133.08333
2498.705	149.75
2501.105	134.75
2503.503	154.75
2505.899	129.75
2508.294	149.08333
2510.687	133.41667
2513.079	134.75
2515.469	127.08333
2517.858	134.08333
2520.245	151.41667
2522.63	135.75
2525.014	125.75
2527.396	130.75
2529.776	131.41667
2532.156	134.41667
2534.533	116.41667
2536.909	127.41667
2539.283	114.41667
2541.656	127.75
2544.027	140.75
2546.397	133.08333
2548.765	125.08333
2551.131	131.41667
2553.496	138.75
2555.86	135.75
2558.221	136.08333
2560.582	122.41667
2562.94	115.08333
2565.298	128.08333
2567.653	140.08333
2570.007	112.75
2572.36	131.08333
2574.711	119.08333
2577.06	135.41667
2579.408	128.41667
2581.754	122.75
2584.099	123.75
2586.442	123.41667
2588.784	133.75
2591.124	127.08333
2593.463	124.08333
2595.8	127.75
2598.135	114.41667
2600.469	114.41667
2602.802	133.41667
2605.133	133.75
2607.462	117.08333
2609.79	112.08333
2612.116	126.75
2614.441	118.75
2616.764	123.41667
2619.086	127.08333
2621.406	112.41667
2623.725	131.08333
2626.042	125.08333
2628.358	113.41667
2630.672	121.75
2632.985	127.75
2635.296	124.08333
2637.606	118.41667
2639.914	115.75
2642.22	113.41667
2644.525	119.75
2646.829	121.75
2649.131	131.08333
2651.432	126.08333
2653.731	116.75
2656.028	135.41667
2658.324	127.08333
2660.619	105.08333
2662.912	127.75
2665.204	106.75
2667.494	128.08333
2669.782	114.75
2672.07	128.08333
2674.355	126.41667
2676.639	121.75
2678.922	117.08333
2681.203	122.75
2683.483	110.41667
2685.761	109.08333
2688.038	129.08333
2690.313	131.75
2692.587	115.08333
2694.859	115.41667
2697.13	122.41667
2699.399	124.41667
2701.667	124.08333
2703.933	125.08333
2706.198	131.75
2708.461	125.41667
2710.723	127.08333
2712.984	124.08333
2715.243	131.75
2717.5	122.41667
2719.757	132.75
2722.011	121.08333
2724.264	134.41667
2726.516	132.08333
2728.766	114.41667
2731.015	123.75
2733.262	125.75
2735.508	119.08333
2737.753	124.08333
2739.996	111.75
2742.237	113.41667
2744.477	125.08333
2746.716	130.08333
2748.953	132.41667
2751.189	127.75
2753.423	122.08333
2755.656	110.41667
2757.887	111.75
2760.117	117.08333
2762.346	109.08333
2764.573	101.41667
2766.798	111.41667
2769.022	116.41667
2771.245	106.75
2773.467	111.41667
2775.686	112.41667
2777.905	115.75
2780.122	117.41667
2782.337	118.75
2784.552	107.41667
2786.764	115.08333
2788.976	110.75
2791.186	113.08333
2793.394	116.75
2795.601	126.41667
2797.807	128.41667
2800.011	116.41667
2802.214	129.08333
2804.415	130.41667
2806.615	122.08333
2808.814	127.41667
2811.011	133.08333
2813.206	128.08333
2815.401	136.41667
2817.594	137.08333
2819.785	136.41667
2821.975	122.08333
2824.164	132.08333
2826.351	131.75
2828.537	145.08333
2830.722	138.08333
2832.905	139.08333
2835.086	139.75
2837.267	157.08333
2839.445	153.08333
2841.623	156.08333
2843.799	155.41667
2845.974	161.08333
2848.147	160.41667
2850.319	174.41667
2852.489	185.08333
2854.659	177.08333
2856.826	180.08333
2858.993	192.08333
2861.158	175.41667
2863.321	181.41667
2865.483	199.08333
2867.644	192.75
2869.804	190.08333
2871.962	176.08333
2874.118	193.41667
2876.274	195.75
2878.428	187.75
2880.58	192.41667
2882.731	183.08333
2884.881	190.08333
2887.03	197.08333
2889.177	185.08333
2891.322	192.41667
2893.467	186.41667
2895.61	184.75
2897.751	197.08333
2899.892	185.08333
2902.03	195.08333
2904.168	192.75
2906.304	194.41667
2908.439	207.41667
2910.572	190.41667
2912.704	193.75
2914.835	198.75
2916.965	196.75
2919.093	210.08333
2921.219	186.08333
2923.345	211.75
2925.469	191.41667
2927.591	190.75
2929.712	175.75
2931.832	198.75
2933.951	186.75
2936.068	178.08333
2938.184	173.08333
2940.299	173.08333
2942.412	165.08333
2944.524	150.75
2946.634	164.41667
2948.744	142.41667
2950.851	176.75
2952.958	141.08333
2955.063	154.75
2957.167	148.75
2959.269	135.41667
2961.371	161.75
2963.471	133.75
2965.569	148.41667
2967.666	122.75
2969.762	127.75
2971.857	119.41667
2973.95	117.75
2976.042	130.08333
2978.133	117.08333
2980.222	118.75
2982.31	109.41667
2984.396	91.08333
2986.482	100.75
2988.566	104.08333
2990.648	105.41667
2992.73	105.08333
2994.81	90.41667
2996.889	108.41667
2998.966	105.75
3001.042	115.08333
3003.117	93.41667
3005.191	99.41667
3007.263	106.41667
3009.334	100.75
3011.403	105.75
3013.472	94.41667
3015.539	108.75
3017.604	115.75
3019.669	88.75
3021.732	94.75
3023.794	94.75
3025.854	83.08333
3027.914	89.41667
3029.971	82.41667
3032.028	92.41667
3034.083	95.41667
3036.137	92.41667
3038.19	78.75
3040.242	77.75
3042.292	77.75
3044.341	82.08333
3046.388	98.75
3048.435	77.75
3050.48	94.41667
3052.524	81.08333
3054.566	70.08333
3056.607	85.08333
3058.647	77.41667
3060.686	65.08333
3062.723	67.75
3064.759	65.08333
3066.794	1.41667
3068.828	1.41667
3070.86	1.75
