-0.839	121.29167
3.438	133.29167
7.711	54.625
11.981	41.625
16.247	30.29167
20.509	36.29167
24.768	36.29167
29.024	39.625
33.276	29.29167
37.524	41.625
41.769	28.625
46.01	25.29167
50.247	40.95833
54.481	48.625
58.712	52.95833
62.939	33.29167
67.162	51.95833
71.382	47.29167
75.599	38.625
79.812	42.625
84.021	63.625
88.227	41.29167
92.429	48.29167
96.628	36.95833
100.823	45.95833
105.015	56.29167
109.204	46.625
113.388	54.95833
117.57	43.95833
121.748	57.625
125.922	45.625
130.093	65.29167
134.261	62.29167
138.425	49.625
142.585	82.95833
146.742	60.95833
150.896	71.95833
155.046	68.625
159.193	98.29167
163.336	140.95833
167.476	238.95833
171.613	434.29167
175.746	689.625
179.875	1002.95833
184.002	1289.625
188.124	1520.625
192.244	1589.95833
196.36	1582.95833
200.472	1578.95833
204.581	1545.95833
208.687	1492.29167
212.79	1487.625
216.889	1491.625
220.984	1528.625
225.077	1528.625
229.165	1514.29167
233.251	1524.95833
237.333	1516.625
241.412	1505.625
245.487	1475.29167
249.559	1469.29167
253.628	1461.95833
257.694	1440.625
261.756	1448.95833
265.814	1411.625
269.87	1371.95833
273.922	1341.95833
277.97	1333.625
282.016	1327.29167
286.058	1307.29167
290.097	1342.29167
294.132	1363.95833
298.164	1359.625
302.193	1305.95833
306.219	1221.95833
310.241	1140.625
314.26	1083.95833
318.276	1019.625
322.288	990.29167
326.297	966.625
330.303	938.29167
334.305	940.95833
338.305	915.625
342.301	918.625
346.294	913.625
350.283	899.29167
354.269	895.625
358.252	902.95833
362.232	912.95833
366.209	902.625
370.182	881.95833
374.152	869.29167
378.119	890.95833
382.083	883.29167
386.043	879.625
390	874.29167
393.954	881.95833
397.905	895.29167
401.852	905.29167
405.797	888.29167
409.738	881.29167
413.676	897.95833
417.61	896.29167
421.542	869.29167
425.47	851.625
429.396	867.95833
433.318	851.625
437.236	845.95833
441.152	891.625
445.065	835.625
448.974	845.625
452.88	836.29167
456.783	836.625
460.683	828.625
464.58	840.625
468.473	844.625
472.364	856.625
476.251	844.29167
480.135	849.95833
484.016	862.95833
487.894	873.625
491.769	864.625
495.641	854.95833
499.509	862.625
503.375	859.95833
507.237	852.29167
511.096	858.29167
514.952	849.29167
518.805	850.29167
522.655	842.95833
526.502	839.95833
530.346	868.95833
534.187	868.95833
538.024	851.625
541.859	852.625
545.69	865.95833
549.519	866.625
553.344	854.95833
557.166	845.95833
560.985	837.29167
564.802	842.95833
568.615	825.625
572.425	811.95833
576.232	813.625
580.036	819.95833
583.836	823.625
587.634	827.29167
591.429	816.625
595.221	845.29167
599.01	826.625
602.796	832.95833
606.578	850.95833
610.358	842.29167
614.135	836.29167
617.909	832.95833
621.679	830.95833
625.447	809.95833
629.212	824.625
632.973	826.625
636.732	815.29167
640.488	834.29167
644.241	798.29167
647.991	794.95833
651.737	836.29167
655.481	796.625
659.222	801.95833
662.96	797.29167
666.695	813.29167
670.427	812.625
674.156	819.29167
677.882	813.29167
681.605	815.95833
685.325	811.29167
689.043	829.29167
692.757	805.95833
696.468	814.625
700.177	807.625
703.882	798.625
707.585	789.95833
711.284	789.625
714.981	788.625
718.675	781.95833
722.366	802.29167
726.054	785.95833
729.739	798.95833
733.421	789.95833
737.1	788.29167
740.777	796.29167
744.45	793.625
748.121	798.29167
751.789	833.95833
755.453	814.29167
759.115	811.29167
762.774	809.625
766.431	814.625
770.084	816.625
773.734	822.29167
777.382	834.29167
781.027	840.625
784.669	830.29167
788.308	815.95833
791.944	848.625
795.577	843.29167
799.208	848.95833
802.835	848.29167
806.46	849.29167
810.082	847.29167
813.701	839.625
817.317	855.625
820.931	856.95833
824.542	854.625
828.149	840.95833
831.754	823.95833
835.357	827.625
838.956	841.95833
842.553	840.95833
846.146	826.29167
849.737	817.95833
853.326	820.29167
856.911	817.95833
860.493	830.625
864.073	835.95833
867.65	849.29167
871.225	865.29167
874.796	837.625
878.365	837.95833
881.931	841.95833
885.494	873.625
889.054	849.95833
892.612	862.29167
896.166	843.95833
899.719	828.95833
903.268	805.625
906.814	820.95833
910.358	800.95833
913.899	783.29167
917.438	795.29167
920.973	775.625
924.506	777.29167
928.036	823.29167
931.564	808.95833
935.088	829.29167
938.61	804.625
942.129	819.95833
945.646	823.29167
949.16	834.29167
952.671	846.625
956.179	849.625
959.685	829.625
963.188	847.29167
966.688	829.95833
970.185	792.625
973.68	801.29167
977.173	794.625
980.662	778.625
984.149	789.29167
987.633	776.29167
991.114	793.625
994.593	798.95833
998.069	801.95833
1001.542	820.95833
1005.013	815.29167
1008.481	760.625
1011.947	769.625
1015.409	751.29167
1018.869	770.29167
1022.327	762.29167
1025.782	758.29167
1029.234	740.29167
1032.683	735.29167
1036.13	710.625
1039.574	696.95833
1043.016	696.29167
1046.455	679.95833
1049.891	656.95833
1053.325	682.625
1056.756	669.95833
1060.184	669.29167
1063.61	660.29167
1067.033	685.625
1070.454	667.29167
1073.872	688.625
1077.287	658.95833
1080.7	670.95833
1084.11	666.95833
1087.517	667.95833
1090.922	669.625
1094.325	647.625
1097.724	653.625
1101.122	649.29167
1104.516	649.29167
1107.908	633.95833
1111.298	646.95833
1114.684	644.625
1118.069	663.29167
1121.45	670.95833
1124.83	653.625
1128.206	673.29167
1131.58	666.95833
1134.951	674.29167
1138.32	688.29167
1141.687	713.625
1145.05	739.95833
1148.412	729.29167
1151.77	728.95833
1155.126	713.95833
1158.48	715.29167
1161.831	719.29167
1165.18	718.625
1168.525	750.625
1171.869	740.625
1175.21	733.29167
1178.548	753.625
1181.884	754.95833
1185.217	761.29167
1188.548	778.29167
1191.877	785.29167
1195.202	819.29167
1198.526	837.95833
1201.846	825.95833
1205.165	827.95833
1208.48	833.95833
1211.794	840.625
1215.104	840.625
1218.413	837.625
1221.719	829.95833
1225.022	808.625
1228.323	789.95833
1231.621	812.29167
1234.917	789.29167
1238.21	827.625
1241.501	789.625
1244.79	783.95833
1248.076	778.95833
1251.359	800.95833
1254.64	835.95833
1257.919	813.29167
1261.195	814.95833
1264.468	832.29167
1267.74	836.95833
1271.008	840.29167
1274.275	848.29167
1277.538	825.625
1280.8	837.625
1284.059	829.29167
1287.315	842.95833
1290.569	840.29167
1293.821	845.95833
1297.07	854.95833
1300.317	848.95833
1303.562	850.625
1306.803	847.29167
1310.043	832.95833
1313.28	844.29167
1316.515	835.29167
1319.747	831.625
1322.977	814.29167
1326.204	828.625
1329.429	799.625
1332.652	818.95833
1335.872	802.625
1339.09	799.29167
1342.306	788.625
1345.519	780.95833
1348.729	781.95833
1351.938	780.95833
1355.144	766.29167
1358.347	758.95833
1361.548	773.29167
1364.747	767.95833
1367.944	757.29167
1371.138	754.625
1374.329	768.95833
1377.518	756.29167
1380.705	779.625
1383.89	770.625
1387.072	727.95833
1390.252	728.95833
1393.429	709.95833
1396.605	685.625
1399.777	656.95833
1402.948	655.625
1406.116	654.29167
1409.282	655.625
1412.445	654.625
1415.606	656.95833
1418.765	672.95833
1421.921	674.95833
1425.075	664.625
1428.227	691.29167
1431.376	737.29167
1434.524	740.29167
1437.668	758.29167
1440.811	757.625
1443.951	764.29167
1447.089	773.29167
1450.224	770.29167
1453.357	766.95833
1456.488	753.95833
1459.617	761.29167
1462.743	737.29167
1465.867	716.625
1468.989	718.95833
1472.108	707.95833
1475.225	699.29167
1478.34	671.29167
1481.453	682.95833
1484.563	671.625
1487.671	682.29167
1490.776	694.95833
1493.88	689.625
1496.981	720.29167
1500.08	713.95833
1503.176	716.95833
1506.271	723.95833
1509.363	738.625
1512.452	729.29167
1515.54	731.95833
1518.625	749.95833
1521.708	779.29167
1524.789	800.29167
1527.867	821.29167
1530.944	859.29167
1534.018	873.29167
1537.089	946.95833
1540.159	937.625
1543.226	951.95833
1546.291	912.625
1549.354	899.95833
1552.415	884.625
1555.473	867.29167
1558.529	858.95833
1561.583	840.95833
1564.634	830.95833
1567.684	826.95833
1570.731	826.29167
1573.776	838.95833
1576.819	847.625
1579.859	836.95833
1582.898	857.95833
1585.934	862.625
1588.968	868.29167
1591.999	846.95833
1595.029	867.29167
1598.056	861.625
1601.081	876.625
1604.104	880.625
1607.125	850.29167
1610.144	843.625
1613.16	811.95833
1616.174	806.95833
1619.186	793.29167
1622.196	772.95833
1625.203	747.95833
1628.209	763.625
1631.212	741.29167
1634.213	737.95833
1637.212	740.625
1640.209	731.29167
1643.203	692.95833
1646.196	688.625
1649.186	667.625
1652.174	667.625
1655.16	639.29167
1658.144	640.29167
1661.125	604.29167
1664.105	598.29167
1667.082	575.625
1670.057	540.29167
1673.03	508.95833
1676.001	494.29167
1678.97	454.29167
1681.937	447.95833
1684.901	422.95833
1687.863	417.95833
1690.824	392.95833
1693.782	403.29167
1696.738	374.625
1699.692	375.625
1702.643	364.95833
1705.593	365.95833
1708.54	360.625
1711.486	364.95833
1714.429	341.29167
1717.37	360.625
1720.309	333.29167
1723.246	351.625
1726.181	336.625
1729.113	337.95833
1732.044	331.625
1734.972	334.29167
1737.899	343.625
1740.823	344.95833
1743.745	361.625
1746.665	324.29167
1749.583	324.95833
1752.499	315.29167
1755.413	306.625
1758.325	298.95833
1761.235	317.95833
1764.142	294.625
1767.048	300.625
1769.951	296.95833
1772.852	294.95833
1775.752	303.625
1778.649	306.95833
1781.544	312.625
1784.437	286.29167
1787.328	295.625
1790.217	294.29167
1793.104	268.625
1795.989	278.95833
1798.872	267.29167
1801.753	290.29167
1804.631	278.29167
1807.508	287.625
1810.383	276.95833
1813.255	280.625
1816.126	272.29167
1818.994	269.29167
1821.861	273.29167
1824.725	276.29167
1827.587	274.95833
1830.448	273.95833
1833.306	263.625
1836.162	274.95833
1839.017	269.95833
1841.869	267.29167
1844.719	270.95833
1847.567	254.625
1850.414	252.625
1853.258	250.95833
1856.1	264.29167
1858.94	275.625
1861.778	262.625
1864.614	248.95833
1867.448	261.625
1870.28	241.29167
1873.111	274.95833
1875.939	256.625
1878.765	266.625
1881.589	246.29167
1884.411	253.95833
1887.231	256.625
1890.049	255.29167
1892.865	262.29167
1895.68	246.625
1898.492	254.95833
1901.302	247.29167
1904.11	249.29167
1906.916	248.95833
1909.721	241.29167
1912.523	252.29167
1915.323	238.625
1918.122	236.29167
1920.918	251.29167
1923.712	241.29167
1926.505	243.95833
1929.295	226.29167
1932.084	247.625
1934.87	242.625
1937.655	244.29167
1940.438	231.95833
1943.218	237.625
1945.997	234.625
1948.774	242.29167
1951.549	243.625
1954.322	236.625
1957.093	230.95833
1959.862	226.95833
1962.629	227.29167
1965.394	232.29167
1968.157	221.625
1970.918	240.29167
1973.678	222.625
1976.435	234.625
1979.19	228.95833
1981.944	213.625
1984.696	222.95833
1987.445	213.95833
1990.193	226.625
1992.939	237.625
1995.683	222.29167
1998.425	209.625
2001.165	245.29167
2003.903	210.95833
2006.639	221.625
2009.374	220.625
2012.106	229.95833
2014.837	208.29167
2017.566	224.29167
2020.292	221.95833
2023.017	211.29167
2025.74	215.29167
2028.461	203.95833
2031.18	217.95833
2033.898	204.625
2036.613	209.95833
2039.327	212.29167
2042.038	212.95833
2044.748	206.29167
2047.456	213.625
2050.162	197.29167
2052.866	198.95833
2055.568	224.625
2058.268	201.95833
2060.967	218.625
2063.663	201.625
2066.358	206.625
2069.051	200.95833
2071.742	202.95833
2074.431	219.95833
2077.118	200.95833
2079.804	196.29167
2082.487	200.625
2085.169	212.29167
2087.849	225.95833
2090.527	193.29167
2093.203	202.95833
2095.877	210.625
2098.55	210.29167
2101.22	213.625
2103.889	220.29167
2106.556	209.29167
2109.221	224.625
2111.884	220.29167
2114.546	242.29167
2117.205	234.29167
2119.863	274.95833
2122.519	265.29167
2125.173	283.95833
2127.825	312.29167
2130.475	307.625
2133.124	294.29167
2135.771	277.29167
2138.416	282.95833
2141.059	257.95833
2143.7	267.95833
2146.339	233.95833
2148.977	222.95833
2151.613	233.95833
2154.247	219.29167
2156.879	215.29167
2159.51	206.29167
2162.138	209.95833
2164.765	200.625
2167.39	188.29167
2170.013	213.95833
2172.634	205.95833
2175.254	195.29167
2177.872	230.29167
2180.488	188.29167
2183.102	191.625
2185.714	192.29167
2188.325	183.29167
2190.934	196.95833
2193.541	194.625
2196.146	187.29167
2198.75	170.625
2201.351	177.625
2203.951	165.625
2206.549	179.625
2209.146	174.29167
2211.74	171.95833
2214.333	180.29167
2216.924	169.625
2219.514	178.95833
2222.101	169.29167
2224.687	189.95833
2227.271	159.29167
2229.853	166.95833
2232.433	150.625
2235.012	173.95833
2237.589	167.29167
2240.164	182.29167
2242.738	163.29167
2245.309	152.29167
2247.879	180.29167
2250.448	173.625
2253.014	155.95833
2255.579	148.95833
2258.142	162.29167
2260.703	154.625
2263.262	154.625
2265.82	146.625
2268.376	173.625
2270.93	147.95833
2273.483	148.95833
2276.033	166.29167
2278.583	147.625
2281.13	153.625
2283.675	140.95833
2286.219	155.29167
2288.761	161.95833
2291.302	160.29167
2293.841	164.95833
2296.377	141.29167
2298.913	158.29167
2301.446	162.29167
2303.978	153.29167
2306.508	151.95833
2309.037	144.95833
2311.563	151.95833
2314.088	153.95833
2316.612	139.625
2319.133	149.625
2321.653	152.95833
2324.171	144.29167
2326.688	160.29167
2329.202	148.29167
2331.715	145.625
2334.227	150.95833
2336.736	142.625
2339.244	139.95833
2341.751	136.29167
2344.255	151.29167
2346.758	151.625
2349.259	134.29167
2351.759	147.625
2354.257	142.625
2356.753	137.95833
2359.247	134.95833
2361.74	137.625
2364.231	136.625
2366.721	153.95833
2369.209	134.95833
2371.695	135.95833
2374.179	133.29167
2376.662	124.95833
2379.143	148.29167
2381.622	142.95833
2384.1	144.625
2386.576	131.95833
2389.051	149.29167
2391.524	149.625
2393.995	142.29167
2396.464	132.95833
2398.932	128.625
2401.398	135.625
2403.863	128.29167
2406.325	130.29167
2408.787	135.95833
2411.246	131.95833
2413.704	133.29167
2416.16	124.29167
2418.615	130.29167
2421.068	133.625
2423.519	130.29167
2425.969	123.29167
2428.417	137.29167
2430.863	154.625
2433.308	141.29167
2435.751	137.95833
2438.193	128.95833
2440.633	134.625
2443.071	133.95833
2445.508	126.29167
2447.943	131.29167
2450.376	122.29167
2452.808	131.29167
2455.238	121.29167
2457.667	151.29167
2460.093	124.29167
2462.519	115.625
2464.942	119.95833
2467.365	134.625
2469.785	128.29167
2472.204	119.95833
2474.621	121.95833
2477.037	138.29167
2479.451	113.625
2481.863	114.29167
2484.274	121.29167
2486.683	123.625
2489.091	129.625
2491.497	124.625
2493.901	122.625
2496.304	113.625
2498.705	134.95833
2501.105	125.95833
2503.503	141.95833
2505.899	111.625
2508.294	134.95833
2510.687	116.29167
2513.079	116.95833
2515.469	110.95833
2517.858	115.95833
2520.245	125.95833
2522.63	118.29167
2525.014	121.29167
2527.396	113.95833
2529.776	119.29167
2532.156	122.625
2534.533	110.29167
2536.909	111.29167
2539.283	99.29167
2541.656	116.29167
2544.027	126.95833
2546.397	123.625
2548.765	114.95833
2551.131	116.625
2553.496	121.29167
2555.86	122.29167
2558.221	126.29167
2560.582	108.95833
2562.94	101.625
2565.298	112.95833
2567.653	128.95833
2570.007	102.625
2572.36	116.29167
2574.711	105.29167
2577.06	126.95833
2579.408	118.95833
2581.754	108.29167
2584.099	111.29167
2586.442	109.29167
2588.784	117.95833
2591.124	117.95833
2593.463	111.95833
2595.8	113.625
2598.135	102.29167
2600.469	100.29167
2602.802	114.95833
2605.133	124.29167
2607.462	101.95833
2609.79	98.29167
2612.116	117.95833
2614.441	111.95833
2616.764	114.625
2619.086	110.29167
2621.406	105.95833
2623.725	117.29167
2626.042	105.625
2628.358	106.29167
2630.672	112.29167
2632.985	115.625
2635.296	111.29167
2637.606	110.29167
2639.914	101.29167
2642.22	110.625
2644.525	108.625
2646.829	108.625
2649.131	125.29167
2651.432	115.625
2653.731	104.625
2656.028	118.95833
2658.324	113.29167
2660.619	100.95833
2662.912	116.625
2665.204	97.29167
2667.494	115.29167
2669.782	99.29167
2672.07	117.95833
2674.355	116.29167
2676.639	113.29167
2678.922	102.29167
2681.203	111.625
2683.483	103.29167
2685.761	96.29167
2688.038	118.95833
2690.313	122.95833
2692.587	113.625
2694.859	104.625
2697.13	109.625
2699.399	112.95833
2701.667	120.625
2703.933	111.95833
2706.198	119.95833
2708.461	118.29167
2710.723	121.625
2712.984	113.29167
2715.243	119.625
2717.5	108.95833
2719.757	116.625
2722.011	107.625
2724.264	117.625
2726.516	123.625
2728.766	103.29167
2731.015	110.95833
2733.262	114.625
2735.508	108.95833
2737.753	114.95833
2739.996	101.29167
2742.237	107.625
2744.477	118.95833
2746.716	119.29167
2748.953	122.625
2751.189	117.625
2753.423	116.625
2755.656	108.625
2757.887	100.625
2760.117	110.625
2762.346	105.625
2764.573	91.625
2766.798	99.95833
2769.022	107.95833
2771.245	96.95833
2773.467	103.95833
2775.686	102.29167
2777.905	114.95833
2780.122	108.29167
2782.337	111.29167
2784.552	99.625
2786.764	105.95833
2788.976	98.625
2791.186	103.29167
2793.394	107.625
2795.601	117.29167
2797.807	122.29167
2800.011	110.95833
2802.214	122.625
2804.415	111.95833
2806.615	110.95833
2808.814	114.95833
2811.011	121.29167
2813.206	115.625
2815.401	127.95833
2817.594	122.625
2819.785	131.625
2821.975	111.95833
2824.164	121.95833
2826.351	117.29167
2828.537	133.29167
2830.722	131.625
2832.905	124.625
2835.086	136.625
2837.267	146.29167
2839.445	142.29167
2841.623	142.29167
2843.799	147.625
2845.974	149.625
2848.147	160.625
2850.319	161.625
2852.489	170.95833
2854.659	172.29167
2856.826	168.95833
2858.993	189.95833
2861.158	163.625
2863.321	167.625
2865.483	194.95833
2867.644	182.95833
2869.804	182.625
2871.962	181.95833
2874.118	175.95833
2876.274	182.29167
2878.428	178.95833
2880.58	179.95833
2882.731	165.625
2884.881	175.95833
2887.03	181.29167
2889.177	179.29167
2891.322	191.29167
2893.467	171.29167
2895.61	172.29167
2897.751	190.29167
2899.892	171.29167
2902.03	184.95833
2904.168	176.95833
2906.304	180.95833
2908.439	197.625
2910.572	172.95833
2912.704	186.29167
2914.835	186.29167
2916.965	189.29167
2919.093	204.29167
2921.219	170.95833
2923.345	197.29167
2925.469	184.625
2927.591	179.625
2929.712	162.625
2931.832	180.625
2933.951	176.625
2936.068	172.625
2938.184	163.29167
2940.299	162.625
2942.412	160.95833
2944.524	139.625
2946.634	151.95833
2948.744	133.29167
2950.851	165.95833
2952.958	133.29167
2955.063	139.29167
2957.167	133.29167
2959.269	128.29167
2961.371	155.29167
2963.471	126.625
2965.569	138.95833
2967.666	113.29167
2969.762	120.95833
2971.857	110.625
2973.95	109.625
2976.042	115.625
2978.133	111.29167
2980.222	108.625
2982.31	97.95833
2984.396	87.95833
2986.482	93.95833
2988.566	96.29167
2990.648	100.29167
2992.73	97.95833
2994.81	83.625
2996.889	101.625
2998.966	96.29167
3001.042	101.29167
3003.117	91.29167
3005.191	97.95833
3007.263	99.625
3009.334	91.625
3011.403	95.95833
3013.472	87.29167
3015.539	104.95833
3017.604	116.95833
3019.669	81.29167
3021.732	86.95833
3023.794	88.29167
3025.854	82.29167
3027.914	74.95833
3029.971	79.29167
3032.028	81.95833
3034.083	89.625
3036.137	83.625
3038.19	74.625
3040.242	70.625
3042.292	69.625
3044.341	83.29167
3046.388	94.29167
3048.435	69.95833
3050.48	89.29167
3052.524	75.29167
3054.566	62.95833
3056.607	78.29167
3058.647	73.95833
3060.686	59.625
3062.723	57.29167
3064.759	63.95833
3066.794	0.95833
3068.828	1.29167
3070.86	2.625
