-0.839	125.45833
3.438	144.125
7.711	64.125
11.981	42.79167
16.247	32.45833
20.509	33.45833
24.768	36.79167
29.024	46.45833
33.276	29.45833
37.524	40.125
41.769	29.79167
46.01	27.79167
50.247	41.79167
54.481	49.45833
58.712	52.125
62.939	37.45833
67.162	52.125
71.382	44.45833
75.599	34.45833
79.812	45.125
84.021	61.125
88.227	42.125
92.429	50.125
96.628	39.45833
100.823	49.79167
105.015	49.125
109.204	48.79167
113.388	53.125
117.57	42.79167
121.748	63.125
125.922	48.45833
130.093	68.125
134.261	61.79167
138.425	51.79167
142.585	81.45833
146.742	63.125
150.896	81.79167
155.046	78.79167
159.193	114.125
163.336	159.45833
167.476	275.79167
171.613	501.125
175.746	799.125
179.875	1169.79167
184.002	1512.125
188.124	1772.45833
192.244	1872.79167
196.36	1876.125
200.472	1876.125
204.581	1838.79167
208.687	1793.79167
212.79	1778.125
216.889	1801.79167
220.984	1834.45833
225.077	1824.79167
229.165	1825.125
233.251	1828.79167
237.333	1843.125
241.412	1786.79167
245.487	1797.79167
249.559	1773.125
253.628	1790.45833
257.694	1755.45833
261.756	1746.125
265.814	1727.79167
269.87	1697.79167
273.922	1644.45833
277.97	1664.45833
282.016	1642.45833
286.058	1621.79167
290.097	1645.125
294.132	1663.125
298.164	1656.79167
302.193	1610.125
306.219	1538.79167
310.241	1462.79167
314.26	1365.79167
318.276	1321.45833
322.288	1291.79167
326.297	1261.45833
330.303	1244.125
334.305	1229.125
338.305	1227.125
342.301	1229.45833
346.294	1217.79167
350.283	1217.125
354.269	1217.79167
358.252	1194.45833
362.232	1204.45833
366.209	1216.79167
370.182	1205.45833
374.152	1188.125
378.119	1205.79167
382.083	1191.45833
386.043	1201.125
390	1194.45833
393.954	1225.125
397.905	1207.45833
401.852	1234.79167
405.797	1221.45833
409.738	1199.79167
413.676	1230.45833
417.61	1215.125
421.542	1218.45833
425.47	1194.125
429.396	1193.45833
433.318	1179.79167
437.236	1191.79167
441.152	1219.79167
445.065	1175.125
448.974	1192.125
452.88	1178.45833
456.783	1171.125
460.683	1175.79167
464.58	1177.79167
468.473	1181.125
472.364	1179.45833
476.251	1186.79167
480.135	1194.125
484.016	1212.79167
487.894	1205.45833
491.769	1208.45833
495.641	1198.45833
499.509	1207.125
503.375	1213.125
507.237	1202.45833
511.096	1194.125
514.952	1192.125
518.805	1190.79167
522.655	1191.125
526.502	1180.125
530.346	1214.125
534.187	1193.45833
538.024	1195.45833
541.859	1173.79167
545.69	1222.45833
549.519	1195.45833
553.344	1203.79167
557.166	1186.79167
560.985	1189.45833
564.802	1184.125
568.615	1173.45833
572.425	1140.45833
576.232	1140.79167
580.036	1147.125
583.836	1157.79167
587.634	1164.45833
591.429	1146.45833
595.221	1188.45833
599.01	1180.125
602.796	1168.125
606.578	1162.125
610.358	1196.79167
614.135	1167.45833
617.909	1187.125
621.679	1161.125
625.447	1163.45833
629.212	1165.45833
632.973	1174.125
636.732	1163.79167
640.488	1163.125
644.241	1140.45833
647.991	1132.45833
651.737	1171.45833
655.481	1128.125
659.222	1147.125
662.96	1132.45833
666.695	1143.79167
670.427	1144.79167
674.156	1156.79167
677.882	1144.125
681.605	1163.79167
685.325	1133.79167
689.043	1154.79167
692.757	1141.79167
696.468	1134.45833
700.177	1118.125
703.882	1115.45833
707.585	1113.79167
711.284	1125.45833
714.981	1103.125
718.675	1099.45833
722.366	1107.79167
726.054	1078.45833
729.739	1105.79167
733.421	1103.45833
737.1	1098.79167
740.777	1115.79167
744.45	1106.45833
748.121	1104.125
751.789	1140.45833
755.453	1116.45833
759.115	1115.79167
762.774	1110.45833
766.431	1119.125
770.084	1125.45833
773.734	1117.45833
777.382	1125.79167
781.027	1127.125
784.669	1129.125
788.308	1111.45833
791.944	1138.79167
795.577	1143.45833
799.208	1144.79167
802.835	1134.45833
806.46	1148.125
810.082	1142.79167
813.701	1150.125
817.317	1165.45833
820.931	1163.125
824.542	1154.125
828.149	1126.45833
831.754	1127.125
835.357	1121.79167
838.956	1146.125
842.553	1131.45833
846.146	1108.125
849.737	1097.79167
853.326	1106.79167
856.911	1081.79167
860.493	1102.79167
864.073	1110.79167
867.65	1124.45833
871.225	1128.125
874.796	1109.125
878.365	1093.79167
881.931	1121.125
885.494	1128.79167
889.054	1102.79167
892.612	1120.79167
896.166	1087.79167
899.719	1083.79167
903.268	1073.125
906.814	1072.79167
910.358	1047.125
913.899	1041.45833
917.438	1059.45833
920.973	1020.125
924.506	1050.45833
928.036	1061.125
931.564	1078.45833
935.088	1082.125
938.61	1074.125
942.129	1062.45833
945.646	1092.125
949.16	1085.45833
952.671	1097.125
956.179	1096.45833
959.685	1089.45833
963.188	1108.45833
966.688	1087.79167
970.185	1063.45833
973.68	1033.125
977.173	1040.45833
980.662	1024.45833
984.149	1031.45833
987.633	1012.79167
991.114	1032.125
994.593	1044.125
998.069	1052.79167
1001.542	1064.125
1005.013	1060.45833
1008.481	998.45833
1011.947	1004.45833
1015.409	982.45833
1018.869	991.79167
1022.327	994.45833
1025.782	982.45833
1029.234	966.125
1032.683	958.79167
1036.13	945.125
1039.574	915.79167
1043.016	897.125
1046.455	908.125
1049.891	890.79167
1053.325	880.125
1056.756	875.45833
1060.184	885.79167
1063.61	874.45833
1067.033	887.79167
1070.454	877.125
1073.872	907.79167
1077.287	889.125
1080.7	873.79167
1084.11	877.125
1087.517	872.79167
1090.922	877.125
1094.325	859.45833
1097.724	847.125
1101.122	856.79167
1104.516	845.125
1107.908	833.79167
1111.298	821.45833
1114.684	849.79167
1118.069	840.79167
1121.45	872.79167
1124.83	844.79167
1128.206	863.125
1131.58	867.125
1134.951	887.125
1138.32	890.79167
1141.687	922.79167
1145.05	935.79167
1148.412	923.125
1151.77	929.79167
1155.126	925.79167
1158.48	901.79167
1161.831	904.79167
1165.18	908.45833
1168.525	928.125
1171.869	931.79167
1175.21	939.45833
1178.548	928.125
1181.884	942.125
1185.217	940.45833
1188.548	973.125
1191.877	977.125
1195.202	1015.45833
1198.526	1033.45833
1201.846	1040.45833
1205.165	1034.125
1208.48	1026.79167
1211.794	1031.125
1215.104	1029.79167
1218.413	1014.45833
1221.719	1023.79167
1225.022	1000.79167
1228.323	1000.45833
1231.621	1002.79167
1234.917	995.45833
1238.21	1015.45833
1241.501	993.125
1244.79	973.125
1248.076	967.79167
1251.359	985.45833
1254.64	1028.125
1257.919	1006.125
1261.195	1013.45833
1264.468	1024.45833
1267.74	1036.45833
1271.008	1029.45833
1274.275	1033.45833
1277.538	1037.45833
1280.8	1028.125
1284.059	1014.79167
1287.315	1027.79167
1290.569	1013.45833
1293.821	1012.79167
1297.07	1032.45833
1300.317	1037.45833
1303.562	1034.45833
1306.803	1029.79167
1310.043	1017.79167
1313.28	1014.125
1316.515	1012.125
1319.747	992.45833
1322.977	1006.45833
1326.204	990.79167
1329.429	989.125
1332.652	985.45833
1335.872	989.45833
1339.09	973.125
1342.306	974.45833
1345.519	977.125
1348.729	955.45833
1351.938	972.125
1355.144	955.125
1358.347	941.79167
1361.548	955.45833
1364.747	942.45833
1367.944	922.45833
1371.138	927.45833
1374.329	932.125
1377.518	937.79167
1380.705	931.79167
1383.89	943.125
1387.072	914.125
1390.252	882.79167
1393.429	869.45833
1396.605	848.79167
1399.777	817.45833
1402.948	821.125
1406.116	796.45833
1409.282	799.79167
1412.445	814.125
1415.606	810.125
1418.765	815.79167
1421.921	820.125
1425.075	834.79167
1428.227	846.79167
1431.376	866.45833
1434.524	902.45833
1437.668	915.125
1440.811	910.125
1443.951	918.125
1447.089	917.45833
1450.224	925.125
1453.357	921.125
1456.488	904.45833
1459.617	896.45833
1462.743	903.79167
1465.867	876.79167
1468.989	864.79167
1472.108	854.45833
1475.225	841.79167
1478.34	821.45833
1481.453	823.79167
1484.563	820.79167
1487.671	837.79167
1490.776	850.45833
1493.88	852.125
1496.981	861.125
1500.08	861.125
1503.176	878.125
1506.271	870.45833
1509.363	896.45833
1512.452	876.45833
1515.54	878.125
1518.625	899.45833
1521.708	932.125
1524.789	959.125
1527.867	965.45833
1530.944	1001.45833
1534.018	1027.45833
1537.089	1074.79167
1540.159	1086.79167
1543.226	1088.79167
1546.291	1066.125
1549.354	1045.125
1552.415	1022.45833
1555.473	1012.79167
1558.529	995.79167
1561.583	990.45833
1564.634	973.125
1567.684	973.79167
1570.731	964.125
1573.776	971.79167
1576.819	979.79167
1579.859	986.45833
1582.898	988.45833
1585.934	1004.125
1588.968	1010.45833
1591.999	1008.45833
1595.029	997.79167
1598.056	1002.45833
1601.081	1027.125
1604.104	1033.125
1607.125	1009.125
1610.144	991.125
1613.16	959.45833
1616.174	946.125
1619.186	932.79167
1622.196	917.79167
1625.203	884.79167
1628.209	887.79167
1631.212	880.79167
1634.213	894.79167
1637.212	894.79167
1640.209	883.45833
1643.203	863.79167
1646.196	835.125
1649.186	819.45833
1652.174	801.45833
1655.16	768.79167
1658.144	769.45833
1661.125	726.79167
1664.105	709.45833
1667.082	691.45833
1670.057	637.79167
1673.03	615.125
1676.001	598.45833
1678.97	564.125
1681.937	548.125
1684.901	512.79167
1687.863	514.79167
1690.824	491.125
1693.782	497.45833
1696.738	464.125
1699.692	469.79167
1702.643	453.125
1705.593	449.79167
1708.54	446.79167
1711.486	457.125
1714.429	438.45833
1717.37	442.125
1720.309	425.45833
1723.246	433.125
1726.181	420.125
1729.113	412.125
1732.044	420.79167
1734.972	412.45833
1737.899	428.79167
1740.823	426.125
1743.745	442.79167
1746.665	400.125
1749.583	399.45833
1752.499	397.45833
1755.413	395.45833
1758.325	380.125
1761.235	388.79167
1764.142	375.45833
1767.048	376.125
1769.951	374.79167
1772.852	381.45833
1775.752	373.125
1778.649	377.79167
1781.544	390.45833
1784.437	365.125
1787.328	371.45833
1790.217	372.79167
1793.104	353.79167
1795.989	359.79167
1798.872	343.79167
1801.753	356.45833
1804.631	355.45833
1807.508	349.79167
1810.383	351.79167
1813.255	353.125
1816.126	355.45833
1818.994	345.125
1821.861	343.79167
1824.725	350.79167
1827.587	352.79167
1830.448	347.45833
1833.306	334.125
1836.162	356.125
1839.017	341.125
1841.869	340.45833
1844.719	341.79167
1847.567	325.45833
1850.414	317.125
1853.258	322.45833
1856.1	332.125
1858.94	330.125
1861.778	326.45833
1864.614	328.125
1867.448	328.45833
1870.28	308.79167
1873.111	338.79167
1875.939	318.79167
1878.765	336.125
1881.589	316.79167
1884.411	319.79167
1887.231	323.79167
1890.049	324.125
1892.865	337.125
1895.68	314.45833
1898.492	323.125
1901.302	311.45833
1904.11	313.125
1906.916	316.125
1909.721	304.79167
1912.523	313.125
1915.323	300.79167
1918.122	300.45833
1920.918	318.45833
1923.712	296.79167
1926.505	304.79167
1929.295	282.125
1932.084	309.125
1934.87	301.79167
1937.655	296.45833
1940.438	287.79167
1943.218	297.45833
1945.997	298.125
1948.774	299.45833
1951.549	301.45833
1954.322	288.79167
1957.093	288.79167
1959.862	292.125
1962.629	290.125
1965.394	285.79167
1968.157	280.45833
1970.918	295.45833
1973.678	279.125
1976.435	299.79167
1979.19	280.79167
1981.944	276.125
1984.696	278.79167
1987.445	275.45833
1990.193	276.79167
1992.939	289.125
1995.683	278.79167
1998.425	258.45833
2001.165	299.45833
2003.903	269.45833
2006.639	272.45833
2009.374	280.79167
2012.106	277.45833
2014.837	249.79167
2017.566	278.125
2020.292	270.125
2023.017	265.45833
2025.74	257.79167
2028.461	261.45833
2031.18	270.125
2033.898	258.125
2036.613	264.125
2039.327	271.125
2042.038	252.79167
2044.748	259.45833
2047.456	259.125
2050.162	256.125
2052.866	258.79167
2055.568	272.125
2058.268	253.45833
2060.967	267.125
2063.663	243.79167
2066.358	252.125
2069.051	243.79167
2071.742	251.125
2074.431	263.79167
2077.118	250.79167
2079.804	241.45833
2082.487	251.125
2085.169	256.125
2087.849	265.45833
2090.527	244.45833
2093.203	249.45833
2095.877	250.45833
2098.55	252.125
2101.22	261.45833
2103.889	259.125
2106.556	247.45833
2109.221	267.125
2111.884	253.45833
2114.546	280.45833
2117.205	280.125
2119.863	314.125
2122.519	305.125
2125.173	327.45833
2127.825	357.79167
2130.475	356.45833
2133.124	334.45833
2135.771	318.125
2138.416	335.125
2141.059	294.79167
2143.7	301.45833
2146.339	274.79167
2148.977	250.45833
2151.613	270.79167
2154.247	264.125
2156.879	256.79167
2159.51	251.45833
2162.138	241.79167
2164.765	239.45833
2167.39	231.79167
2170.013	256.79167
2172.634	252.125
2175.254	231.45833
2177.872	271.125
2180.488	222.45833
2183.102	228.125
2185.714	232.45833
2188.325	222.45833
2190.934	231.125
2193.541	234.45833
2196.146	225.125
2198.75	211.45833
2201.351	214.45833
2203.951	201.79167
2206.549	220.79167
2209.146	205.45833
2211.74	202.125
2214.333	216.79167
2216.924	205.125
2219.514	206.125
2222.101	205.45833
2224.687	223.79167
2227.271	197.79167
2229.853	199.79167
2232.433	183.125
2235.012	205.125
2237.589	206.125
2240.164	215.45833
2242.738	200.45833
2245.309	195.125
2247.879	210.79167
2250.448	210.45833
2253.014	192.45833
2255.579	187.79167
2258.142	191.125
2260.703	190.79167
2263.262	187.45833
2265.82	184.125
2268.376	195.79167
2270.93	186.125
2273.483	183.79167
2276.033	199.125
2278.583	183.45833
2281.13	176.125
2283.675	175.45833
2286.219	179.45833
2288.761	193.79167
2291.302	186.125
2293.841	193.79167
2296.377	170.79167
2298.913	186.125
2301.446	199.125
2303.978	179.45833
2306.508	177.125
2309.037	179.125
2311.563	177.79167
2314.088	182.125
2316.612	172.125
2319.133	184.125
2321.653	181.125
2324.171	170.125
2326.688	188.45833
2329.202	181.79167
2331.715	183.79167
2334.227	178.45833
2336.736	175.125
2339.244	167.125
2341.751	159.79167
2344.255	180.79167
2346.758	175.79167
2349.259	166.125
2351.759	174.125
2354.257	161.125
2356.753	158.45833
2359.247	159.45833
2361.74	165.79167
2364.231	167.125
2366.721	174.125
2369.209	160.45833
2371.695	166.125
2374.179	158.45833
2376.662	154.125
2379.143	176.45833
2381.622	163.79167
2384.1	168.125
2386.576	155.79167
2389.051	175.125
2391.524	171.79167
2393.995	164.125
2396.464	158.45833
2398.932	159.45833
2401.398	161.125
2403.863	153.125
2406.325	155.125
2408.787	160.125
2411.246	157.79167
2413.704	157.79167
2416.16	145.79167
2418.615	154.79167
2421.068	158.125
2423.519	143.79167
2425.969	146.79167
2428.417	163.125
2430.863	173.79167
2433.308	163.45833
2435.751	154.45833
2438.193	161.125
2440.633	159.125
2443.071	159.45833
2445.508	148.45833
2447.943	152.125
2450.376	144.45833
2452.808	155.45833
2455.238	145.125
2457.667	170.125
2460.093	144.125
2462.519	132.125
2464.942	140.79167
2467.365	150.45833
2469.785	147.79167
2472.204	145.125
2474.621	144.79167
2477.037	160.125
2479.451	136.125
2481.863	135.125
2484.274	135.79167
2486.683	146.125
2489.091	154.45833
2491.497	147.125
2493.901	146.45833
2496.304	143.125
2498.705	150.79167
2501.105	146.79167
2503.503	167.125
2505.899	135.45833
2508.294	158.45833
2510.687	131.79167
2513.079	139.79167
2515.469	137.79167
2517.858	129.79167
2520.245	156.45833
2522.63	136.45833
2525.014	133.125
2527.396	128.125
2529.776	138.79167
2532.156	140.125
2534.533	125.45833
2536.909	130.125
2539.283	115.45833
2541.656	131.79167
2544.027	146.45833
2546.397	134.79167
2548.765	128.79167
2551.131	131.125
2553.496	139.125
2555.86	133.45833
2558.221	139.79167
2560.582	131.125
2562.94	119.45833
2565.298	134.45833
2567.653	141.45833
2570.007	118.45833
2572.36	134.125
2574.711	127.125
2577.06	142.125
2579.408	132.125
2581.754	126.125
2584.099	128.79167
2586.442	126.45833
2588.784	138.45833
2591.124	131.45833
2593.463	127.79167
2595.8	132.79167
2598.135	120.45833
2600.469	118.79167
2602.802	137.45833
2605.133	130.125
2607.462	121.79167
2609.79	115.79167
2612.116	137.125
2614.441	125.125
2616.764	129.79167
2619.086	128.79167
2621.406	125.125
2623.725	132.125
2626.042	119.79167
2628.358	122.45833
2630.672	128.45833
2632.985	133.45833
2635.296	125.79167
2637.606	126.45833
2639.914	118.79167
2642.22	122.125
2644.525	123.125
2646.829	122.125
2649.131	136.125
2651.432	132.45833
2653.731	119.125
2656.028	135.125
2658.324	124.79167
2660.619	117.79167
2662.912	128.79167
2665.204	114.125
2667.494	124.45833
2669.782	114.125
2672.07	131.45833
2674.355	131.45833
2676.639	125.125
2678.922	119.125
2681.203	126.45833
2683.483	116.79167
2685.761	108.79167
2688.038	134.125
2690.313	138.125
2692.587	121.45833
2694.859	120.45833
2697.13	122.45833
2699.399	126.79167
2701.667	136.79167
2703.933	125.45833
2706.198	134.79167
2708.461	135.125
2710.723	130.45833
2712.984	126.79167
2715.243	128.125
2717.5	125.125
2719.757	134.45833
2722.011	126.79167
2724.264	133.79167
2726.516	138.45833
2728.766	118.45833
2731.015	123.45833
2733.262	122.125
2735.508	124.45833
2737.753	128.125
2739.996	118.79167
2742.237	121.45833
2744.477	133.125
2746.716	136.125
2748.953	135.125
2751.189	136.45833
2753.423	128.125
2755.656	122.45833
2757.887	115.45833
2760.117	116.79167
2762.346	113.79167
2764.573	106.45833
2766.798	118.45833
2769.022	115.79167
2771.245	112.79167
2773.467	118.45833
2775.686	116.125
2777.905	124.125
2780.122	117.45833
2782.337	127.45833
2784.552	116.79167
2786.764	116.125
2788.976	113.125
2791.186	116.45833
2793.394	116.45833
2795.601	126.45833
2797.807	128.125
2800.011	126.45833
2802.214	131.125
2804.415	122.125
2806.615	123.79167
2808.814	131.45833
2811.011	131.125
2813.206	128.45833
2815.401	143.45833
2817.594	137.79167
2819.785	146.125
2821.975	127.125
2824.164	132.45833
2826.351	127.45833
2828.537	147.125
2830.722	146.79167
2832.905	141.45833
2835.086	143.125
2837.267	159.45833
2839.445	154.45833
2841.623	158.125
2843.799	154.79167
2845.974	161.125
2848.147	163.79167
2850.319	173.125
2852.489	180.125
2854.659	184.79167
2856.826	188.45833
2858.993	205.79167
2861.158	182.125
2863.321	188.125
2865.483	204.45833
2867.644	200.79167
2869.804	192.125
2871.962	194.125
2874.118	193.45833
2876.274	201.125
2878.428	188.79167
2880.58	194.45833
2882.731	181.45833
2884.881	190.79167
2887.03	194.125
2889.177	194.79167
2891.322	204.79167
2893.467	187.125
2895.61	185.125
2897.751	205.45833
2899.892	191.125
2902.03	196.125
2904.168	193.125
2906.304	194.125
2908.439	210.79167
2910.572	190.45833
2912.704	193.45833
2914.835	203.45833
2916.965	199.79167
2919.093	210.125
2921.219	186.45833
2923.345	212.125
2925.469	195.79167
2927.591	193.45833
2929.712	179.79167
2931.832	190.45833
2933.951	187.45833
2936.068	175.79167
2938.184	170.45833
2940.299	169.79167
2942.412	172.125
2944.524	150.45833
2946.634	171.125
2948.744	139.125
2950.851	180.79167
2952.958	151.125
2955.063	157.125
2957.167	151.79167
2959.269	131.125
2961.371	162.79167
2963.471	134.79167
2965.569	149.125
2967.666	126.125
2969.762	129.79167
2971.857	120.45833
2973.95	115.125
2976.042	129.125
2978.133	120.45833
2980.222	118.125
2982.31	105.79167
2984.396	93.79167
2986.482	105.79167
2988.566	110.125
2990.648	104.79167
2992.73	105.125
2994.81	92.125
2996.889	112.79167
2998.966	101.79167
3001.042	114.45833
3003.117	99.125
3005.191	108.45833
3007.263	107.45833
3009.334	102.79167
3011.403	103.79167
3013.472	96.125
3015.539	112.79167
3017.604	121.125
3019.669	91.79167
3021.732	101.79167
3023.794	96.45833
3025.854	92.79167
3027.914	88.125
3029.971	91.45833
3032.028	91.79167
3034.083	99.45833
3036.137	93.45833
3038.19	83.125
3040.242	76.125
3042.292	79.125
3044.341	85.125
3046.388	97.125
3048.435	75.79167
3050.48	93.45833
3052.524	87.45833
3054.566	70.125
3056.607	87.125
3058.647	80.79167
3060.686	70.45833
3062.723	66.125
3064.759	68.45833
3066.794	1.45833
3068.828	-0.20833
3070.86	1.45833
