-0.839	143.29167
3.438	160.29167
7.711	65.95833
11.981	41.29167
16.247	30.29167
20.509	40.625
24.768	36.625
29.024	43.625
33.276	30.29167
37.524	40.625
41.769	28.95833
46.01	27.29167
50.247	44.625
54.481	45.625
58.712	52.29167
62.939	32.95833
67.162	50.95833
71.382	47.29167
75.599	37.625
79.812	45.29167
84.021	65.625
88.227	39.29167
92.429	50.625
96.628	37.29167
100.823	51.625
105.015	51.95833
109.204	45.625
113.388	52.95833
117.57	42.625
121.748	61.95833
125.922	52.95833
130.093	64.625
134.261	64.625
138.425	50.95833
142.585	85.29167
146.742	62.29167
150.896	76.95833
155.046	74.625
159.193	111.625
163.336	161.29167
167.476	279.95833
171.613	513.625
175.746	841.625
179.875	1191.95833
184.002	1540.625
188.124	1816.625
192.244	1887.95833
196.36	1905.625
200.472	1869.625
204.581	1851.95833
208.687	1798.29167
212.79	1784.625
216.889	1822.29167
220.984	1815.29167
225.077	1823.95833
229.165	1817.29167
233.251	1816.29167
237.333	1818.625
241.412	1778.625
245.487	1787.625
249.559	1752.95833
253.628	1760.625
257.694	1748.95833
261.756	1738.625
265.814	1719.29167
269.87	1652.95833
273.922	1624.625
277.97	1601.625
282.016	1600.95833
286.058	1574.29167
290.097	1612.95833
294.132	1638.95833
298.164	1611.29167
302.193	1574.95833
306.219	1501.625
310.241	1399.29167
314.26	1315.625
318.276	1252.95833
322.288	1218.95833
326.297	1181.625
330.303	1163.29167
334.305	1144.29167
338.305	1117.625
342.301	1122.95833
346.294	1119.625
350.283	1119.625
354.269	1110.29167
358.252	1088.29167
362.232	1102.95833
366.209	1102.29167
370.182	1088.29167
374.152	1087.625
378.119	1095.625
382.083	1080.95833
386.043	1095.95833
390	1079.95833
393.954	1085.95833
397.905	1093.29167
401.852	1114.95833
405.797	1088.95833
409.738	1076.625
413.676	1096.95833
417.61	1109.95833
421.542	1086.29167
425.47	1073.95833
429.396	1063.95833
433.318	1053.625
437.236	1062.625
441.152	1095.29167
445.065	1061.95833
448.974	1047.95833
452.88	1055.29167
456.783	1044.625
460.683	1041.29167
464.58	1049.95833
468.473	1045.625
472.364	1041.29167
476.251	1056.625
480.135	1051.95833
484.016	1061.29167
487.894	1065.95833
491.769	1069.29167
495.641	1068.625
499.509	1073.29167
503.375	1069.625
507.237	1075.29167
511.096	1079.625
514.952	1130.95833
518.805	1158.625
522.655	1184.29167
526.502	1118.625
530.346	1080.625
534.187	1073.29167
538.024	1056.29167
541.859	1060.29167
545.69	1079.625
549.519	1057.29167
553.344	1062.625
557.166	1020.625
560.985	1041.625
564.802	1044.29167
568.615	1020.29167
572.425	1001.625
576.232	999.29167
580.036	1006.95833
583.836	1020.95833
587.634	1022.95833
591.429	1011.29167
595.221	1039.625
599.01	1042.625
602.796	1032.29167
606.578	1037.95833
610.358	1038.29167
614.135	1043.29167
617.909	1042.625
621.679	1017.29167
625.447	1017.95833
629.212	1018.625
632.973	1018.625
636.732	1006.625
640.488	1019.29167
644.241	1005.625
647.991	1004.95833
651.737	1039.625
655.481	1002.29167
659.222	1004.95833
662.96	1003.29167
666.695	1013.29167
670.427	1005.95833
674.156	1024.95833
677.882	1022.95833
681.605	1008.29167
685.325	992.625
689.043	1016.29167
692.757	1005.95833
696.468	993.625
700.177	1005.29167
703.882	988.625
707.585	963.95833
711.284	981.29167
714.981	969.29167
718.675	970.29167
722.366	983.29167
726.054	973.29167
729.739	976.625
733.421	977.29167
737.1	975.95833
740.777	980.625
744.45	973.625
748.121	985.95833
751.789	1007.625
755.453	987.95833
759.115	995.625
762.774	997.95833
766.431	982.95833
770.084	1003.625
773.734	993.625
777.382	1019.29167
781.027	1017.625
784.669	1011.95833
788.308	1007.29167
791.944	1032.29167
795.577	1050.95833
799.208	1031.95833
802.835	1050.625
806.46	1037.625
810.082	1035.625
813.701	1039.625
817.317	1061.29167
820.931	1059.29167
824.542	1068.29167
828.149	1027.95833
831.754	1011.625
835.357	1012.95833
838.956	1034.625
842.553	1008.29167
846.146	1012.29167
849.737	981.625
853.326	993.625
856.911	984.95833
860.493	1002.95833
864.073	998.29167
867.65	1013.29167
871.225	1044.95833
874.796	1019.29167
878.365	1025.95833
881.931	1026.625
885.494	1046.29167
889.054	1012.625
892.612	1021.95833
896.166	1001.95833
899.719	988.29167
903.268	972.95833
906.814	987.95833
910.358	968.29167
913.899	975.95833
917.438	967.29167
920.973	959.29167
924.506	968.29167
928.036	997.29167
931.564	1007.625
935.088	1030.625
938.61	998.29167
942.129	995.625
945.646	1019.625
949.16	1033.625
952.671	1032.95833
956.179	1042.29167
959.685	1040.29167
963.188	1050.95833
966.688	1031.29167
970.185	1009.29167
973.68	981.95833
977.173	969.625
980.662	959.29167
984.149	971.625
987.633	944.95833
991.114	965.625
994.593	965.29167
998.069	983.625
1001.542	999.95833
1005.013	1003.625
1008.481	928.29167
1011.947	931.625
1015.409	926.625
1018.869	930.29167
1022.327	934.625
1025.782	920.625
1029.234	908.625
1032.683	900.29167
1036.13	894.625
1039.574	844.625
1043.016	840.29167
1046.455	839.625
1049.891	818.29167
1053.325	836.625
1056.756	822.625
1060.184	827.29167
1063.61	803.625
1067.033	827.625
1070.454	818.625
1073.872	842.625
1077.287	824.95833
1080.7	821.95833
1084.11	825.29167
1087.517	824.95833
1090.922	818.95833
1094.325	789.95833
1097.724	794.95833
1101.122	802.625
1104.516	782.95833
1107.908	781.625
1111.298	793.95833
1114.684	803.29167
1118.069	795.29167
1121.45	825.29167
1124.83	805.625
1128.206	812.95833
1131.58	819.29167
1134.951	842.95833
1138.32	864.95833
1141.687	883.625
1145.05	890.625
1148.412	890.95833
1151.77	895.95833
1155.126	886.29167
1158.48	873.625
1161.831	880.29167
1165.18	876.29167
1168.525	888.29167
1171.869	907.29167
1175.21	907.625
1178.548	919.95833
1181.884	915.29167
1185.217	920.95833
1188.548	952.625
1191.877	964.95833
1195.202	997.29167
1198.526	1019.95833
1201.846	1000.625
1205.165	998.625
1208.48	1032.95833
1211.794	1015.29167
1215.104	1015.29167
1218.413	1006.95833
1221.719	1001.95833
1225.022	982.625
1228.323	969.29167
1231.621	974.29167
1234.917	960.95833
1238.21	986.625
1241.501	962.625
1244.79	956.95833
1248.076	944.625
1251.359	964.29167
1254.64	1000.29167
1257.919	973.29167
1261.195	989.95833
1264.468	1010.95833
1267.74	1016.95833
1271.008	998.29167
1274.275	1010.95833
1277.538	1018.625
1280.8	995.29167
1284.059	989.95833
1287.315	1003.625
1290.569	1008.29167
1293.821	1021.625
1297.07	1018.29167
1300.317	1029.95833
1303.562	1028.625
1306.803	1025.625
1310.043	1032.95833
1313.28	1001.625
1316.515	999.625
1319.747	1016.95833
1322.977	1010.95833
1326.204	991.625
1329.429	982.95833
1332.652	980.95833
1335.872	976.95833
1339.09	969.95833
1342.306	978.625
1345.519	952.95833
1348.729	949.625
1351.938	954.625
1355.144	945.95833
1358.347	923.95833
1361.548	946.625
1364.747	937.29167
1367.944	906.29167
1371.138	908.29167
1374.329	909.625
1377.518	908.29167
1380.705	907.29167
1383.89	916.95833
1387.072	885.29167
1390.252	867.29167
1393.429	852.625
1396.605	817.95833
1399.777	805.29167
1402.948	789.29167
1406.116	783.95833
1409.282	775.625
1412.445	783.95833
1415.606	804.625
1418.765	789.625
1421.921	807.29167
1425.075	804.625
1428.227	833.29167
1431.376	859.29167
1434.524	905.29167
1437.668	908.625
1440.811	929.95833
1443.951	923.625
1447.089	926.625
1450.224	919.625
1453.357	921.29167
1456.488	922.29167
1459.617	909.29167
1462.743	907.625
1465.867	866.95833
1468.989	868.95833
1472.108	850.95833
1475.225	837.95833
1478.34	829.95833
1481.453	828.625
1484.563	828.95833
1487.671	835.29167
1490.776	836.95833
1493.88	853.95833
1496.981	856.29167
1500.08	873.29167
1503.176	849.95833
1506.271	863.625
1509.363	886.95833
1512.452	878.29167
1515.54	901.625
1518.625	915.95833
1521.708	932.625
1524.789	953.95833
1527.867	987.95833
1530.944	1001.95833
1534.018	1046.29167
1537.089	1091.29167
1540.159	1093.95833
1543.226	1115.95833
1546.291	1070.625
1549.354	1058.625
1552.415	1056.95833
1555.473	1017.95833
1558.529	1016.95833
1561.583	1004.29167
1564.634	977.29167
1567.684	983.29167
1570.731	989.29167
1573.776	1003.625
1576.819	995.625
1579.859	1001.625
1582.898	1027.625
1585.934	1045.95833
1588.968	1045.95833
1591.999	1024.95833
1595.029	1026.625
1598.056	1033.625
1601.081	1061.95833
1604.104	1042.95833
1607.125	1031.95833
1610.144	1016.625
1613.16	981.95833
1616.174	977.625
1619.186	970.95833
1622.196	945.625
1625.203	919.625
1628.209	923.625
1631.212	902.625
1634.213	921.29167
1637.212	935.95833
1640.209	925.625
1643.203	891.29167
1646.196	863.29167
1649.186	833.29167
1652.174	814.95833
1655.16	784.29167
1658.144	775.95833
1661.125	742.29167
1664.105	716.95833
1667.082	679.625
1670.057	644.95833
1673.03	611.95833
1676.001	588.95833
1678.97	555.29167
1681.937	539.95833
1684.901	503.95833
1687.863	511.29167
1690.824	470.625
1693.782	482.95833
1696.738	450.95833
1699.692	452.95833
1702.643	438.29167
1705.593	444.29167
1708.54	432.29167
1711.486	440.29167
1714.429	420.29167
1717.37	422.29167
1720.309	407.95833
1723.246	416.95833
1726.181	407.625
1729.113	412.29167
1732.044	411.95833
1734.972	393.29167
1737.899	422.625
1740.823	412.625
1743.745	426.29167
1746.665	392.625
1749.583	382.29167
1752.499	379.29167
1755.413	375.29167
1758.325	362.95833
1761.235	368.625
1764.142	357.95833
1767.048	366.95833
1769.951	363.625
1772.852	357.95833
1775.752	363.625
1778.649	365.29167
1781.544	374.95833
1784.437	345.29167
1787.328	362.625
1790.217	346.625
1793.104	336.95833
1795.989	335.625
1798.872	336.95833
1801.753	353.625
1804.631	340.29167
1807.508	339.29167
1810.383	337.625
1813.255	341.625
1816.126	335.29167
1818.994	333.625
1821.861	334.625
1824.725	344.29167
1827.587	339.95833
1830.448	325.29167
1833.306	323.95833
1836.162	340.625
1839.017	327.625
1841.869	329.95833
1844.719	324.95833
1847.567	305.29167
1850.414	309.95833
1853.258	313.95833
1856.1	319.29167
1858.94	332.29167
1861.778	317.625
1864.614	303.95833
1867.448	319.29167
1870.28	305.29167
1873.111	329.95833
1875.939	315.29167
1878.765	326.29167
1881.589	309.95833
1884.411	312.29167
1887.231	318.95833
1890.049	310.95833
1892.865	318.29167
1895.68	303.29167
1898.492	309.95833
1901.302	309.29167
1904.11	301.95833
1906.916	306.625
1909.721	301.95833
1912.523	300.625
1915.323	298.29167
1918.122	293.29167
1920.918	306.625
1923.712	288.95833
1926.505	301.625
1929.295	284.95833
1932.084	303.625
1934.87	298.29167
1937.655	287.29167
1940.438	287.95833
1943.218	288.625
1945.997	291.95833
1948.774	304.625
1951.549	299.29167
1954.322	293.29167
1957.093	287.625
1959.862	280.625
1962.629	284.29167
1965.394	282.29167
1968.157	272.625
1970.918	296.95833
1973.678	282.625
1976.435	287.29167
1979.19	274.95833
1981.944	269.625
1984.696	276.625
1987.445	270.625
1990.193	279.95833
1992.939	290.29167
1995.683	276.625
1998.425	256.625
2001.165	293.95833
2003.903	259.29167
2006.639	265.625
2009.374	278.95833
2012.106	273.95833
2014.837	248.95833
2017.566	276.625
2020.292	268.625
2023.017	260.95833
2025.74	259.29167
2028.461	257.95833
2031.18	263.95833
2033.898	255.625
2036.613	262.95833
2039.327	271.29167
2042.038	257.95833
2044.748	259.95833
2047.456	265.625
2050.162	250.625
2052.866	255.29167
2055.568	269.95833
2058.268	249.29167
2060.967	259.625
2063.663	238.625
2066.358	243.29167
2069.051	244.29167
2071.742	251.625
2074.431	261.29167
2077.118	254.625
2079.804	235.625
2082.487	245.29167
2085.169	263.29167
2087.849	272.95833
2090.527	242.625
2093.203	249.29167
2095.877	256.625
2098.55	256.29167
2101.22	264.95833
2103.889	259.95833
2106.556	252.625
2109.221	272.29167
2111.884	252.95833
2114.546	281.95833
2117.205	284.95833
2119.863	315.625
2122.519	309.625
2125.173	321.95833
2127.825	355.29167
2130.475	352.29167
2133.124	329.29167
2135.771	323.29167
2138.416	333.95833
2141.059	300.29167
2143.7	310.95833
2146.339	281.29167
2148.977	260.625
2151.613	265.29167
2154.247	260.29167
2156.879	253.29167
2159.51	248.625
2162.138	243.95833
2164.765	251.95833
2167.39	234.625
2170.013	260.29167
2172.634	250.29167
2175.254	242.625
2177.872	281.625
2180.488	230.95833
2183.102	238.625
2185.714	235.625
2188.325	224.625
2190.934	232.29167
2193.541	239.29167
2196.146	231.29167
2198.75	224.625
2201.351	220.625
2203.951	210.625
2206.549	233.625
2209.146	212.95833
2211.74	220.625
2214.333	232.29167
2216.924	208.625
2219.514	220.625
2222.101	217.29167
2224.687	223.29167
2227.271	206.29167
2229.853	204.95833
2232.433	197.29167
2235.012	224.29167
2237.589	219.95833
2240.164	225.95833
2242.738	210.29167
2245.309	206.95833
2247.879	222.95833
2250.448	217.29167
2253.014	206.29167
2255.579	193.29167
2258.142	201.95833
2260.703	205.29167
2263.262	195.625
2265.82	192.95833
2268.376	208.95833
2270.93	198.29167
2273.483	190.95833
2276.033	206.625
2278.583	197.95833
2281.13	193.29167
2283.675	191.95833
2286.219	196.29167
2288.761	198.29167
2291.302	206.95833
2293.841	208.625
2296.377	185.29167
2298.913	194.95833
2301.446	204.625
2303.978	194.29167
2306.508	199.95833
2309.037	194.29167
2311.563	191.625
2314.088	201.625
2316.612	179.625
2319.133	201.95833
2321.653	200.625
2324.171	188.625
2326.688	202.625
2329.202	190.95833
2331.715	197.29167
2334.227	188.29167
2336.736	194.625
2339.244	185.95833
2341.751	180.29167
2344.255	204.625
2346.758	191.625
2349.259	179.625
2351.759	195.625
2354.257	180.95833
2356.753	178.29167
2359.247	179.95833
2361.74	181.29167
2364.231	185.95833
2366.721	190.95833
2369.209	173.625
2371.695	184.95833
2374.179	183.29167
2376.662	170.95833
2379.143	197.29167
2381.622	177.625
2384.1	188.29167
2386.576	180.625
2389.051	195.625
2391.524	192.95833
2393.995	184.625
2396.464	175.29167
2398.932	183.29167
2401.398	177.95833
2403.863	177.625
2406.325	177.95833
2408.787	184.29167
2411.246	181.29167
2413.704	177.29167
2416.16	176.29167
2418.615	173.625
2421.068	185.625
2423.519	177.625
2425.969	169.95833
2428.417	191.625
2430.863	206.625
2433.308	184.29167
2435.751	186.95833
2438.193	179.95833
2440.633	183.29167
2443.071	189.95833
2445.508	174.625
2447.943	171.29167
2450.376	172.29167
2452.808	184.625
2455.238	165.95833
2457.667	198.29167
2460.093	175.29167
2462.519	163.95833
2464.942	173.29167
2467.365	181.29167
2469.785	177.95833
2472.204	169.29167
2474.621	170.95833
2477.037	183.95833
2479.451	159.29167
2481.863	168.29167
2484.274	164.95833
2486.683	173.95833
2489.091	181.625
2491.497	181.95833
2493.901	184.95833
2496.304	173.95833
2498.705	183.95833
2501.105	176.95833
2503.503	197.95833
2505.899	163.625
2508.294	191.625
2510.687	170.625
2513.079	172.95833
2515.469	168.29167
2517.858	170.29167
2520.245	182.95833
2522.63	170.625
2525.014	168.95833
2527.396	161.29167
2529.776	168.625
2532.156	172.95833
2534.533	164.29167
2536.909	170.95833
2539.283	152.29167
2541.656	168.95833
2544.027	184.29167
2546.397	176.29167
2548.765	169.29167
2551.131	170.95833
2553.496	179.95833
2555.86	179.95833
2558.221	178.29167
2560.582	163.95833
2562.94	160.625
2565.298	176.625
2567.653	183.29167
2570.007	163.29167
2572.36	178.625
2574.711	166.29167
2577.06	181.29167
2579.408	165.625
2581.754	169.29167
2584.099	175.625
2586.442	173.95833
2588.784	176.625
2591.124	167.625
2593.463	169.95833
2595.8	172.625
2598.135	157.29167
2600.469	158.95833
2602.802	176.95833
2605.133	181.625
2607.462	162.29167
2609.79	159.29167
2612.116	179.625
2614.441	166.29167
2616.764	179.95833
2619.086	168.95833
2621.406	166.625
2623.725	177.29167
2626.042	166.95833
2628.358	160.625
2630.672	166.625
2632.985	179.625
2635.296	176.625
2637.606	169.29167
2639.914	164.29167
2642.22	169.95833
2644.525	171.29167
2646.829	176.29167
2649.131	184.625
2651.432	185.29167
2653.731	166.95833
2656.028	184.95833
2658.324	174.625
2660.619	162.29167
2662.912	177.95833
2665.204	167.95833
2667.494	177.625
2669.782	167.625
2672.07	186.29167
2674.355	188.625
2676.639	177.95833
2678.922	170.95833
2681.203	178.625
2683.483	168.95833
2685.761	166.625
2688.038	177.95833
2690.313	192.625
2692.587	172.95833
2694.859	166.95833
2697.13	180.625
2699.399	186.29167
2701.667	187.625
2703.933	182.29167
2706.198	194.29167
2708.461	189.29167
2710.723	187.625
2712.984	176.95833
2715.243	189.29167
2717.5	182.95833
2719.757	194.95833
2722.011	188.625
2724.264	191.29167
2726.516	200.29167
2728.766	176.625
2731.015	184.29167
2733.262	186.95833
2735.508	189.625
2737.753	189.29167
2739.996	177.95833
2742.237	180.625
2744.477	193.29167
2746.716	195.29167
2748.953	193.625
2751.189	195.29167
2753.423	193.29167
2755.656	183.95833
2757.887	173.29167
2760.117	178.95833
2762.346	176.29167
2764.573	165.95833
2766.798	179.625
2769.022	177.625
2771.245	179.29167
2773.467	183.95833
2775.686	181.95833
2777.905	186.95833
2780.122	184.95833
2782.337	182.625
2784.552	183.29167
2786.764	181.625
2788.976	178.29167
2791.186	183.95833
2793.394	183.95833
2795.601	198.95833
2797.807	193.29167
2800.011	191.29167
2802.214	201.95833
2804.415	191.625
2806.615	193.625
2808.814	191.95833
2811.011	199.625
2813.206	198.29167
2815.401	209.625
2817.594	208.29167
2819.785	205.29167
2821.975	194.95833
2824.164	205.95833
2826.351	205.29167
2828.537	216.625
2830.722	215.95833
2832.905	209.29167
2835.086	219.625
2837.267	232.29167
2839.445	233.29167
2841.623	238.29167
2843.799	237.29167
2845.974	240.95833
2848.147	246.625
2850.319	259.95833
2852.489	257.95833
2854.659	269.625
2856.826	263.29167
2858.993	289.29167
2861.158	256.29167
2863.321	268.625
2865.483	292.95833
2867.644	281.95833
2869.804	276.29167
2871.962	271.95833
2874.118	278.625
2876.274	275.95833
2878.428	271.95833
2880.58	278.625
2882.731	262.625
2884.881	272.625
2887.03	285.29167
2889.177	278.95833
2891.322	282.625
2893.467	270.95833
2895.61	276.95833
2897.751	291.625
2899.892	279.625
2902.03	283.95833
2904.168	273.29167
2906.304	280.29167
2908.439	292.95833
2910.572	275.625
2912.704	284.95833
2914.835	289.625
2916.965	287.95833
2919.093	304.625
2921.219	274.95833
2923.345	312.29167
2925.469	291.625
2927.591	282.95833
2929.712	270.95833
2931.832	280.29167
2933.951	272.95833
2936.068	270.625
2938.184	272.625
2940.299	261.625
2942.412	254.625
2944.524	254.29167
2946.634	250.625
2948.744	235.29167
2950.851	272.625
2952.958	234.95833
2955.063	248.29167
2957.167	236.625
2959.269	219.625
2961.371	262.29167
2963.471	225.95833
2965.569	245.625
2967.666	216.95833
2969.762	217.625
2971.857	207.29167
2973.95	206.29167
2976.042	213.29167
2978.133	208.95833
2980.222	207.625
2982.31	199.29167
2984.396	181.625
2986.482	183.625
2988.566	194.625
2990.648	193.625
2992.73	195.29167
2994.81	176.29167
2996.889	200.625
2998.966	189.625
3001.042	204.29167
3003.117	188.95833
3005.191	196.29167
3007.263	199.95833
3009.334	186.625
3011.403	187.95833
3013.472	187.95833
3015.539	192.95833
3017.604	207.625
3019.669	169.29167
3021.732	180.625
3023.794	183.625
3025.854	173.95833
3027.914	171.29167
3029.971	177.625
3032.028	178.625
3034.083	179.95833
3036.137	181.95833
3038.19	163.29167
3040.242	156.95833
3042.292	158.625
3044.341	162.29167
3046.388	181.95833
3048.435	154.95833
3050.48	170.29167
3052.524	167.29167
3054.566	143.29167
3056.607	161.29167
3058.647	150.29167
3060.686	144.95833
3062.723	142.625
3064.759	138.95833
3066.794	-0.375
3068.828	-0.70833
3070.86	2.625
