-0.839	126.75
3.438	146.75
7.711	64.41667
11.981	44.08333
16.247	30.08333
20.509	37.08333
24.768	35.41667
29.024	47.08333
33.276	29.41667
37.524	40.41667
41.769	31.08333
46.01	26.08333
50.247	44.75
54.481	51.08333
58.712	50.41667
62.939	34.75
67.162	51.75
71.382	44.75
75.599	38.08333
79.812	41.75
84.021	63.08333
88.227	39.75
92.429	52.41667
96.628	37.08333
100.823	49.75
105.015	51.08333
109.204	46.08333
113.388	54.75
117.57	46.41667
121.748	62.75
125.922	50.41667
130.093	63.41667
134.261	65.75
138.425	53.41667
142.585	83.41667
146.742	63.75
150.896	79.08333
155.046	77.08333
159.193	108.75
163.336	163.75
167.476	273.41667
171.613	487.41667
175.746	793.08333
179.875	1160.75
184.002	1482.75
188.124	1768.08333
192.244	1843.75
196.36	1825.08333
200.472	1813.75
204.581	1785.41667
208.687	1734.75
212.79	1730.08333
216.889	1731.41667
220.984	1751.75
225.077	1766.08333
229.165	1770.08333
233.251	1775.41667
237.333	1746.41667
241.412	1751.41667
245.487	1755.75
249.559	1716.08333
253.628	1716.75
257.694	1710.08333
261.756	1703.75
265.814	1674.41667
269.87	1615.41667
273.922	1579.75
277.97	1571.08333
282.016	1551.41667
286.058	1529.08333
290.097	1558.41667
294.132	1602.41667
298.164	1572.75
302.193	1520.08333
306.219	1436.41667
310.241	1353.41667
314.26	1268.41667
318.276	1204.41667
322.288	1165.75
326.297	1117.41667
330.303	1100.41667
334.305	1078.08333
338.305	1067.75
342.301	1070.41667
346.294	1052.41667
350.283	1046.41667
354.269	1032.41667
358.252	1040.41667
362.232	1041.41667
366.209	1031.08333
370.182	1025.41667
374.152	1014.41667
378.119	1014.75
382.083	1015.75
386.043	1041.41667
390	1012.08333
393.954	1026.08333
397.905	1018.75
401.852	1050.08333
405.797	1031.41667
409.738	1013.75
413.676	1024.41667
417.61	1027.75
421.542	1025.41667
425.47	1008.41667
429.396	1009.41667
433.318	975.41667
437.236	999.75
441.152	1017.75
445.065	986.08333
448.974	997.08333
452.88	976.41667
456.783	976.75
460.683	960.41667
464.58	961.08333
468.473	988.08333
472.364	974.75
476.251	978.08333
480.135	984.08333
484.016	999.41667
487.894	1006.41667
491.769	1000.41667
495.641	998.41667
499.509	997.41667
503.375	1010.75
507.237	1006.75
511.096	997.08333
514.952	995.41667
518.805	1001.08333
522.655	997.08333
526.502	998.41667
530.346	987.75
534.187	999.08333
538.024	1001.41667
541.859	990.41667
545.69	1018.08333
549.519	999.41667
553.344	999.41667
557.166	971.75
560.985	986.41667
564.802	981.75
568.615	961.75
572.425	940.08333
576.232	938.75
580.036	941.41667
583.836	955.75
587.634	959.08333
591.429	957.75
595.221	981.08333
599.01	974.75
602.796	967.75
606.578	987.08333
610.358	976.08333
614.135	963.41667
617.909	970.41667
621.679	965.08333
625.447	954.75
629.212	965.41667
632.973	964.41667
636.732	961.75
640.488	960.75
644.241	939.41667
647.991	929.08333
651.737	970.08333
655.481	943.75
659.222	956.08333
662.96	942.08333
666.695	949.08333
670.427	954.08333
674.156	957.75
677.882	974.08333
681.605	964.08333
685.325	931.41667
689.043	962.08333
692.757	928.75
696.468	941.75
700.177	941.75
703.882	931.75
707.585	922.75
711.284	907.41667
714.981	916.08333
718.675	919.08333
722.366	919.41667
726.054	904.41667
729.739	906.75
733.421	918.41667
737.1	901.08333
740.777	930.08333
744.45	918.41667
748.121	930.08333
751.789	958.08333
755.453	935.75
759.115	950.41667
762.774	932.75
766.431	939.41667
770.084	943.75
773.734	942.75
777.382	974.41667
781.027	965.08333
784.669	966.41667
788.308	949.75
791.944	970.08333
795.577	983.41667
799.208	980.08333
802.835	980.75
806.46	980.41667
810.082	995.75
813.701	982.75
817.317	1003.41667
820.931	994.75
824.542	1003.41667
828.149	964.41667
831.754	971.41667
835.357	964.75
838.956	988.08333
842.553	964.75
846.146	952.41667
849.737	936.75
853.326	954.75
856.911	948.08333
860.493	956.75
864.073	954.08333
867.65	981.41667
871.225	990.41667
874.796	972.75
878.365	964.41667
881.931	973.41667
885.494	983.08333
889.054	974.08333
892.612	996.75
896.166	980.75
899.719	956.41667
903.268	937.75
906.814	940.41667
910.358	929.41667
913.899	920.75
917.438	932.75
920.973	903.08333
924.506	929.41667
928.036	935.08333
931.564	949.08333
935.088	967.41667
938.61	949.41667
942.129	957.41667
945.646	963.41667
949.16	979.08333
952.671	994.08333
956.179	1007.75
959.685	993.41667
963.188	997.08333
966.688	984.75
970.185	955.08333
973.68	942.08333
977.173	928.41667
980.662	920.75
984.149	928.75
987.633	900.75
991.114	923.75
994.593	930.41667
998.069	951.08333
1001.542	976.75
1005.013	965.75
1008.481	911.41667
1011.947	896.08333
1015.409	897.41667
1018.869	888.08333
1022.327	899.75
1025.782	886.08333
1029.234	865.41667
1032.683	871.41667
1036.13	850.75
1039.574	832.08333
1043.016	797.08333
1046.455	795.41667
1049.891	790.41667
1053.325	789.41667
1056.756	787.41667
1060.184	795.75
1063.61	775.08333
1067.033	797.75
1070.454	782.08333
1073.872	807.08333
1077.287	796.08333
1080.7	784.41667
1084.11	794.75
1087.517	792.41667
1090.922	776.75
1094.325	773.75
1097.724	762.41667
1101.122	766.41667
1104.516	769.75
1107.908	754.75
1111.298	756.08333
1114.684	777.75
1118.069	771.08333
1121.45	788.08333
1124.83	769.41667
1128.206	780.08333
1131.58	802.41667
1134.951	811.75
1138.32	819.41667
1141.687	859.75
1145.05	875.75
1148.412	861.08333
1151.77	867.41667
1155.126	852.75
1158.48	837.75
1161.831	842.75
1165.18	854.08333
1168.525	858.75
1171.869	868.75
1175.21	868.75
1178.548	893.08333
1181.884	889.41667
1185.217	903.75
1188.548	911.75
1191.877	938.08333
1195.202	978.08333
1198.526	1000.08333
1201.846	988.41667
1205.165	991.41667
1208.48	989.75
1211.794	981.75
1215.104	984.08333
1218.413	980.08333
1221.719	981.75
1225.022	957.75
1228.323	941.41667
1231.621	950.75
1234.917	946.41667
1238.21	953.75
1241.501	931.41667
1244.79	929.75
1248.076	912.75
1251.359	929.75
1254.64	964.75
1257.919	957.75
1261.195	960.75
1264.468	972.41667
1267.74	980.08333
1271.008	987.75
1274.275	1001.75
1277.538	970.08333
1280.8	984.41667
1284.059	982.41667
1287.315	994.41667
1290.569	978.41667
1293.821	1001.75
1297.07	996.41667
1300.317	1007.08333
1303.562	1012.75
1306.803	990.41667
1310.043	992.75
1313.28	987.41667
1316.515	971.08333
1319.747	970.08333
1322.977	968.41667
1326.204	967.75
1329.429	943.41667
1332.652	951.75
1335.872	955.08333
1339.09	927.75
1342.306	932.41667
1345.519	924.08333
1348.729	915.41667
1351.938	919.41667
1355.144	906.41667
1358.347	885.41667
1361.548	907.08333
1364.747	902.08333
1367.944	878.41667
1371.138	880.41667
1374.329	888.41667
1377.518	881.41667
1380.705	892.08333
1383.89	881.08333
1387.072	863.41667
1390.252	843.75
1393.429	822.41667
1396.605	801.08333
1399.777	771.41667
1402.948	772.41667
1406.116	757.08333
1409.282	759.08333
1412.445	758.75
1415.606	768.75
1418.765	775.08333
1421.921	786.41667
1425.075	781.75
1428.227	805.08333
1431.376	833.08333
1434.524	858.75
1437.668	885.75
1440.811	886.08333
1443.951	897.75
1447.089	907.08333
1450.224	898.08333
1453.357	889.08333
1456.488	889.08333
1459.617	886.08333
1462.743	873.08333
1465.867	840.75
1468.989	856.08333
1472.108	815.08333
1475.225	811.41667
1478.34	790.75
1481.453	793.41667
1484.563	792.75
1487.671	806.75
1490.776	815.75
1493.88	824.75
1496.981	836.41667
1500.08	825.08333
1503.176	849.08333
1506.271	846.41667
1509.363	865.41667
1512.452	876.08333
1515.54	864.75
1518.625	873.41667
1521.708	929.41667
1524.789	934.08333
1527.867	957.75
1530.944	990.75
1534.018	1024.41667
1537.089	1066.41667
1540.159	1083.08333
1543.226	1090.75
1546.291	1062.08333
1549.354	1051.75
1552.415	1033.08333
1555.473	1000.08333
1558.529	997.41667
1561.583	986.75
1564.634	952.75
1567.684	973.41667
1570.731	966.41667
1573.776	973.41667
1576.819	990.08333
1579.859	989.41667
1582.898	1001.75
1585.934	1016.08333
1588.968	1014.08333
1591.999	1003.75
1595.029	1010.08333
1598.056	1026.08333
1601.081	1025.75
1604.104	1035.75
1607.125	1010.08333
1610.144	996.08333
1613.16	956.75
1616.174	945.08333
1619.186	925.08333
1622.196	911.41667
1625.203	881.08333
1628.209	896.08333
1631.212	877.41667
1634.213	870.75
1637.212	881.41667
1640.209	872.08333
1643.203	844.41667
1646.196	820.08333
1649.186	788.41667
1652.174	785.08333
1655.16	753.75
1658.144	748.41667
1661.125	712.75
1664.105	695.41667
1667.082	661.41667
1670.057	630.75
1673.03	593.41667
1676.001	575.08333
1678.97	525.75
1681.937	517.08333
1684.901	483.75
1687.863	484.41667
1690.824	455.75
1693.782	467.75
1696.738	429.75
1699.692	427.08333
1702.643	417.41667
1705.593	416.41667
1708.54	417.08333
1711.486	424.41667
1714.429	397.08333
1717.37	412.41667
1720.309	387.41667
1723.246	404.08333
1726.181	385.75
1729.113	383.41667
1732.044	383.08333
1734.972	379.41667
1737.899	393.41667
1740.823	389.08333
1743.745	406.08333
1746.665	369.75
1749.583	365.75
1752.499	369.08333
1755.413	360.41667
1758.325	347.75
1761.235	365.41667
1764.142	343.41667
1767.048	342.08333
1769.951	344.41667
1772.852	341.08333
1775.752	354.75
1778.649	349.75
1781.544	352.75
1784.437	335.41667
1787.328	345.75
1790.217	341.75
1793.104	315.41667
1795.989	312.41667
1798.872	325.08333
1801.753	340.08333
1804.631	327.08333
1807.508	330.08333
1810.383	328.75
1813.255	322.41667
1816.126	325.41667
1818.994	322.75
1821.861	310.75
1824.725	330.75
1827.587	315.41667
1830.448	320.08333
1833.306	306.41667
1836.162	319.41667
1839.017	304.75
1841.869	315.75
1844.719	310.41667
1847.567	290.41667
1850.414	291.08333
1853.258	292.41667
1856.1	311.75
1858.94	314.08333
1861.778	300.41667
1864.614	299.41667
1867.448	301.41667
1870.28	286.08333
1873.111	303.41667
1875.939	297.75
1878.765	315.08333
1881.589	292.41667
1884.411	301.08333
1887.231	300.75
1890.049	290.75
1892.865	303.08333
1895.68	291.41667
1898.492	300.75
1901.302	287.41667
1904.11	290.41667
1906.916	287.41667
1909.721	283.41667
1912.523	293.41667
1915.323	276.08333
1918.122	278.75
1920.918	295.75
1923.712	277.08333
1926.505	289.75
1929.295	268.41667
1932.084	286.08333
1934.87	278.41667
1937.655	273.08333
1940.438	268.75
1943.218	277.75
1945.997	280.08333
1948.774	284.75
1951.549	284.08333
1954.322	275.75
1957.093	273.75
1959.862	266.41667
1962.629	269.41667
1965.394	268.08333
1968.157	256.75
1970.918	278.75
1973.678	261.08333
1976.435	279.08333
1979.19	259.41667
1981.944	252.75
1984.696	248.08333
1987.445	251.75
1990.193	259.08333
1992.939	271.75
1995.683	259.08333
1998.425	247.08333
2001.165	273.75
2003.903	243.75
2006.639	248.08333
2009.374	260.41667
2012.106	251.41667
2014.837	234.08333
2017.566	260.75
2020.292	251.75
2023.017	245.08333
2025.74	243.75
2028.461	239.08333
2031.18	249.41667
2033.898	236.08333
2036.613	245.75
2039.327	252.75
2042.038	240.08333
2044.748	241.41667
2047.456	248.41667
2050.162	232.41667
2052.866	242.08333
2055.568	253.08333
2058.268	239.08333
2060.967	249.41667
2063.663	225.41667
2066.358	228.41667
2069.051	227.41667
2071.742	233.41667
2074.431	245.08333
2077.118	233.41667
2079.804	220.41667
2082.487	238.08333
2085.169	241.41667
2087.849	256.41667
2090.527	230.75
2093.203	239.75
2095.877	233.41667
2098.55	235.08333
2101.22	240.75
2103.889	245.41667
2106.556	231.75
2109.221	249.41667
2111.884	244.41667
2114.546	262.75
2117.205	262.41667
2119.863	296.08333
2122.519	288.08333
2125.173	298.75
2127.825	334.41667
2130.475	330.75
2133.124	318.75
2135.771	301.08333
2138.416	321.41667
2141.059	280.41667
2143.7	288.75
2146.339	261.75
2148.977	236.41667
2151.613	249.75
2154.247	245.41667
2156.879	242.75
2159.51	226.75
2162.138	234.08333
2164.765	228.41667
2167.39	216.08333
2170.013	236.08333
2172.634	234.41667
2175.254	223.41667
2177.872	256.41667
2180.488	213.41667
2183.102	221.41667
2185.714	221.08333
2188.325	207.41667
2190.934	218.08333
2193.541	220.08333
2196.146	209.08333
2198.75	204.41667
2201.351	209.75
2203.951	194.41667
2206.549	214.75
2209.146	201.75
2211.74	195.41667
2214.333	205.41667
2216.924	187.75
2219.514	193.75
2222.101	197.08333
2224.687	203.08333
2227.271	192.75
2229.853	197.41667
2232.433	183.75
2235.012	197.75
2237.589	199.41667
2240.164	207.08333
2242.738	188.08333
2245.309	179.41667
2247.879	199.41667
2250.448	201.08333
2253.014	184.41667
2255.579	173.41667
2258.142	187.41667
2260.703	182.75
2263.262	179.75
2265.82	178.08333
2268.376	188.08333
2270.93	178.41667
2273.483	171.75
2276.033	185.75
2278.583	176.08333
2281.13	174.41667
2283.675	168.08333
2286.219	176.08333
2288.761	183.75
2291.302	179.75
2293.841	193.08333
2296.377	165.08333
2298.913	176.75
2301.446	187.41667
2303.978	174.75
2306.508	172.08333
2309.037	175.41667
2311.563	174.08333
2314.088	175.08333
2316.612	163.08333
2319.133	176.75
2321.653	175.41667
2324.171	166.75
2326.688	178.08333
2329.202	169.75
2331.715	166.08333
2334.227	168.08333
2336.736	167.41667
2339.244	161.08333
2341.751	155.08333
2344.255	169.41667
2346.758	167.08333
2349.259	158.75
2351.759	172.08333
2354.257	157.41667
2356.753	153.75
2359.247	158.08333
2361.74	162.41667
2364.231	159.41667
2366.721	172.08333
2369.209	157.41667
2371.695	162.75
2374.179	156.75
2376.662	147.75
2379.143	164.08333
2381.622	161.08333
2384.1	163.75
2386.576	157.08333
2389.051	167.08333
2391.524	168.41667
2393.995	166.41667
2396.464	155.41667
2398.932	148.41667
2401.398	154.41667
2403.863	152.41667
2406.325	148.41667
2408.787	154.41667
2411.246	158.41667
2413.704	155.41667
2416.16	148.75
2418.615	148.08333
2421.068	157.41667
2423.519	149.41667
2425.969	148.75
2428.417	162.41667
2430.863	177.41667
2433.308	161.08333
2435.751	153.75
2438.193	152.41667
2440.633	157.41667
2443.071	160.41667
2445.508	151.08333
2447.943	147.41667
2450.376	142.41667
2452.808	154.41667
2455.238	134.75
2457.667	172.08333
2460.093	145.41667
2462.519	139.41667
2464.942	134.08333
2467.365	147.41667
2469.785	151.08333
2472.204	143.75
2474.621	141.75
2477.037	163.41667
2479.451	139.75
2481.863	135.08333
2484.274	137.41667
2486.683	147.41667
2489.091	153.41667
2491.497	145.75
2493.901	143.41667
2496.304	137.41667
2498.705	149.08333
2501.105	148.75
2503.503	162.75
2505.899	133.41667
2508.294	154.75
2510.687	136.08333
2513.079	133.08333
2515.469	134.75
2517.858	134.08333
2520.245	152.41667
2522.63	139.41667
2525.014	136.08333
2527.396	126.75
2529.776	132.75
2532.156	142.08333
2534.533	131.08333
2536.909	126.41667
2539.283	119.41667
2541.656	131.41667
2544.027	149.08333
2546.397	143.08333
2548.765	137.08333
2551.131	141.75
2553.496	135.08333
2555.86	143.75
2558.221	140.75
2560.582	127.41667
2562.94	120.75
2565.298	131.08333
2567.653	148.41667
2570.007	126.75
2572.36	144.75
2574.711	120.41667
2577.06	146.75
2579.408	133.41667
2581.754	127.08333
2584.099	128.08333
2586.442	119.75
2588.784	136.41667
2591.124	131.75
2593.463	131.41667
2595.8	135.41667
2598.135	121.41667
2600.469	121.75
2602.802	140.41667
2605.133	143.08333
2607.462	124.41667
2609.79	122.08333
2612.116	140.08333
2614.441	124.75
2616.764	133.75
2619.086	129.41667
2621.406	121.41667
2623.725	141.41667
2626.042	129.41667
2628.358	120.41667
2630.672	132.08333
2632.985	140.08333
2635.296	128.08333
2637.606	126.41667
2639.914	126.75
2642.22	122.75
2644.525	133.08333
2646.829	130.08333
2649.131	147.41667
2651.432	135.41667
2653.731	125.41667
2656.028	135.75
2658.324	133.08333
2660.619	116.08333
2662.912	134.08333
2665.204	116.75
2667.494	136.41667
2669.782	122.75
2672.07	138.41667
2674.355	136.08333
2676.639	130.75
2678.922	123.41667
2681.203	132.08333
2683.483	122.41667
2685.761	110.75
2688.038	137.75
2690.313	140.08333
2692.587	127.08333
2694.859	128.41667
2697.13	128.08333
2699.399	130.75
2701.667	138.08333
2703.933	132.75
2706.198	138.08333
2708.461	142.08333
2710.723	135.75
2712.984	133.41667
2715.243	138.41667
2717.5	126.75
2719.757	145.08333
2722.011	130.41667
2724.264	140.75
2726.516	146.08333
2728.766	132.75
2731.015	135.41667
2733.262	135.08333
2735.508	136.08333
2737.753	142.41667
2739.996	122.41667
2742.237	125.75
2744.477	141.41667
2746.716	149.41667
2748.953	141.08333
2751.189	138.08333
2753.423	132.08333
2755.656	128.08333
2757.887	124.08333
2760.117	124.41667
2762.346	119.75
2764.573	110.75
2766.798	123.08333
2769.022	122.41667
2771.245	123.75
2773.467	126.08333
2775.686	120.75
2777.905	128.08333
2780.122	128.41667
2782.337	136.75
2784.552	122.41667
2786.764	124.75
2788.976	124.08333
2791.186	131.75
2793.394	124.08333
2795.601	135.41667
2797.807	139.41667
2800.011	125.08333
2802.214	143.08333
2804.415	131.75
2806.615	136.41667
2808.814	135.75
2811.011	139.08333
2813.206	140.41667
2815.401	146.08333
2817.594	149.08333
2819.785	149.75
2821.975	131.75
2824.164	141.75
2826.351	142.75
2828.537	157.75
2830.722	153.75
2832.905	147.75
2835.086	158.08333
2837.267	175.08333
2839.445	167.75
2841.623	168.08333
2843.799	170.08333
2845.974	182.08333
2848.147	185.08333
2850.319	200.08333
2852.489	202.75
2854.659	209.75
2856.826	201.75
2858.993	221.08333
2861.158	201.41667
2863.321	210.41667
2865.483	221.75
2867.644	217.75
2869.804	214.75
2871.962	204.08333
2874.118	214.08333
2876.274	216.41667
2878.428	217.41667
2880.58	216.08333
2882.731	203.75
2884.881	211.08333
2887.03	221.75
2889.177	215.75
2891.322	220.08333
2893.467	213.08333
2895.61	208.08333
2897.751	221.41667
2899.892	207.75
2902.03	225.41667
2904.168	215.75
2906.304	220.08333
2908.439	228.08333
2910.572	215.75
2912.704	223.75
2914.835	230.08333
2916.965	222.08333
2919.093	239.41667
2921.219	212.08333
2923.345	238.41667
2925.469	223.41667
2927.591	216.75
2929.712	206.75
2931.832	218.41667
2933.951	214.75
2936.068	202.08333
2938.184	200.41667
2940.299	191.75
2942.412	192.75
2944.524	174.75
2946.634	183.75
2948.744	160.41667
2950.851	194.75
2952.958	158.41667
2955.063	176.08333
2957.167	169.75
2959.269	154.41667
2961.371	183.41667
2963.471	149.08333
2965.569	167.08333
2967.666	145.41667
2969.762	148.41667
2971.857	139.75
2973.95	132.75
2976.042	146.08333
2978.133	140.41667
2980.222	135.08333
2982.31	125.75
2984.396	110.08333
2986.482	115.41667
2988.566	125.08333
2990.648	122.08333
2992.73	119.41667
2994.81	105.41667
2996.889	121.75
2998.966	118.41667
3001.042	126.08333
3003.117	115.75
3005.191	120.75
3007.263	119.75
3009.334	113.08333
3011.403	115.75
3013.472	113.08333
3015.539	125.08333
3017.604	134.41667
3019.669	99.41667
3021.732	106.08333
3023.794	108.75
3025.854	99.75
3027.914	102.41667
3029.971	99.75
3032.028	105.75
3034.083	116.75
3036.137	107.08333
3038.19	100.08333
3040.242	90.41667
3042.292	94.08333
3044.341	95.08333
3046.388	112.08333
3048.435	90.41667
3050.48	109.41667
3052.524	97.75
3054.566	82.41667
3056.607	95.08333
3058.647	89.41667
3060.686	81.75
3062.723	75.08333
3064.759	80.75
3066.794	-0.25
3068.828	-0.25
3070.86	3.75
