-0.839	129.91667
3.438	145.91667
7.711	62.58333
11.981	40.25
16.247	25.91667
20.509	37.58333
24.768	35.25
29.024	46.25
33.276	30.91667
37.524	41.58333
41.769	30.91667
46.01	25.91667
50.247	41.25
54.481	52.58333
58.712	50.25
62.939	32.58333
67.162	49.25
71.382	43.91667
75.599	35.58333
79.812	42.25
84.021	57.58333
88.227	39.25
92.429	48.91667
96.628	38.25
100.823	50.91667
105.015	49.58333
109.204	45.58333
113.388	56.91667
117.57	43.91667
121.748	59.58333
125.922	46.25
130.093	63.58333
134.261	63.58333
138.425	50.58333
142.585	82.25
146.742	67.91667
150.896	75.58333
155.046	73.58333
159.193	109.91667
163.336	154.58333
167.476	273.91667
171.613	485.25
175.746	780.58333
179.875	1152.58333
184.002	1466.91667
188.124	1711.58333
192.244	1791.91667
196.36	1792.58333
200.472	1778.58333
204.581	1763.91667
208.687	1690.91667
212.79	1690.25
216.889	1721.25
220.984	1733.25
225.077	1716.58333
229.165	1738.58333
233.251	1723.58333
237.333	1740.91667
241.412	1705.91667
245.487	1712.25
249.559	1669.25
253.628	1673.25
257.694	1655.91667
261.756	1664.91667
265.814	1628.58333
269.87	1597.91667
273.922	1554.58333
277.97	1524.58333
282.016	1523.58333
286.058	1489.58333
290.097	1520.58333
294.132	1562.91667
298.164	1535.58333
302.193	1494.91667
306.219	1400.91667
310.241	1305.58333
314.26	1219.91667
318.276	1161.91667
322.288	1136.91667
326.297	1089.58333
330.303	1048.25
334.305	1037.91667
338.305	1031.58333
342.301	1008.91667
346.294	1017.25
350.283	1008.91667
354.269	986.58333
358.252	998.25
362.232	1007.58333
366.209	988.91667
370.182	972.25
374.152	979.91667
378.119	983.58333
382.083	973.25
386.043	988.91667
390	973.91667
393.954	992.91667
397.905	986.91667
401.852	994.91667
405.797	974.58333
409.738	979.25
413.676	991.58333
417.61	1001.25
421.542	980.91667
425.47	962.25
429.396	950.91667
433.318	940.91667
437.236	952.25
441.152	980.25
445.065	937.25
448.974	946.91667
452.88	938.91667
456.783	930.25
460.683	936.25
464.58	945.58333
468.473	948.25
472.364	947.58333
476.251	927.25
480.135	944.25
484.016	964.91667
487.894	961.58333
491.769	960.25
495.641	956.58333
499.509	953.25
503.375	959.25
507.237	950.25
511.096	962.91667
514.952	961.58333
518.805	967.25
522.655	957.91667
526.502	962.25
530.346	963.58333
534.187	963.25
538.024	954.91667
541.859	948.58333
545.69	963.91667
549.519	956.91667
553.344	950.91667
557.166	942.25
560.985	937.58333
564.802	926.91667
568.615	915.58333
572.425	902.91667
576.232	907.25
580.036	908.25
583.836	917.25
587.634	929.25
591.429	919.58333
595.221	934.25
599.01	941.91667
602.796	932.25
606.578	934.58333
610.358	929.91667
614.135	928.25
617.909	939.58333
621.679	923.91667
625.447	910.91667
629.212	926.25
632.973	925.91667
636.732	902.91667
640.488	925.91667
644.241	904.91667
647.991	887.58333
651.737	930.91667
655.481	899.58333
659.222	897.25
662.96	893.25
666.695	899.58333
670.427	912.58333
674.156	922.91667
677.882	925.25
681.605	910.91667
685.325	898.58333
689.043	932.25
692.757	901.25
696.468	899.25
700.177	889.58333
703.882	884.58333
707.585	890.91667
711.284	881.91667
714.981	884.25
718.675	877.25
722.366	902.91667
726.054	868.91667
729.739	884.91667
733.421	889.58333
737.1	869.25
740.777	892.25
744.45	880.25
748.121	886.91667
751.789	908.91667
755.453	899.25
759.115	904.58333
762.774	910.58333
766.431	905.25
770.084	912.58333
773.734	894.58333
777.382	927.91667
781.027	923.58333
784.669	919.91667
788.308	932.91667
791.944	945.58333
795.577	945.91667
799.208	948.58333
802.835	947.91667
806.46	951.58333
810.082	951.25
813.701	945.25
817.317	967.58333
820.931	965.58333
824.542	965.58333
828.149	946.25
831.754	940.25
835.357	926.58333
838.956	938.58333
842.553	940.25
846.146	926.58333
849.737	914.25
853.326	917.58333
856.911	907.58333
860.493	925.91667
864.073	928.58333
867.65	945.25
871.225	963.58333
874.796	935.58333
878.365	934.58333
881.931	950.91667
885.494	967.25
889.054	943.25
892.612	952.25
896.166	924.58333
899.719	914.58333
903.268	913.58333
906.814	900.91667
910.358	912.25
913.899	901.58333
917.438	898.58333
920.973	876.58333
924.506	894.58333
928.036	912.25
931.564	916.25
935.088	935.25
938.61	929.58333
942.129	927.91667
945.646	940.25
949.16	951.25
952.671	966.25
956.179	972.91667
959.685	955.91667
963.188	967.25
966.688	958.25
970.185	917.91667
973.68	902.58333
977.173	898.58333
980.662	881.91667
984.149	902.91667
987.633	869.91667
991.114	891.91667
994.593	904.91667
998.069	907.91667
1001.542	953.91667
1005.013	935.58333
1008.481	876.58333
1011.947	867.58333
1015.409	857.91667
1018.869	872.91667
1022.327	884.91667
1025.782	861.25
1029.234	853.25
1032.683	833.58333
1036.13	821.91667
1039.574	788.25
1043.016	777.58333
1046.455	764.58333
1049.891	756.25
1053.325	770.91667
1056.756	760.91667
1060.184	765.91667
1063.61	755.91667
1067.033	766.25
1070.454	777.91667
1073.872	787.91667
1077.287	755.58333
1080.7	768.25
1084.11	765.25
1087.517	756.91667
1090.922	752.58333
1094.325	748.91667
1097.724	738.58333
1101.122	739.91667
1104.516	738.91667
1107.908	726.58333
1111.298	747.91667
1114.684	749.58333
1118.069	738.25
1121.45	758.25
1124.83	749.25
1128.206	756.58333
1131.58	763.58333
1134.951	794.91667
1138.32	800.58333
1141.687	827.25
1145.05	835.58333
1148.412	838.91667
1151.77	835.91667
1155.126	827.25
1158.48	812.58333
1161.831	827.25
1165.18	828.58333
1168.525	842.25
1171.869	855.91667
1175.21	846.91667
1178.548	863.91667
1181.884	862.58333
1185.217	861.58333
1188.548	891.91667
1191.877	906.91667
1195.202	952.91667
1198.526	960.25
1201.846	963.91667
1205.165	976.25
1208.48	976.25
1211.794	953.91667
1215.104	961.91667
1218.413	947.58333
1221.719	953.91667
1225.022	933.91667
1228.323	922.58333
1231.621	932.25
1234.917	913.58333
1238.21	941.91667
1241.501	910.25
1244.79	902.58333
1248.076	893.25
1251.359	925.91667
1254.64	955.58333
1257.919	937.58333
1261.195	935.58333
1264.468	953.91667
1267.74	969.91667
1271.008	960.25
1274.275	959.58333
1277.538	956.58333
1280.8	961.25
1284.059	945.58333
1287.315	968.25
1290.569	961.91667
1293.821	972.58333
1297.07	977.91667
1300.317	966.25
1303.562	979.25
1306.803	971.58333
1310.043	970.91667
1313.28	963.25
1316.515	941.91667
1319.747	957.58333
1322.977	951.91667
1326.204	937.25
1329.429	920.25
1332.652	930.58333
1335.872	929.58333
1339.09	912.91667
1342.306	911.25
1345.519	899.25
1348.729	893.58333
1351.938	892.58333
1355.144	872.25
1358.347	882.25
1361.548	881.58333
1364.747	883.91667
1367.944	856.58333
1371.138	870.91667
1374.329	860.58333
1377.518	871.25
1380.705	867.91667
1383.89	870.58333
1387.072	842.91667
1390.252	818.58333
1393.429	798.25
1396.605	768.91667
1399.777	759.25
1402.948	753.58333
1406.116	738.91667
1409.282	746.58333
1412.445	740.58333
1415.606	757.91667
1418.765	746.91667
1421.921	762.91667
1425.075	758.91667
1428.227	789.58333
1431.376	825.91667
1434.524	850.58333
1437.668	870.58333
1440.811	868.25
1443.951	881.58333
1447.089	882.58333
1450.224	884.91667
1453.357	866.25
1456.488	860.25
1459.617	863.58333
1462.743	848.91667
1465.867	821.58333
1468.989	823.91667
1472.108	804.58333
1475.225	790.58333
1478.34	782.25
1481.453	784.25
1484.563	764.91667
1487.671	778.25
1490.776	787.91667
1493.88	795.58333
1496.981	808.91667
1500.08	813.25
1503.176	819.58333
1506.271	825.58333
1509.363	850.91667
1512.452	851.25
1515.54	846.91667
1518.625	855.25
1521.708	888.58333
1524.789	918.25
1527.867	947.25
1530.944	983.25
1534.018	1009.25
1537.089	1071.58333
1540.159	1065.25
1543.226	1075.58333
1546.291	1034.25
1549.354	1030.25
1552.415	1015.91667
1555.473	985.58333
1558.529	975.58333
1561.583	967.91667
1564.634	952.58333
1567.684	942.91667
1570.731	948.25
1573.776	964.91667
1576.819	976.91667
1579.859	972.58333
1582.898	965.25
1585.934	996.91667
1588.968	1007.91667
1591.999	989.58333
1595.029	987.25
1598.056	1002.25
1601.081	1033.91667
1604.104	1020.91667
1607.125	1003.58333
1610.144	986.91667
1613.16	939.25
1616.174	929.91667
1619.186	911.58333
1622.196	899.91667
1625.203	862.58333
1628.209	878.58333
1631.212	860.91667
1634.213	856.25
1637.212	863.91667
1640.209	851.25
1643.203	828.25
1646.196	807.58333
1649.186	772.91667
1652.174	760.58333
1655.16	737.91667
1658.144	726.91667
1661.125	686.58333
1664.105	675.91667
1667.082	645.25
1670.057	608.91667
1673.03	584.25
1676.001	551.91667
1678.97	514.58333
1681.937	504.58333
1684.901	468.25
1687.863	474.58333
1690.824	441.58333
1693.782	446.58333
1696.738	421.25
1699.692	421.58333
1702.643	396.58333
1705.593	401.91667
1708.54	411.25
1711.486	409.25
1714.429	390.91667
1717.37	398.91667
1720.309	393.25
1723.246	389.91667
1726.181	379.58333
1729.113	371.58333
1732.044	380.91667
1734.972	372.91667
1737.899	392.91667
1740.823	374.58333
1743.745	399.91667
1746.665	354.58333
1749.583	354.91667
1752.499	351.25
1755.413	352.58333
1758.325	344.58333
1761.235	347.25
1764.142	330.25
1767.048	333.91667
1769.951	329.25
1772.852	333.25
1775.752	341.58333
1778.649	336.58333
1781.544	347.91667
1784.437	322.25
1787.328	332.25
1790.217	327.25
1793.104	302.58333
1795.989	309.25
1798.872	308.58333
1801.753	326.91667
1804.631	312.25
1807.508	319.91667
1810.383	312.58333
1813.255	312.25
1816.126	305.91667
1818.994	309.58333
1821.861	298.25
1824.725	308.58333
1827.587	310.25
1830.448	307.25
1833.306	297.58333
1836.162	314.58333
1839.017	302.25
1841.869	300.25
1844.719	306.91667
1847.567	286.91667
1850.414	279.91667
1853.258	275.58333
1856.1	298.25
1858.94	307.91667
1861.778	291.58333
1864.614	281.25
1867.448	286.91667
1870.28	279.25
1873.111	300.25
1875.939	290.25
1878.765	303.25
1881.589	285.25
1884.411	284.58333
1887.231	295.58333
1890.049	286.91667
1892.865	299.58333
1895.68	274.25
1898.492	281.91667
1901.302	283.25
1904.11	279.25
1906.916	277.25
1909.721	275.25
1912.523	284.25
1915.323	265.91667
1918.122	266.58333
1920.918	279.25
1923.712	266.58333
1926.505	278.91667
1929.295	256.91667
1932.084	270.58333
1934.87	274.58333
1937.655	265.91667
1940.438	252.25
1943.218	264.91667
1945.997	270.58333
1948.774	273.58333
1951.549	269.25
1954.322	259.58333
1957.093	268.58333
1959.862	265.25
1962.629	265.58333
1965.394	261.91667
1968.157	249.58333
1970.918	272.91667
1973.678	248.91667
1976.435	266.58333
1979.19	256.91667
1981.944	249.25
1984.696	251.58333
1987.445	240.25
1990.193	260.58333
1992.939	260.91667
1995.683	259.25
1998.425	236.91667
2001.165	264.58333
2003.903	232.25
2006.639	238.58333
2009.374	254.25
2012.106	256.25
2014.837	224.58333
2017.566	253.58333
2020.292	246.91667
2023.017	242.58333
2025.74	235.58333
2028.461	231.25
2031.18	245.25
2033.898	228.25
2036.613	235.58333
2039.327	242.91667
2042.038	229.91667
2044.748	238.91667
2047.456	239.58333
2050.162	226.58333
2052.866	226.25
2055.568	244.91667
2058.268	229.25
2060.967	233.58333
2063.663	217.25
2066.358	230.58333
2069.051	221.58333
2071.742	222.58333
2074.431	236.58333
2077.118	224.91667
2079.804	212.91667
2082.487	231.58333
2085.169	238.25
2087.849	249.91667
2090.527	224.25
2093.203	226.91667
2095.877	227.58333
2098.55	225.25
2101.22	237.25
2103.889	236.91667
2106.556	232.58333
2109.221	245.25
2111.884	230.25
2114.546	260.58333
2117.205	261.58333
2119.863	282.58333
2122.519	274.58333
2125.173	296.58333
2127.825	327.58333
2130.475	321.25
2133.124	310.25
2135.771	295.91667
2138.416	314.25
2141.059	280.58333
2143.7	276.91667
2146.339	258.58333
2148.977	224.91667
2151.613	253.25
2154.247	242.91667
2156.879	232.58333
2159.51	216.58333
2162.138	227.91667
2164.765	220.25
2167.39	209.58333
2170.013	232.91667
2172.634	225.25
2175.254	216.25
2177.872	251.91667
2180.488	211.91667
2183.102	217.25
2185.714	207.58333
2188.325	195.91667
2190.934	207.25
2193.541	218.91667
2196.146	208.25
2198.75	196.91667
2201.351	198.91667
2203.951	182.91667
2206.549	207.58333
2209.146	196.25
2211.74	186.91667
2214.333	197.25
2216.924	183.91667
2219.514	189.91667
2222.101	192.25
2224.687	202.91667
2227.271	176.25
2229.853	187.91667
2232.433	167.91667
2235.012	198.25
2237.589	191.58333
2240.164	197.58333
2242.738	183.91667
2245.309	179.91667
2247.879	199.91667
2250.448	191.58333
2253.014	176.91667
2255.579	167.58333
2258.142	185.91667
2260.703	179.25
2263.262	174.25
2265.82	167.25
2268.376	183.25
2270.93	178.58333
2273.483	168.91667
2276.033	183.25
2278.583	168.58333
2281.13	165.58333
2283.675	161.91667
2286.219	171.91667
2288.761	177.25
2291.302	174.58333
2293.841	189.58333
2296.377	159.91667
2298.913	169.58333
2301.446	188.25
2303.978	172.91667
2306.508	167.58333
2309.037	175.91667
2311.563	169.91667
2314.088	169.58333
2316.612	150.25
2319.133	170.25
2321.653	168.91667
2324.171	159.91667
2326.688	176.25
2329.202	167.25
2331.715	175.25
2334.227	167.58333
2336.736	162.25
2339.244	155.25
2341.751	149.91667
2344.255	168.58333
2346.758	161.91667
2349.259	147.25
2351.759	164.58333
2354.257	151.58333
2356.753	154.25
2359.247	150.58333
2361.74	158.91667
2364.231	157.58333
2366.721	165.25
2369.209	154.58333
2371.695	154.58333
2374.179	149.25
2376.662	143.91667
2379.143	160.58333
2381.622	150.91667
2384.1	161.58333
2386.576	147.25
2389.051	160.58333
2391.524	175.25
2393.995	159.25
2396.464	151.25
2398.932	149.91667
2401.398	157.58333
2403.863	146.91667
2406.325	150.25
2408.787	154.25
2411.246	149.58333
2413.704	153.91667
2416.16	146.58333
2418.615	146.58333
2421.068	147.25
2423.519	146.91667
2425.969	138.25
2428.417	160.91667
2430.863	167.91667
2433.308	152.91667
2435.751	149.91667
2438.193	151.91667
2440.633	151.25
2443.071	154.91667
2445.508	141.25
2447.943	145.58333
2450.376	139.58333
2452.808	148.25
2455.238	143.58333
2457.667	165.91667
2460.093	132.58333
2462.519	135.25
2464.942	134.58333
2467.365	143.91667
2469.785	147.58333
2472.204	139.25
2474.621	140.58333
2477.037	162.25
2479.451	133.91667
2481.863	129.91667
2484.274	132.25
2486.683	139.25
2489.091	148.58333
2491.497	140.58333
2493.901	141.91667
2496.304	138.58333
2498.705	149.91667
2501.105	142.25
2503.503	153.91667
2505.899	129.25
2508.294	151.25
2510.687	135.91667
2513.079	137.25
2515.469	127.58333
2517.858	132.91667
2520.245	151.25
2522.63	135.25
2525.014	131.58333
2527.396	125.91667
2529.776	130.25
2532.156	139.58333
2534.533	122.91667
2536.909	125.25
2539.283	114.91667
2541.656	123.25
2544.027	142.25
2546.397	139.58333
2548.765	128.91667
2551.131	135.25
2553.496	137.91667
2555.86	137.58333
2558.221	140.91667
2560.582	124.25
2562.94	114.25
2565.298	131.91667
2567.653	145.25
2570.007	121.91667
2572.36	136.91667
2574.711	127.58333
2577.06	139.58333
2579.408	130.58333
2581.754	125.25
2584.099	124.25
2586.442	126.91667
2588.784	136.91667
2591.124	125.25
2593.463	119.91667
2595.8	128.58333
2598.135	113.25
2600.469	115.58333
2602.802	132.58333
2605.133	139.58333
2607.462	123.58333
2609.79	111.91667
2612.116	134.58333
2614.441	126.91667
2616.764	132.91667
2619.086	122.58333
2621.406	123.25
2623.725	129.25
2626.042	124.91667
2628.358	114.58333
2630.672	126.58333
2632.985	129.91667
2635.296	125.25
2637.606	124.91667
2639.914	120.25
2642.22	124.25
2644.525	120.25
2646.829	121.91667
2649.131	136.58333
2651.432	132.91667
2653.731	117.58333
2656.028	137.25
2658.324	119.91667
2660.619	113.91667
2662.912	130.58333
2665.204	115.58333
2667.494	126.25
2669.782	117.58333
2672.07	133.25
2674.355	133.25
2676.639	131.25
2678.922	120.91667
2681.203	130.25
2683.483	123.58333
2685.761	118.91667
2688.038	137.58333
2690.313	140.58333
2692.587	122.58333
2694.859	121.58333
2697.13	124.58333
2699.399	130.58333
2701.667	136.91667
2703.933	123.25
2706.198	139.58333
2708.461	132.91667
2710.723	134.58333
2712.984	131.91667
2715.243	135.25
2717.5	129.25
2719.757	137.25
2722.011	131.25
2724.264	133.25
2726.516	145.58333
2728.766	125.91667
2731.015	131.58333
2733.262	137.25
2735.508	128.91667
2737.753	132.91667
2739.996	117.58333
2742.237	124.91667
2744.477	134.91667
2746.716	144.58333
2748.953	139.25
2751.189	136.58333
2753.423	136.91667
2755.656	123.91667
2757.887	118.58333
2760.117	123.25
2762.346	115.91667
2764.573	113.91667
2766.798	120.91667
2769.022	121.58333
2771.245	115.58333
2773.467	123.91667
2775.686	125.25
2777.905	127.58333
2780.122	124.25
2782.337	128.25
2784.552	117.25
2786.764	128.91667
2788.976	117.91667
2791.186	124.58333
2793.394	124.58333
2795.601	132.91667
2797.807	139.58333
2800.011	134.91667
2802.214	139.25
2804.415	130.25
2806.615	133.58333
2808.814	131.25
2811.011	138.91667
2813.206	138.25
2815.401	141.91667
2817.594	145.25
2819.785	152.91667
2821.975	132.25
2824.164	143.91667
2826.351	139.58333
2828.537	156.91667
2830.722	153.58333
2832.905	149.91667
2835.086	157.58333
2837.267	169.58333
2839.445	169.58333
2841.623	168.58333
2843.799	174.91667
2845.974	178.91667
2848.147	185.58333
2850.319	191.58333
2852.489	199.25
2854.659	201.91667
2856.826	205.58333
2858.993	215.25
2861.158	193.91667
2863.321	205.91667
2865.483	225.25
2867.644	214.58333
2869.804	211.58333
2871.962	208.25
2874.118	206.25
2876.274	214.91667
2878.428	214.91667
2880.58	217.58333
2882.731	199.58333
2884.881	213.25
2887.03	217.58333
2889.177	211.25
2891.322	220.58333
2893.467	210.25
2895.61	208.58333
2897.751	219.91667
2899.892	211.25
2902.03	216.58333
2904.168	209.58333
2906.304	213.58333
2908.439	239.58333
2910.572	209.25
2912.704	221.91667
2914.835	223.91667
2916.965	224.58333
2919.093	236.91667
2921.219	206.91667
2923.345	238.25
2925.469	218.25
2927.591	215.58333
2929.712	201.91667
2931.832	214.25
2933.951	210.58333
2936.068	196.25
2938.184	199.58333
2940.299	186.58333
2942.412	187.58333
2944.524	176.25
2946.634	182.58333
2948.744	161.91667
2950.851	190.58333
2952.958	163.91667
2955.063	169.91667
2957.167	162.91667
2959.269	151.91667
2961.371	178.91667
2963.471	152.58333
2965.569	164.25
2967.666	140.25
2969.762	141.58333
2971.857	135.58333
2973.95	132.91667
2976.042	141.25
2978.133	130.91667
2980.222	131.91667
2982.31	120.58333
2984.396	109.91667
2986.482	113.58333
2988.566	123.25
2990.648	119.91667
2992.73	119.58333
2994.81	106.58333
2996.889	119.58333
2998.966	112.91667
3001.042	126.91667
3003.117	112.25
3005.191	114.58333
3007.263	125.25
3009.334	116.91667
3011.403	117.25
3013.472	108.58333
3015.539	122.25
3017.604	137.25
3019.669	106.25
3021.732	104.25
3023.794	109.25
3025.854	100.91667
3027.914	96.25
3029.971	94.58333
3032.028	104.25
3034.083	104.58333
3036.137	108.25
3038.19	88.58333
3040.242	90.91667
3042.292	86.25
3044.341	97.58333
3046.388	112.25
3048.435	86.58333
3050.48	104.91667
3052.524	93.91667
3054.566	76.91667
3056.607	90.58333
3058.647	94.25
3060.686	80.91667
3062.723	76.58333
3064.759	73.91667
3066.794	0.25
3068.828	1.91667
3070.86	4.25
