-0.839	141.29167
3.438	160.625
7.711	65.29167
11.981	47.29167
16.247	32.625
20.509	39.95833
24.768	34.625
29.024	38.625
33.276	33.29167
37.524	41.95833
41.769	30.29167
46.01	25.95833
50.247	44.625
54.481	50.29167
58.712	52.95833
62.939	35.625
67.162	51.625
71.382	45.95833
75.599	37.29167
79.812	40.95833
84.021	61.29167
88.227	40.95833
92.429	52.95833
96.628	37.625
100.823	52.95833
105.015	50.95833
109.204	43.95833
113.388	55.625
117.57	38.625
121.748	61.95833
125.922	48.29167
130.093	64.29167
134.261	64.29167
138.425	53.625
142.585	82.625
146.742	60.625
150.896	73.625
155.046	68.625
159.193	107.625
163.336	146.625
167.476	255.625
171.613	454.625
175.746	740.625
179.875	1057.29167
184.002	1373.29167
188.124	1639.95833
192.244	1690.29167
196.36	1690.95833
200.472	1684.29167
204.581	1642.625
208.687	1573.95833
212.79	1587.95833
216.889	1593.95833
220.984	1604.625
225.077	1609.29167
229.165	1611.95833
233.251	1613.29167
237.333	1597.95833
241.412	1585.625
245.487	1590.625
249.559	1541.29167
253.628	1556.29167
257.694	1534.625
261.756	1535.29167
265.814	1513.29167
269.87	1459.95833
273.922	1411.29167
277.97	1408.95833
282.016	1396.95833
286.058	1381.95833
290.097	1404.625
294.132	1438.95833
298.164	1419.95833
302.193	1359.625
306.219	1290.29167
310.241	1211.625
314.26	1125.625
318.276	1062.95833
322.288	1035.625
326.297	1012.29167
330.303	976.29167
334.305	959.29167
338.305	940.625
342.301	935.625
346.294	939.29167
350.283	929.29167
354.269	929.625
358.252	910.29167
362.232	922.625
366.209	912.95833
370.182	909.625
374.152	908.95833
378.119	908.29167
382.083	893.95833
386.043	919.95833
390	905.95833
393.954	920.29167
397.905	896.29167
401.852	924.95833
405.797	910.95833
409.738	894.29167
413.676	910.95833
417.61	918.95833
421.542	902.29167
425.47	877.95833
429.396	884.625
433.318	871.625
437.236	877.625
441.152	906.625
445.065	873.625
448.974	866.29167
452.88	859.95833
456.783	847.29167
460.683	848.625
464.58	865.29167
468.473	869.625
472.364	855.95833
476.251	857.29167
480.135	867.29167
484.016	888.625
487.894	887.95833
491.769	878.29167
495.641	886.29167
499.509	888.95833
503.375	872.625
507.237	875.625
511.096	884.95833
514.952	918.95833
518.805	946.29167
522.655	968.95833
526.502	919.29167
530.346	879.29167
534.187	887.29167
538.024	869.95833
541.859	866.29167
545.69	896.625
549.519	877.95833
553.344	879.625
557.166	866.95833
560.985	853.29167
564.802	854.625
568.615	847.29167
572.425	827.29167
576.232	840.625
580.036	832.625
583.836	836.29167
587.634	839.95833
591.429	835.625
595.221	854.625
599.01	851.625
602.796	855.625
606.578	860.625
610.358	866.625
614.135	863.29167
617.909	857.29167
621.679	837.95833
625.447	828.625
629.212	831.95833
632.973	844.29167
636.732	837.625
640.488	849.95833
644.241	821.95833
647.991	831.29167
651.737	850.29167
655.481	825.625
659.222	833.625
662.96	818.625
666.695	832.95833
670.427	834.95833
674.156	843.29167
677.882	833.29167
681.605	843.29167
685.325	825.625
689.043	845.95833
692.757	819.625
696.468	832.625
700.177	832.95833
703.882	813.29167
707.585	801.95833
711.284	800.625
714.981	805.95833
718.675	803.625
722.366	824.29167
726.054	800.95833
729.739	806.29167
733.421	812.29167
737.1	798.95833
740.777	809.29167
744.45	807.625
748.121	803.625
751.789	843.625
755.453	814.95833
759.115	835.29167
762.774	836.625
766.431	837.95833
770.084	837.29167
773.734	839.625
777.382	859.625
781.027	853.95833
784.669	855.95833
788.308	859.29167
791.944	869.95833
795.577	866.95833
799.208	870.29167
802.835	874.625
806.46	873.95833
810.082	882.625
813.701	873.625
817.317	886.95833
820.931	890.29167
824.542	896.95833
828.149	870.29167
831.754	860.29167
835.357	858.29167
838.956	871.95833
842.553	855.95833
846.146	849.95833
849.737	834.29167
853.326	832.29167
856.911	820.95833
860.493	866.625
864.073	856.625
867.65	880.625
871.225	884.95833
874.796	866.625
878.365	867.95833
881.931	881.95833
885.494	874.95833
889.054	871.95833
892.612	875.95833
896.166	857.95833
899.719	843.95833
903.268	830.95833
906.814	838.29167
910.358	832.95833
913.899	835.95833
917.438	833.625
920.973	805.95833
924.506	824.29167
928.036	848.29167
931.564	857.29167
935.088	873.625
938.61	848.29167
942.129	860.29167
945.646	877.29167
949.16	886.95833
952.671	884.625
956.179	902.625
959.685	895.625
963.188	914.95833
966.688	893.95833
970.185	859.95833
973.68	833.625
977.173	828.625
980.662	829.95833
984.149	829.29167
987.633	809.29167
991.114	810.95833
994.593	827.625
998.069	847.625
1001.542	872.625
1005.013	850.95833
1008.481	807.625
1011.947	785.95833
1015.409	788.95833
1018.869	790.95833
1022.327	810.29167
1025.782	779.625
1029.234	772.95833
1032.683	769.95833
1036.13	754.29167
1039.574	726.95833
1043.016	717.29167
1046.455	713.95833
1049.891	696.625
1053.325	708.29167
1056.756	700.95833
1060.184	696.29167
1063.61	686.95833
1067.033	706.625
1070.454	709.95833
1073.872	715.95833
1077.287	706.29167
1080.7	709.625
1084.11	706.95833
1087.517	701.95833
1090.922	691.29167
1094.325	679.29167
1097.724	682.625
1101.122	685.625
1104.516	680.29167
1107.908	669.95833
1111.298	686.29167
1114.684	700.29167
1118.069	689.625
1121.45	716.29167
1124.83	691.29167
1128.206	695.625
1131.58	707.625
1134.951	725.95833
1138.32	741.95833
1141.687	763.625
1145.05	781.625
1148.412	770.29167
1151.77	775.95833
1155.126	774.95833
1158.48	759.95833
1161.831	770.95833
1165.18	772.625
1168.525	786.625
1171.869	786.625
1175.21	785.95833
1178.548	802.29167
1181.884	812.29167
1185.217	815.29167
1188.548	824.95833
1191.877	837.625
1195.202	890.625
1198.526	891.95833
1201.846	887.29167
1205.165	894.95833
1208.48	903.95833
1211.794	896.29167
1215.104	906.95833
1218.413	879.625
1221.719	887.29167
1225.022	871.95833
1228.323	857.29167
1231.621	861.625
1234.917	854.95833
1238.21	884.95833
1241.501	855.29167
1244.79	842.29167
1248.076	844.29167
1251.359	862.95833
1254.64	894.29167
1257.919	869.625
1261.195	872.29167
1264.468	891.29167
1267.74	898.625
1271.008	896.95833
1274.275	914.625
1277.538	889.625
1280.8	890.95833
1284.059	892.29167
1287.315	896.95833
1290.569	894.95833
1293.821	905.95833
1297.07	919.29167
1300.317	914.29167
1303.562	915.95833
1306.803	915.29167
1310.043	912.625
1313.28	899.29167
1316.515	890.95833
1319.747	908.29167
1322.977	897.29167
1326.204	878.625
1329.429	870.625
1332.652	875.625
1335.872	873.29167
1339.09	856.625
1342.306	842.95833
1345.519	835.625
1348.729	832.95833
1351.938	845.625
1355.144	829.29167
1358.347	815.625
1361.548	833.95833
1364.747	827.95833
1367.944	805.29167
1371.138	819.625
1374.329	810.29167
1377.518	813.95833
1380.705	822.95833
1383.89	810.625
1387.072	780.95833
1390.252	771.95833
1393.429	754.625
1396.605	727.29167
1399.777	713.95833
1402.948	721.95833
1406.116	692.29167
1409.282	692.29167
1412.445	681.95833
1415.606	705.625
1418.765	704.29167
1421.921	731.29167
1425.075	718.95833
1428.227	751.625
1431.376	771.95833
1434.524	812.625
1437.668	810.29167
1440.811	820.95833
1443.951	826.95833
1447.089	831.625
1450.224	828.29167
1453.357	812.29167
1456.488	823.29167
1459.617	800.95833
1462.743	795.95833
1465.867	785.29167
1468.989	775.29167
1472.108	757.95833
1475.225	744.625
1478.34	731.95833
1481.453	726.625
1484.563	719.95833
1487.671	745.625
1490.776	758.29167
1493.88	753.95833
1496.981	772.29167
1500.08	773.625
1503.176	772.29167
1506.271	780.95833
1509.363	795.95833
1512.452	805.625
1515.54	803.625
1518.625	817.95833
1521.708	842.95833
1524.789	867.95833
1527.867	874.29167
1530.944	932.29167
1534.018	942.29167
1537.089	992.29167
1540.159	1008.625
1543.226	999.625
1546.291	971.625
1549.354	960.95833
1552.415	941.29167
1555.473	922.625
1558.529	923.95833
1561.583	913.625
1564.634	889.95833
1567.684	911.625
1570.731	896.95833
1573.776	918.29167
1576.819	912.625
1579.859	909.625
1582.898	936.95833
1585.934	949.625
1588.968	956.625
1591.999	942.625
1595.029	935.95833
1598.056	956.625
1601.081	964.95833
1604.104	956.29167
1607.125	950.29167
1610.144	927.95833
1613.16	899.29167
1616.174	873.29167
1619.186	880.29167
1622.196	862.95833
1625.203	819.95833
1628.209	836.95833
1631.212	826.29167
1634.213	827.95833
1637.212	834.29167
1640.209	833.29167
1643.203	798.29167
1646.196	778.625
1649.186	744.29167
1652.174	736.29167
1655.16	700.29167
1658.144	693.29167
1661.125	652.95833
1664.105	650.95833
1667.082	615.625
1670.057	577.95833
1673.03	542.95833
1676.001	522.29167
1678.97	483.95833
1681.937	477.95833
1684.901	453.29167
1687.863	448.95833
1690.824	408.95833
1693.782	428.95833
1696.738	399.625
1699.692	399.29167
1702.643	383.95833
1705.593	386.625
1708.54	366.29167
1711.486	384.625
1714.429	364.29167
1717.37	380.625
1720.309	358.625
1723.246	366.95833
1726.181	347.95833
1729.113	353.95833
1732.044	356.95833
1734.972	358.29167
1737.899	365.625
1740.823	361.95833
1743.745	381.29167
1746.665	335.625
1749.583	333.625
1752.499	331.625
1755.413	329.625
1758.325	316.625
1761.235	331.95833
1764.142	312.29167
1767.048	310.625
1769.951	318.95833
1772.852	311.29167
1775.752	321.29167
1778.649	314.625
1781.544	328.95833
1784.437	299.95833
1787.328	312.95833
1790.217	311.95833
1793.104	287.29167
1795.989	292.625
1798.872	286.625
1801.753	301.29167
1804.631	295.625
1807.508	302.29167
1810.383	292.95833
1813.255	284.95833
1816.126	291.625
1818.994	287.625
1821.861	282.29167
1824.725	289.625
1827.587	296.625
1830.448	283.625
1833.306	280.29167
1836.162	296.95833
1839.017	280.29167
1841.869	285.29167
1844.719	279.29167
1847.567	272.95833
1850.414	267.625
1853.258	259.625
1856.1	288.95833
1858.94	293.625
1861.778	286.95833
1864.614	265.29167
1867.448	279.29167
1870.28	260.95833
1873.111	286.95833
1875.939	266.625
1878.765	285.95833
1881.589	265.29167
1884.411	271.625
1887.231	275.95833
1890.049	272.29167
1892.865	277.95833
1895.68	260.625
1898.492	273.95833
1901.302	266.625
1904.11	267.625
1906.916	262.29167
1909.721	254.625
1912.523	267.625
1915.323	260.29167
1918.122	258.95833
1920.918	270.29167
1923.712	246.625
1926.505	259.29167
1929.295	239.625
1932.084	258.95833
1934.87	258.29167
1937.655	254.95833
1940.438	245.95833
1943.218	248.95833
1945.997	254.625
1948.774	257.95833
1951.549	262.95833
1954.322	252.625
1957.093	250.95833
1959.862	244.95833
1962.629	243.95833
1965.394	244.29167
1968.157	237.95833
1970.918	250.625
1973.678	237.29167
1976.435	251.95833
1979.19	243.29167
1981.944	225.29167
1984.696	239.29167
1987.445	232.29167
1990.193	239.29167
1992.939	252.95833
1995.683	243.29167
1998.425	226.625
2001.165	254.95833
2003.903	224.625
2006.639	237.625
2009.374	241.625
2012.106	239.625
2014.837	218.29167
2017.566	239.95833
2020.292	234.625
2023.017	231.29167
2025.74	225.29167
2028.461	221.625
2031.18	240.625
2033.898	218.95833
2036.613	225.29167
2039.327	231.95833
2042.038	217.625
2044.748	227.29167
2047.456	232.625
2050.162	215.625
2052.866	224.625
2055.568	234.29167
2058.268	219.95833
2060.967	230.95833
2063.663	207.625
2066.358	219.625
2069.051	212.95833
2071.742	222.95833
2074.431	226.95833
2077.118	220.95833
2079.804	205.29167
2082.487	215.625
2085.169	231.29167
2087.849	242.29167
2090.527	219.29167
2093.203	215.95833
2095.877	215.95833
2098.55	220.625
2101.22	236.95833
2103.889	232.625
2106.556	223.625
2109.221	238.625
2111.884	226.95833
2114.546	249.95833
2117.205	254.625
2119.863	282.625
2122.519	274.95833
2125.173	291.625
2127.825	316.625
2130.475	325.29167
2133.124	299.95833
2135.771	287.95833
2138.416	304.29167
2141.059	274.625
2143.7	275.29167
2146.339	253.625
2148.977	226.625
2151.613	244.29167
2154.247	238.95833
2156.879	229.95833
2159.51	218.625
2162.138	221.625
2164.765	216.625
2167.39	207.95833
2170.013	231.95833
2172.634	230.29167
2175.254	210.29167
2177.872	243.95833
2180.488	201.95833
2183.102	205.625
2185.714	201.95833
2188.325	199.625
2190.934	211.625
2193.541	214.29167
2196.146	204.625
2198.75	193.29167
2201.351	195.29167
2203.951	186.625
2206.549	199.95833
2209.146	194.625
2211.74	191.95833
2214.333	192.95833
2216.924	184.95833
2219.514	191.95833
2222.101	187.95833
2224.687	200.625
2227.271	181.625
2229.853	185.625
2232.433	167.95833
2235.012	195.625
2237.589	186.95833
2240.164	202.95833
2242.738	184.29167
2245.309	175.625
2247.879	201.625
2250.448	191.625
2253.014	170.625
2255.579	170.95833
2258.142	177.95833
2260.703	175.95833
2263.262	172.625
2265.82	163.29167
2268.376	190.29167
2270.93	175.29167
2273.483	171.29167
2276.033	181.625
2278.583	168.625
2281.13	167.625
2283.675	159.95833
2286.219	167.625
2288.761	179.625
2291.302	179.29167
2293.841	187.625
2296.377	163.625
2298.913	179.29167
2301.446	182.95833
2303.978	169.625
2306.508	173.29167
2309.037	177.29167
2311.563	173.625
2314.088	170.29167
2316.612	158.29167
2319.133	175.625
2321.653	177.625
2324.171	165.29167
2326.688	178.95833
2329.202	173.95833
2331.715	177.95833
2334.227	169.29167
2336.736	168.95833
2339.244	162.95833
2341.751	151.95833
2344.255	169.95833
2346.758	166.95833
2349.259	160.29167
2351.759	168.95833
2354.257	158.29167
2356.753	155.625
2359.247	162.29167
2361.74	159.95833
2364.231	161.29167
2366.721	173.29167
2369.209	159.625
2371.695	161.625
2374.179	157.29167
2376.662	151.29167
2379.143	173.95833
2381.622	156.625
2384.1	168.29167
2386.576	163.29167
2389.051	173.29167
2391.524	172.95833
2393.995	168.95833
2396.464	153.625
2398.932	158.95833
2401.398	161.95833
2403.863	152.29167
2406.325	153.95833
2408.787	164.625
2411.246	159.95833
2413.704	157.625
2416.16	154.625
2418.615	154.29167
2421.068	161.95833
2423.519	152.625
2425.969	149.95833
2428.417	166.29167
2430.863	177.625
2433.308	166.29167
2435.751	158.29167
2438.193	160.95833
2440.633	162.625
2443.071	164.625
2445.508	149.95833
2447.943	159.29167
2450.376	152.29167
2452.808	161.29167
2455.238	154.95833
2457.667	181.29167
2460.093	150.625
2462.519	143.95833
2464.942	146.29167
2467.365	154.29167
2469.785	160.625
2472.204	151.29167
2474.621	155.95833
2477.037	168.95833
2479.451	141.625
2481.863	148.625
2484.274	142.625
2486.683	157.625
2489.091	161.29167
2491.497	154.625
2493.901	152.625
2496.304	150.625
2498.705	163.95833
2501.105	149.95833
2503.503	171.95833
2505.899	148.95833
2508.294	169.95833
2510.687	146.95833
2513.079	151.95833
2515.469	145.95833
2517.858	149.625
2520.245	165.95833
2522.63	150.95833
2525.014	145.29167
2527.396	151.625
2529.776	139.95833
2532.156	161.95833
2534.533	136.95833
2536.909	139.625
2539.283	128.95833
2541.656	147.95833
2544.027	160.29167
2546.397	153.95833
2548.765	150.625
2551.131	151.625
2553.496	157.625
2555.86	158.29167
2558.221	159.625
2560.582	142.95833
2562.94	139.29167
2565.298	149.625
2567.653	162.29167
2570.007	143.95833
2572.36	160.29167
2574.711	142.95833
2577.06	157.95833
2579.408	149.95833
2581.754	149.625
2584.099	150.95833
2586.442	142.95833
2588.784	152.625
2591.124	153.29167
2593.463	149.95833
2595.8	152.95833
2598.135	135.95833
2600.469	140.625
2602.802	153.95833
2605.133	159.625
2607.462	137.95833
2609.79	140.625
2612.116	158.29167
2614.441	145.95833
2616.764	153.625
2619.086	151.29167
2621.406	147.29167
2623.725	157.95833
2626.042	147.29167
2628.358	140.95833
2630.672	150.95833
2632.985	153.29167
2635.296	146.95833
2637.606	151.625
2639.914	142.95833
2642.22	150.29167
2644.525	146.95833
2646.829	146.95833
2649.131	156.95833
2651.432	152.625
2653.731	146.95833
2656.028	166.95833
2658.324	157.625
2660.619	143.29167
2662.912	153.29167
2665.204	141.29167
2667.494	157.29167
2669.782	146.29167
2672.07	165.29167
2674.355	165.29167
2676.639	153.29167
2678.922	146.95833
2681.203	160.29167
2683.483	149.625
2685.761	142.625
2688.038	160.625
2690.313	171.625
2692.587	154.29167
2694.859	152.95833
2697.13	148.625
2699.399	152.625
2701.667	163.95833
2703.933	155.95833
2706.198	171.625
2708.461	166.29167
2710.723	164.625
2712.984	156.95833
2715.243	168.625
2717.5	159.95833
2719.757	171.625
2722.011	156.29167
2724.264	167.95833
2726.516	172.95833
2728.766	153.95833
2731.015	162.29167
2733.262	161.29167
2735.508	166.95833
2737.753	164.625
2739.996	151.29167
2742.237	150.625
2744.477	171.625
2746.716	172.95833
2748.953	171.625
2751.189	177.29167
2753.423	166.625
2755.656	157.95833
2757.887	153.625
2760.117	163.625
2762.346	152.625
2764.573	146.95833
2766.798	153.95833
2769.022	159.625
2771.245	150.625
2773.467	155.29167
2775.686	158.29167
2777.905	166.625
2780.122	160.29167
2782.337	162.625
2784.552	164.625
2786.764	155.95833
2788.976	153.625
2791.186	163.95833
2793.394	161.625
2795.601	168.625
2797.807	173.29167
2800.011	159.95833
2802.214	173.625
2804.415	165.29167
2806.615	167.29167
2808.814	170.29167
2811.011	173.95833
2813.206	174.625
2815.401	181.625
2817.594	188.29167
2819.785	181.29167
2821.975	174.625
2824.164	174.29167
2826.351	178.29167
2828.537	187.29167
2830.722	191.625
2832.905	190.29167
2835.086	192.29167
2837.267	206.625
2839.445	201.95833
2841.623	205.95833
2843.799	207.95833
2845.974	214.29167
2848.147	209.625
2850.319	232.29167
2852.489	234.625
2854.659	236.29167
2856.826	239.95833
2858.993	254.95833
2861.158	231.625
2863.321	243.29167
2865.483	247.95833
2867.644	245.29167
2869.804	249.625
2871.962	244.625
2874.118	245.29167
2876.274	253.625
2878.428	242.29167
2880.58	246.625
2882.731	239.625
2884.881	240.29167
2887.03	249.625
2889.177	246.29167
2891.322	257.29167
2893.467	240.625
2895.61	239.95833
2897.751	257.29167
2899.892	244.95833
2902.03	255.95833
2904.168	252.29167
2906.304	250.95833
2908.439	269.29167
2910.572	245.625
2912.704	251.95833
2914.835	260.95833
2916.965	261.625
2919.093	271.29167
2921.219	246.625
2923.345	274.95833
2925.469	258.29167
2927.591	257.625
2929.712	243.625
2931.832	257.95833
2933.951	243.95833
2936.068	244.625
2938.184	241.29167
2940.299	235.625
2942.412	227.95833
2944.524	217.29167
2946.634	229.95833
2948.744	202.95833
2950.851	244.29167
2952.958	205.95833
2955.063	221.29167
2957.167	205.29167
2959.269	191.95833
2961.371	228.29167
2963.471	202.29167
2965.569	214.29167
2967.666	186.29167
2969.762	185.625
2971.857	179.95833
2973.95	184.625
2976.042	187.625
2978.133	174.95833
2980.222	181.95833
2982.31	170.625
2984.396	157.625
2986.482	162.95833
2988.566	167.625
2990.648	168.29167
2992.73	168.95833
2994.81	154.625
2996.889	170.95833
2998.966	164.29167
3001.042	173.29167
3003.117	159.29167
3005.191	165.29167
3007.263	168.625
3009.334	163.625
3011.403	163.625
3013.472	156.95833
3015.539	173.95833
3017.604	184.95833
3019.669	150.29167
3021.732	152.95833
3023.794	156.95833
3025.854	140.95833
3027.914	148.95833
3029.971	145.95833
3032.028	146.625
3034.083	157.29167
3036.137	149.95833
3038.19	140.95833
3040.242	133.95833
3042.292	135.95833
3044.341	139.625
3046.388	157.625
3048.435	126.625
3050.48	151.625
3052.524	138.29167
3054.566	122.95833
3056.607	133.625
3058.647	132.95833
3060.686	121.95833
3062.723	112.29167
3064.759	114.625
3066.794	-2.70833
3068.828	0.95833
3070.86	3.625
